"V1" "V2" "V4" "V5" "V7" "V8" "V10" "V11" "V13" "V14" "V15" "V17" "V18" "V20" "V21" "V23"
"1" 0.000180973563256036 5.87257296740934e-05 3.20210684286354e-05 -4.20427418330044e-05 0.000405506161845816 -0.000152589452517538 0.000548394018924166 -3.0656469527343e-05 0.000830217719596944 0.00104329543680755 -0.000129855511937539 0.000100244927704287 -0.000110939860345343 -0.00124428410616111 -1.34253644466592e-05 -0.000508885988214418
"2" 0.000158326079442543 5.13532939635283e-05 1.89677803089568e-05 -3.84575926078328e-05 0.00040634924616866 -0.000158298401774396 0.000543983776896113 -2.80374773764881e-05 0.00107413341021457 0.00105628340662833 -0.000123980451995098 0.000116862469238469 -9.2052938861284e-05 -0.00115587062235075 1.60534080965e-05 -0.000718552488104845
"3" 0.000135489266292105 4.38053027726644e-05 5.45415886074637e-06 -3.44546702019525e-05 0.000405112239853137 -0.000163802392641858 0.00053756372769878 -2.54464233378107e-05 0.00130435759157398 0.00106522621371123 -0.000118299110886305 0.000133388128742303 -7.33710403871818e-05 -0.00106404805019114 4.5208175562952e-05 -0.000921893229896073
"4" 0.000112668861599813 3.61351989855035e-05 -8.37846909874687e-06 -3.00517506735682e-05 0.000401791242434019 -0.000169062096882054 0.000529199299724681 -2.287731506682e-05 0.00151910029649351 0.00107009347234906 -0.000112856164108998 0.000149773582226415 -5.49422094296294e-05 -0.000969725403865318 7.39128426239298e-05 -0.00111760692068073
"5" 9.00755297184163e-05 2.84098058758992e-05 -2.23900265267161e-05 -2.5272755103027e-05 0.000396413215453246 -0.000174041993905739 0.000518982673125514 -2.03206877740492e-05 0.00171672751323009 0.00107088100431569 -0.000107695691514605 0.000165974122543159 -3.68111127619971e-05 -0.000873817431281357 0.000102042320290996 -0.00130450567755637
"6" 6.79247750500956e-05 2.06984227931467e-05 -3.64106793193378e-05 -2.01339481889761e-05 0.000389042654316291 -0.000178703709862645 0.000507023182273752 -1.77500036171013e-05 0.00189577002764446 0.00106760737836478 -0.000102861923743476 0.000181943396413415 -1.90237220511231e-05 -0.000777235919988057 0.000129467957359141 -0.00148150784758983
"7" 4.64284189898799e-05 1.30720395258566e-05 -5.02809973262367e-05 -1.46553693096564e-05 0.000379770893927286 -0.000183009379349012 0.0004934531304942 -1.51507007149826e-05 0.00205495602920426 0.00106032381307203 -9.83979073904053e-05 0.00019763252389828 -1.63338392132016e-06 -0.00068087228054569 0.000156056564756416 -0.00164764090485091
"8" 2.57953903172482e-05 5.61576486676465e-06 -6.38222937438209e-05 -8.84906558601453e-06 0.000368724571891542 -0.000186920508060019 0.000478438431958765 -1.24981497171692e-05 0.00219320090810844 0.00104910265842686 -9.43448663979293e-05 0.000212989103878128 1.53147067525438e-05 -0.000585600761286055 0.000181684888959705 -0.00180204217261028
"9" 6.23058196693267e-06 -1.59268860925951e-06 -7.68488388735453e-05 -2.72647938936494e-06 0.000356059905280402 -0.000190402842957277 0.000462150857853016 -9.76354763488795e-06 0.00230963266837579 0.00103405109792082 -9.07424578780684e-05 0.000227963360829841 3.1766478178858e-05 -0.000492263189089893 0.00020622192962787 -0.00194396822146785
"10" -1.20593017621137e-05 -8.46505920934424e-06 -8.91751211499695e-05 3.69910681965211e-06 0.000341960135281236 -0.00019341655584892 0.000444786233103396 -6.91456063375023e-06 0.00240360630646799 0.00101530188802636 -8.76238134734375e-05 0.000242496135673736 4.76673020561094e-05 -0.000401662112819262 0.000229539285756211 -0.00207278958487584
"11" -2.88808979046718e-05 -1.49156497479929e-05 -0.000100612068980491 1.04220824717726e-05 0.000326636552575907 -0.000195926121287574 0.000426560805276035 -3.92195635110316e-06 0.00247468725302978 0.00099301916244815 -8.50195097480608e-05 0.000256529260549779 6.29643721274145e-05 -0.000314554699524036 0.000251509097339015 -0.0021879897056111
"12" -4.40430092115407e-05 -2.08503790716579e-05 -0.000110971254054454 1.74376285935218e-05 0.000310324859875756 -0.000197898725598144 0.000407703369980038 -7.49200363613864e-07 0.00252266752953597 0.000967389780837126 -8.29541332838131e-05 0.000270003695609019 7.7606321473298e-05 -0.000231644342434133 0.000272009990945877 -0.00228916645244315
"13" -5.73704585410731e-05 -2.61802316448871e-05 -0.000120061473789875 2.47428144734624e-05 0.000293276796720613 -0.000199298367130406 0.000388446993766376 2.63953305053055e-06 0.0025475744303327 0.000938634888682003 -8.14506994242653e-05 0.000282853629344813 9.15340257620743e-05 -0.000153579954443925 0.000290914242266667 -0.00237603606261215
"14" -6.86948552078418e-05 -3.0813943210166e-05 -0.000127697671582877 3.23374384332762e-05 0.000275769511166748 -0.000200098388132911 0.000369047883442032 6.28311112829516e-06 0.00254964316198501 0.000906999765304804 -8.05238525215606e-05 0.00029501792625916 0.00010469657155141 -8.09362952538105e-05 0.000308103570443794 -0.00244843187754265
"15" -7.78615874565489e-05 -3.46637345713072e-05 -0.00013370500120573 4.02196053139622e-05 0.000258084630363393 -0.00020026587680195 0.000349759027126573 1.02134298333666e-05 0.00252933479009053 0.00087275608227007 -8.01779435161486e-05 0.00030642350413824 0.000117039194217305 -1.42274433391966e-05 0.000323461933032116 -0.00250629877758019
"16" -8.47314111956654e-05 -3.76375423353679e-05 -0.000137908449062718 4.83936589920208e-05 0.0002405223037914 -0.00019977861206184 0.000330840227765283 1.44666750234042e-05 0.00248731300292274 0.000836202084891469 -8.04179452822305e-05 0.000317003878937955 0.000128508094458909 4.61065531191407e-05 0.000336874324392144 -0.00254969765530554
"17" -8.91717033641934e-05 -3.96552862815786e-05 -0.000140149167802942 5.68616563227757e-05 0.000223381632252711 -0.000198610264206089 0.000312547189370992 1.90763918021485e-05 0.00242443906650551 0.000797651382721311 -8.12398402679873e-05 0.000326686888692676 0.000139049894326148 9.9704914466517e-05 0.000348235629477305 -0.0025788132063662
"18" -9.10813525955989e-05 -4.06356196411996e-05 -0.00014027908634943 6.56261353038734e-05 0.000206965806296716 -0.000196745048839784 0.000295143308931711 2.40699082648028e-05 0.00234176035305624 0.000757437101650565 -8.2630146822496e-05 0.000335401321967179 0.000148617170864922 0.000146292230549592 0.000357439739812325 -0.0025939317880232
"19" -9.03631015888398e-05 -4.05062294673542e-05 -0.000138165156568761 7.46912546995796e-05 0.000191575396122948 -0.000194164142296354 0.000278874975034981 2.94744075935555e-05 0.00224049484008055 0.000715907714036715 -8.45703859291312e-05 0.000343073577226664 0.000157159113462173 0.000185664025049471 0.000364394367527715 -0.00259545557980635
"20" -8.69419598925827e-05 -3.92002242666692e-05 -0.000133687813464995 8.40579061230897e-05 0.000177505140767219 -0.000190856410338843 0.000263985343833977 3.53106377196122e-05 0.00212200898891416 0.000673414300241582 -8.70327872311658e-05 0.00034963452206909 0.000164631728819058 0.000217705451005712 0.000369009498187696 -0.00258390287160126
"21" -8.07696203505348e-05 -3.66585061844244e-05 -0.000126752019668038 9.37272828968206e-05 0.000165035157584388 -0.000186816482280904 0.000250711300714059 4.1593078187242e-05 0.00198781649011651 0.000630314310514089 -8.99860942541227e-05 0.000355012909839052 0.000170992500658542 0.000242383649415659 0.000371208476257267 -0.00255990109653997
"22" -7.18081292767183e-05 -3.28322099944064e-05 -0.000117277851460778 0.000103700692688538 0.000154435853608449 -0.000182038102892041 0.00023926211880287 4.83313600518461e-05 0.00183954210424402 0.00058695816087271 -9.33885867416317e-05 0.000359141078034006 0.000176203304910213 0.000259752348710364 0.000370912516505338 -0.00252418196126377
"23" -6.00404811510336e-05 -2.7679636523503e-05 -0.000105206222269305 0.000113973637666532 0.000145954828230357 -0.000176521843063768 0.000229844639388449 5.55335312777435e-05 0.00167892225013622 0.000543690660324849 -9.71962624585516e-05 0.000361957414620752 0.000180227572548112 0.000269933260873439 0.00036806720643484 -0.00247758720433275
"24" -4.5483533195412e-05 -2.11759489114719e-05 -9.05044478328423e-05 0.000124545317823948 0.000139821066050113 -0.00017026775923494 0.000222635814398972 6.31906519396321e-05 0.00150776318471168 0.000500839457203323 -0.000101357129479128 0.000363401123314393 0.000183039486900275 0.000273141514764879 0.00036261783623469 -0.00242104385744876
"25" -2.81570524370525e-05 -1.33011170553036e-05 -7.31648069465782e-05 0.000135403075981596 0.0001362316336807 -0.000163290894924523 0.00021779694527135 7.12957437366656e-05 0.00132794425850451 0.000458713334442199 -0.000105813115987141 0.000363423199732754 0.000184612506967932 0.000269662975442083 0.000354527806620575 -0.00235557534348872
"26" -8.12237925502175e-06 -4.05134596289451e-06 -5.3200535119617e-05 0.000146540036286627 0.000135363870455177 -0.000155595546721148 0.000215459820309275 7.98275026075909e-05 0.00114138844895434 0.000417596560330357 -0.000110503028166529 0.000361974451296897 0.000184927379383405 0.00025985250421724 0.000343769562585055 -0.00228228430452579
"27" 1.45507052270123e-05 6.56097902195585e-06 -3.06539264785742e-05 0.00015794006717209 0.000137348659667087 -0.000147199732415142 0.000215731040288718 8.87650581018945e-05 0.000950051393699106 0.000377740969203902 -0.000115359380328913 0.000359016827035889 0.000183971926552553 0.000244141780240087 0.000330328823746193 -0.00220234520173336
"28" 3.97618407046161e-05 1.85152789575942e-05 -5.59838929002685e-06 0.00016958165460865 0.000142297819863304 -0.000138124455330789 0.00021869463637663 9.80732925191985e-05 0.000755895409453531 0.000339363153880755 -0.000120317617722741 0.000354524164220206 0.000181743363283188 0.00022302639688961 0.000314208091710396 -0.00211699852725507
"29" 6.73962184317066e-05 3.17715482105052e-05 2.18722266657435e-05 0.00018144511075142 0.000150271200505438 -0.000128388830445576 0.000224396174210399 0.00010770813308872 0.00056088457307383 0.00030264741415957 -0.000125301075945406 0.000348478878763561 0.000178237380184713 0.000197070012453971 0.000295421270374191 -0.00202752393859127
"30" 9.73053696190735e-05 4.62746063074367e-05 5.16237829741618e-05 0.000193498925872428 0.000161298500482444 -0.000118016020820482 0.0002328557421735 0.000117626007990067 0.000366946652654195 0.000267734735529817 -0.000130240346528131 0.000340872565514765 0.000173466707578451 0.000166892023288488 0.000274000203521582 -0.00193523509683427
"31" 0.000129324124362272 6.19565699612402e-05 8.35037457610263e-05 0.000205708384775352 0.000175356952859957 -0.00010704001617789 0.000244051695219963 0.00012776638283467 0.000175973370424547 0.000234725183885061 -0.000135062710489449 0.000331712454337848 0.000167445118165121 0.000133167529979696 0.000249995610513481 -0.00184146665508474
"32" 0.000163269725731976 7.87332014271252e-05 0.000117323133396393 0.000218036015248893 0.000192387826090203 -9.54859565818175e-05 0.00025794068026156 0.000138066660158507 -1.02076234485483e-05 0.000203682256181067 -0.000139692334985948 0.000321017563059382 0.000160194571072001 9.66194372216182e-05 0.000223466505058162 -0.00174754579021455
"33" 0.000198927846022593 9.64999353663243e-05 0.00015286463217834 0.000230432537232416 0.000212279152325566 -8.33917298011039e-05 0.000274434143771677 0.000148453759307331 -0.000189846786093089 0.000174628280577518 -0.000144061016297798 0.00030882046178082 0.000151747396573584 5.80113503713205e-05 0.00019449483196146 -0.00165478064011239
"34" 0.000236069771713344 0.000115142263836828 0.000189881025426889 0.000242846340925847 0.000234876787216447 -7.07928256768925e-05 0.000293409001367209 0.000158850050266317 -0.000361278919656226 0.000147544321261168 -0.00014809601171931 0.000295166865940507 0.000142140645134885 1.81429853548139e-05 0.00016317883859739 -0.00156444787851277
"35" 0.000274444821434041 0.000134526326132805 0.000228100621762297 0.000255218944381457 0.000259975196080927 -5.77282671018107e-05 0.00031470796537741 0.000169168952983225 -0.000522959057216662 0.000122386864709013 -0.000151733776532702 0.000280116065895305 0.000131420550767284 -2.21555248821451e-05 0.000129626919926511 -0.00147776199265499
"36" 0.000313785091601157 0.000154502888730617 0.000267214133568358 0.000267479522138975 0.000287318106058235 -4.42405991586127e-05 0.000338130647391888 0.000179317977154912 -0.000673459149601479 9.90735041459073e-05 -0.000154911128886963 0.000263743370923584 0.000119640465555896 -6.20351834063893e-05 9.39697791855298e-05 -0.00139586612002926
"37" 0.000353799684219206 0.000174907368580857 0.000306897595729926 0.000279560814729078 0.000316605673182895 -3.03733297412727e-05 0.000363447623506181 0.000189199633639139 -0.000811499744573398 7.7502556573968e-05 -0.000157570267969418 0.000246138500901143 0.000106861103256906 -0.000100634100888694 5.63558471291589e-05 -0.00131981676053957
"38" 0.000394181476102434 0.000195563860798926 0.000346795602624074 0.000291380827113135 0.000347484713897319 -1.61767794177553e-05 0.000390388245889782 0.000198710366841865 -0.000935957891948787 5.75503327826716e-05 -0.000159660162949662 0.0002273985875946 9.31478189560011e-05 -0.000137089426531002 1.6938216884233e-05 -0.0012505590945004
"39" 0.000434614932517469 0.00021628071059702 0.000386520718963376 0.000302853623650092 0.000379558805913759 -1.69770668546676e-06 0.000418646323181129 0.000207743811559064 -0.00104588029410263 3.9077713615857e-05 -0.000161139365670812 0.000207638152200186 7.85771731422963e-05 -0.00017053906929397 -2.41063273134264e-05 -0.00118892709625
"40" 0.000474764048034367 0.000236850877588083 0.00042567693731071 0.000313882875094697 0.000412383608365882 1.30112801904343e-05 0.000447886267914888 0.000216182970256688 -0.0011404971709392 2.19353799520322e-05 -0.000161967130137297 0.000186985423571362 6.3225925786316e-05 -0.000200140614080826 -6.65907322482748e-05 -0.00113561608008527
"41" 0.00051428182542286 0.000257061150651884 0.000463839948788539 0.000324374539349443 0.00044547506924524 2.78933618749794e-05 0.000477727390877839 0.000223913747210089 -0.00121923323617252 5.97252068585399e-06 -0.000162115714805463 0.00016557171361963 4.71783564601755e-05 -0.000225078576886741 -0.00011031801578441 -0.00109119407370701
"42" 0.000552816210419523 0.000276688053064264 0.000500584305006037 0.00033422131480449 0.000478305210743368 4.28908846995543e-05 0.000507777235504092 0.000230817680254005 -0.00128172685557141 -8.96539458526498e-06 -0.000161565562678186 0.000143546698039304 3.0523405945429e-05 -0.00024456954940496 -0.000155073364686171 -0.00105607201807875
"43" 0.000590007776020082 0.000295495424144265 0.000535454433019852 0.000343315717312994 0.00051031375613797 5.79424526519902e-05 0.000537600355885257 0.000236773989493634 -0.00132782690823047 -2.30243325320067e-05 -0.000160303405028416 0.000121061041211768 1.33557144414647e-05 -0.000257882307027653 -0.000200638910695134 -0.00103051761785154
"44" 0.000625491381152398 0.000313245332794259 0.000567995385781522 0.000351543467203418 0.000540909098518051 7.29886506064579e-05 0.000566745481160963 0.000241657772328483 -0.0013575996326491 -3.6340649257089e-05 -0.000158326647416476 9.82788719845804e-05 -4.22794038267765e-06 -0.000264342636030552 -0.000246783284563792 -0.00101465198599343
"45" 0.000658900719848985 0.000329694833194278 0.000597752765778725 0.000358786456717531 0.000569477119058967 8.7960595958378e-05 0.000594735130745404 0.000245353559977685 -0.00137133826909131 -4.90395076343631e-05 -0.000155644470396214 7.5360849143587e-05 -2.21296731698e-05 -0.000263351897661678 -0.000293272275087836 -0.00100844598787642
"46" 0.000689875364744232 0.000344598220697793 0.00062426717455393 0.000364928743838573 0.000595382240675631 0.000102794049886707 0.000621076804576473 0.000247735597633648 -0.00136955551032652 -6.12334008681589e-05 -0.000152269382362995 5.24805895608921e-05 -4.02479100763323e-05 -0.000254386843325523 -0.000339862353918536 -0.00101173416153315
"47" 0.000718061941407939 0.000357710960445877 0.000647087379753693 0.000369849788347602 0.000617978265017857 0.000117415705170007 0.000645269379339581 0.000248685818290712 -0.00135298242771261 -7.30123078346791e-05 -0.000148228847213628 2.98057658112867e-05 -5.84778206344517e-05 -0.000237009588990478 -0.000386306508268983 -0.00102421004635662
"48" 0.000743114469272498 0.000368792688958429 0.000665775791823072 0.000373429830542955 0.000636620608130336 0.000131760138173391 0.000666806086593951 0.000248092827981793 -0.00132256947890478 -8.44506072085657e-05 -0.000143559946731638 7.51176973553892e-06 -7.67172103736097e-05 -0.000210885645389312 -0.000432353427899835 -0.00104544056165718
"49" 0.000764700606353959 0.000377607994940078 0.00067991081272566 0.000375552398261111 0.000650665023948292 0.000145746979625951 0.000685179113080396 0.000245840981000721 -0.00127945585605129 -9.55992157789114e-05 -0.000138303339764562 -1.42349366462796e-05 -9.48607565340604e-05 -0.000175785456626817 -0.000477755591716849 -0.00107488114652691
"50" 0.000782507184531091 0.000383929644317078 0.000689093904603191 0.000376104603849546 0.000659485941143198 0.000159313513699441 0.000699882772851878 0.000241830893193813 -0.00122497643195934 -0.000106491975119003 -0.000132512987037543 -3.52623515635934e-05 -0.000112804676859147 -0.000131585375086302 -0.000522259915580205 -0.0011118841900779
"51" 0.000796242156215655 0.000387545245099624 0.000692960019856694 0.00037497900629967 0.000662484328824533 0.000172379804377165 0.000710429784965149 0.00023596357300938 -0.00116062860906634 -0.000117137840334943 -0.000126252870875642 -5.5409894633523e-05 -0.00013044601634533 -7.82849660991585e-05 -0.000565619244562976 -0.00115570820184693
"52" 0.000805639954320641 0.000388252556765118 0.00069117675601694 0.000372073783216552 0.000659093617159562 0.000184879137568324 0.000716355304600179 0.000228150068659047 -0.00108805442815003 -0.000127523991026633 -0.000119590081283161 -7.45165765771977e-05 -0.000147682415099327 -1.59931549779193e-05 -0.000607582391738213 -0.00120552969033563
"53" 0.000810464508837046 0.000385871887229529 0.000683451399038797 0.000367296502399626 0.000648792312595516 0.000196736303333206 0.000717213074202327 0.0002183136253051 -0.00100901200615294 -0.000137620165033033 -0.000112600159926565 -9.24328860279528e-05 -0.000164415037870736 5.50548450060931e-05 -0.000647908695564821 -0.00126046888869818
"54" 0.000810512388412491 0.000380243665152207 0.000669542674124834 0.000360567506484279 0.000631119993853093 0.00020788927641294 0.000712596706217311 0.000206388187831631 -0.000925350653208036 -0.000147375387738157 -0.000105365484729174 -0.000109008942119776 -0.000180542469477851 0.000134516796215408 -0.000686364965217895 -0.00131959346483234
"55" 0.000805613625552901 0.000371228137477334 0.000649256801418572 0.000351816216866232 0.000605675161808543 0.000218270155743708 0.000702144220496065 0.000192325351843363 -0.000838974410943059 -0.00015671711209008 -9.797401355852e-05 -0.00012411111416011 -0.000195970447406705 0.00022193530885726 -0.00072271665586536 -0.00138193041988096
"56" 0.000795638686502627 0.000358716733707288 0.000622459225989461 0.000340990242195183 0.000572129949791409 0.000227825582068774 0.000685536159928611 0.000176083274683404 -0.000751816565513825 -0.00016556394406623 -9.05197270493429e-05 -0.00013760991175779 -0.00021060262882809 0.000316740023895527 -0.00075674552372271 -0.00144648530339983
"57" 0.000780506376915199 0.000342627067385445 0.000589072670031547 0.000328052643731127 0.000530243899808357 0.000236497644997779 0.000662506801292413 0.00015764498366767 -0.000665799939611063 -0.000173814123542345 -8.3096400457094e-05 -0.000149386215095507 -0.000224349076523337 0.000418276417569717 -0.000788236792229929 -0.00151225014203078
"58" 0.000760169397912887 0.00032290718673213 0.000549084196019528 0.000312977040706568 0.000479856509477765 0.000244241376467081 0.000632859544527887 0.00013700654394694 -0.000582805751890387 -0.000181353874104509 -7.58035908372941e-05 -0.000159330539152133 -0.000237121320306255 0.000525785550038091 -0.00081699074408676 -0.00157821999721639
"59" 0.000734630373541296 0.000299540422340856 0.000502544157395011 0.000295764879422548 0.000420905764609761 0.000251018168912234 0.000596452051005193 0.000114184862646115 -0.000504645968530117 -0.000188062010012845 -6.87411525204679e-05 -0.000167349308487301 -0.000248835899343138 0.00063843922561592 -0.000842818841234206 -0.00164339061240899
"60" 0.000703943639153438 0.000272540018008854 0.000449573029273266 0.000276432636704158 0.000353423980450614 0.000256794567201269 0.000553219485143736 8.92142860393811e-05 -0.000433025339456733 -0.000193803298681522 -6.20108189215996e-05 -0.000173350262116804 -0.00025940985902245 0.000755342781249929 -0.000865545819206423 -0.00170677495911918
"61" 0.000668199824435733 0.000241955746473837 0.000390350633032935 0.000255014875612917 0.000277540939582441 0.000261549335741922 0.000503161961948066 6.21508255220859e-05 -0.000369512710809001 -0.000198438189477796 -5.57095543287107e-05 -0.000177262537027748 -0.000268767830956708 0.000875540396458935 -0.000885006706137406 -0.00176740712479146
"62" 0.000627545458870524 0.000207877104792734 0.000325126741448524 0.00023157230125748 0.00019349014083127 0.000265270675097129 0.000446358179543635 3.30753056029894e-05 -0.000315518243753261 -0.000201817202650092 -4.99392761006773e-05 -0.000179022058119029 -0.000276836994819113 0.000998036268416057 -0.000901058738015965 -0.00182436020737948
"63" 0.000582168516954088 0.000170419829125164 0.000254215402374954 0.000206180997465878 0.000101597152850684 0.0002679533095149 0.000382957640088011 2.08010087296413e-06 -0.000272263863217635 -0.000203792141254446 -4.47925950351968e-05 -0.000178576916891161 -0.000283548095922141 0.00112180571240106 -0.000913572127336396 -0.00187673826806411
"64" 0.000532299043884256 0.000129741904782187 0.000177982166374326 0.000178938131392084 2.28052246307848e-06 0.00026960447454348 0.000313188481375657 -3.07163937761797e-05 -0.000240765221725807 -0.000204210766526276 -4.03604466779081e-05 -0.000175896574659096 -0.000288841053465423 0.00124580279136934 -0.00092243541356843 -0.00192369365830712
"65" 0.000478212994184575 8.60351242167891e-05 9.68615073970241e-05 0.000149965944323239 -0.000103946814544159 0.000270242107286096 0.000237344808558313 -6.51733681069643e-05 -0.000221825436810682 -0.000202920175503314 -3.67293757025272e-05 -0.000170952710092423 -0.000292658260750952 0.00136897359477142 -0.000927555106567636 -0.00196442036314386
"66" 0.00042022333990084 3.95161309028905e-05 1.13256945797101e-05 0.000119401030211662 -0.000216490679857564 0.000269889399010447 0.000155800062412353 -0.000101136603784892 -0.00021600826073703 -0.000199776310917671 -3.39741117061551e-05 -0.000163741997318886 -0.000294949451335789 0.00149027022857832 -0.000928864901685234 -0.00199817052679661
"67" 0.000358681465473144 -9.55707083025615e-06 -7.80926187755554e-05 8.74010275221651e-05 -0.000334679666104456 0.000268577835832689 6.89806015817211e-05 -0.000138426577074996 -0.000223640217136212 -0.000194630999059528 -3.21672543783909e-05 -0.000154269491194898 -0.000295674547968726 0.00160865864609875 -0.000926309064447964 -0.00202424114984824
"68" 0.000293969279072037 -6.09061124107307e-05 -0.000170829872961328 5.41371987237268e-05 -0.000457783693978319 0.000266355139840423 -2.26184594522766e-05 -0.000176856926132997 -0.000244819766107081 -0.000187351305124474 -3.13703016959023e-05 -0.000142561678257581 -0.000294797638130986 0.00172312377118768 -0.000919860668731816 -0.00204199923842754
"69" 0.000226500534200684 -0.000114224447921116 -0.000266281069485268 1.97994035275369e-05 -0.000585008032755929 0.000263268753576 -0.000118447900157258 -0.000216216930414476 -0.000279405713442329 -0.000177809900614074 -3.1633993583715e-05 -0.000128658377835432 -0.000292295388310867 0.00183268256392625 -0.000909516668497343 -0.00205086054797057
"70" 0.000156705661502857 -0.000169183605572396 -0.000363823022707824 -1.54088450310447e-05 -0.000715511405709856 0.000259376002038142 -0.000217912533823104 -0.000256287573113007 -0.000327039148498894 -0.000165893834285304 -3.30021571476601e-05 -0.000112618345770581 -0.000288151145148086 0.00193638707413411 -0.000895291143338819 -0.00205030482335283
"71" 8.50459635078995e-05 -0.000225432506355419 -0.000462799361266861 -5.12766612793726e-05 -0.000848413862177984 0.000254734513993427 -0.000320369266274867 -0.000296838749592621 -0.000387154071484726 -0.000151501719313728 -3.54994942556369e-05 -9.45199936517061e-05 -0.000282360543354981 0.00203332778279461 -0.000877233697660258 -0.00203988092363604
"72" 1.19875582460149e-05 -0.000282608925891291 -0.000562543904764123 -8.75757094363868e-05 -0.000982815646739002 0.000249414585796322 -0.000425151867034356 -0.000337631495110106 -0.000458987352114283 -0.000134553422358961 -3.91438771235225e-05 -7.44578619997534e-05 -0.00027492599159282 0.00212264507385543 -0.000855410291313888 -0.00201918465626853
"73" -6.1982629355203e-05 -0.000340330616523461 -0.000662381368787414 -0.000124078665052465 -0.00111778924503904 0.0002434813713588 -0.000531555300496853 -0.000378414537162954 -0.000541603984612561 -0.000114984877650118 -4.39385802923709e-05 -5.2545183414689e-05 -0.00026586812201859 0.00220352839956665 -0.000829918189724452 -0.00198789600514597
"74" -0.000136373434570664 -0.000398214336012926 -0.000761633897008099 -0.000160544399311493 -0.00125240229725888 0.000237010062664791 -0.000638860074923568 -0.000418940847510044 -0.000633905249775205 -9.27568902405469e-05 -4.98745758169106e-05 -2.89165321712157e-05 -0.000255212034796526 0.0022752200091655 -0.000800874178098547 -0.00194575534708626
"75" -0.00021070125834299 -0.000455863635038377 -0.000859632243135713 -0.000196734777639319 -0.00138573020750148 0.000230070035414809 -0.000746340246644016 -0.000458957733228947 -0.00073466316376099 -6.7856530719461e-05 -5.69274667239575e-05 -3.72323880996209e-06 -0.000243000507456308 0.00233701217453121 -0.000768428776667467 -0.00189257822214295
"76" -0.000284471288813246 -0.000512885656403297 -0.000955707198133325 -0.000232408413928907 -0.00151685195399062 0.00022273547067331 -0.000853252500921057 -0.000498210556669587 -0.000842545125746099 -4.03008226763886e-05 -6.50586732920802e-05 2.28646907294015e-05 -0.000229286027846532 0.00238825598512321 -0.000732750960523114 -0.00182825456033232
"77" -0.000357200072260104 -0.000568881863203658 -0.00104920824160874 -0.00026732310074639 -0.00164486985526111 0.000215071870308388 -0.000958866363389369 -0.000536452398856213 -0.000956141012070618 -1.01353884746751e-05 -7.42179217822673e-05 5.06609514943102e-05 -0.000214131208065513 0.00242837079668371 -0.000694036750332304 -0.00175274766879238
"78" -0.000428415813849854 -0.000623465013189201 -0.00113950720908904 -0.000301245240957096 -0.00176890233591546 0.000207152460996108 -0.00106245835763934 -0.000573436612750483 -0.00107397149216711 2.25569757646028e-05 -8.43384752126185e-05 7.94581764094577e-05 -0.000197616940885975 0.00245682449919304 -0.000652511514453176 -0.00166610260883891
"79" -0.000497653848318293 -0.000676252589301763 -0.00122599702987583 -0.000333937736893657 -0.00188810832654307 0.000199039896217108 -0.00116331505693112 -0.000608926226900191 -0.00119453512556676 5.7658864906377e-05 -9.53457974593373e-05 0.0001090386610921 -0.000179827128798943 0.00247315754414202 -0.000608419894925195 -0.00156845293753958
"80" -0.000564475250261425 -0.000726870693478835 -0.00130809311809341 -0.000365177287021849 -0.00200168139945886 0.000190793930020112 -0.00126074819878409 -0.000642692952711926 -0.00131630987315601 9.5011725715459e-05 -0.000107146955899996 0.000139168294375916 -0.000160863123542739 0.00247697648244695 -0.000562022643111876 -0.00146000990839154
"81" -0.00062845454467097 -0.000774962620038815 -0.00138525518742412 -0.000394747402767293 -0.00210885486905603 0.000182473083193187 -0.00135410110267363 -0.000674522528278996 -0.0014377911473297 0.000134423025528352 -0.0001196391542333 0.000169603511492324 -0.000140836407945166 0.00246795203026766 -0.000513613049194396 -0.00134108785132821
"82" -0.000689187076709539 -0.000820180633636425 -0.00145695795494692 -0.000422438116697511 -0.00220890483701116 0.000174125847189958 -0.00144273344520826 -0.000704207220786599 -0.00155749876759647 0.000175655183364535 -0.00013271435554524 0.000200089413790742 -0.000119866174014742 0.0024458265149969 -0.000463494293430886 -0.00121209199804332
"83" -0.000746297240198265 -0.000862204748232839 -0.00152272642458079 -0.000448058361966375 -0.00230116363110846 0.00016579993605673 -0.00152605224874504 -0.000731561539365757 -0.00167399930249192 0.00021843435789124 -0.000146243669303489 0.000230363293781688 -9.80796520991845e-05 0.00241041507387741 -0.00041198856071583 -0.00107353205161952
"84" -0.000799431087956433 -0.000900727344980584 -0.00158212119728935 -0.000471422836707671 -0.00238500919889693 0.000157532829903021 -0.0016035010789735 -0.000756411389994899 -0.00178592358950857 0.000262444875122229 -0.000160098039516412 0.00026015741876016 -7.56123010905664e-05 0.00236160826369237 -0.000359430941280578 -0.000926014035049192
"85" -0.000848265381132853 -0.000935466619123034 -0.00163473823911071 -0.00049236688959842 -0.00245987818326348 0.000149353826384482 -0.00167455867854669 -0.000778605814834439 -0.00189197334528338 0.000307336548243623 -0.000174139373895341 0.000289206211844757 -5.26067650281282e-05 0.00229936815364569 -0.000306169391796458 -0.000770266519718294
"86" -0.000892509940410651 -0.000966164395923637 -0.00168022310169172 -0.00051073537500358 -0.00252526271985709 0.000141292977571646 -0.00173875877369747 -0.000798009699771095 -0.00199095056642559 0.00035272350154719 -0.000188220396842427 0.000317241473360443 -2.92102415985821e-05 0.00222373999134094 -0.000252561845829906 -0.000607111043077231
"87" -0.00093189789939429 -0.000992588418667198 -0.00171826055608243 -0.000526394892384806 -0.00258070809898517 0.000133366767929721 -0.00179567339043468 -0.000814503783425868 -0.00208175207762564 0.000398183232768878 -0.000202196657845467 0.000344000468192522 -5.57021571703353e-06 0.00213485450945503 -0.000198969222271893 -0.000437491487617864
"88" -0.00096620024891361 -0.00101453254774189 -0.00174857282474373 -0.000539226578516219 -0.00262582023651567 0.00012558762504328 -0.00184493001458072 -0.000828002646186243 -0.00216338394689053 0.000443274356026068 -0.000215909047477446 0.000369228108663077 1.81579806513412e-05 0.00203292640196382 -0.000145751479077204 -0.000262450961963978
"89" -0.000995222067308633 -0.00103181786477991 -0.00177094043286956 -0.000549128367918531 -0.00266026678438693 0.000117964245929419 -0.00188620065489021 -0.000838428071126865 -0.00223497229329718 0.000487523950107795 -0.000229210175939801 0.000392678132542537 4.18247696904901e-05 0.00191825684658616 -9.32729927547705e-05 -8.31281179384674e-05
"90" -0.00101879666834762 -0.00104429885238202 -0.00178517678861958 -0.000556019136971527 -0.00268377607891262 0.000110491819172282 -0.00191921672264085 -0.000845738690710869 -0.00229576405470866 0.000530447757875396 -0.000241940413559476 0.000414121625226374 6.52772946054256e-05 0.00179124446941237 -4.1889431335035e-05 9.92300964099468e-05
"91" -0.00103679845498091 -0.00105185399809398 -0.00179114979045962 -0.000559837588222929 -0.00269612850915742 0.000103163576221351 -0.00194375503013735 -0.0008499093562666 -0.00234513477619903 0.000571546344082722 -0.000253952192446179 0.000433344457805935 8.83664721475359e-05 0.00165238031275643 8.05208860972499e-06 0.000283296371570734
"92" -0.00104912683836607 -0.00105439420473217 -0.00178876307653399 -0.000560536443508938 -0.00269717563940272 9.59732547223387e-05 -0.00195965000732937 -0.000850932769968706 -0.00238259505864949 0.000610317993187722 -0.000265092351325061 0.000450150404414983 0.000110952400738168 0.00150225308411405 5.62104597168861e-05 0.000467666618483242
"93" -0.00105572490477515 -0.00105186215992108 -0.00177797852171536 -0.000558094702654974 -0.00268682439065689 8.88984208333722e-05 -0.00196679584919107 -0.00084884029990217 -0.00240778359340566 0.000646266583032681 -0.000275218579912548 0.000464369295738549 0.000132892028932916 0.00134154537792601 0.000102273308958705 0.000650881644448094
"94" -0.00105656749120807 -0.00104423445071621 -0.00175879415268966 -0.000552505704479607 -0.00266504232476027 8.19227973457461e-05 -0.00196513596454424 -0.000843670581763925 -0.00242047650966032 0.000678900102915808 -0.000284192891633033 0.000475853005384727 0.000154056831492234 0.00117105275249174 0.000145934798934248 0.000831433728476817
"95" -0.00105165925366552 -0.00103151033798552 -0.00173125764820122 -0.000543784106785199 -0.00263186174164588 7.50191349999712e-05 -0.00195466278099975 -0.000835498131142487 -0.00242058635523965 0.000707749187325383 -0.00029188561297717 0.000484480418398675 0.000174324392936103 0.000991664636675562 0.000186917601053079 0.00100779607234547
"96" -0.00104104427547729 -0.00101372975038447 -0.00169546076767379 -0.000531962617435694 -0.00258737196341278 6.81615106017949e-05 -0.00193543648437727 -0.000824410236003863 -0.00240815395790199 0.000732368097219863 -0.000298175051803362 0.000490159106764157 0.00019358023719988 0.000804370671858455 0.000224968421988521 0.00117843097919811
"97" -0.0010247983124779 -0.000990953803750014 -0.0016515358882997 -0.000517095007916674 -0.00253172174620365 6.13233464094643e-05 -0.00190756355748473 -0.000810518562013898 -0.00238335577274132 0.000752339905701309 -0.000302954040665842 0.000492827504560536 0.000211720261467895 0.000610268137910519 0.000259863452241708 0.00134182292857774
"98" -0.00100302699068257 -0.000963281997193602 -0.00159966688067112 -0.000499250139457908 -0.00246513086470029 5.44776407073121e-05 -0.00187120167879752 -0.00079395780829237 -0.00234649684406955 0.000767287644441542 -0.000306121334902732 0.000492455852435487 0.000228651912702777 0.000410546740950452 0.000291407222626007 0.00149649758118415
"99" -0.000975871120656669 -0.000930838784609509 -0.00154007600046013 -0.000478517292747086 -0.00238787083797046 4.75937811027197e-05 -0.00182657387070765 -0.000774878838421711 -0.00229800270021355 0.000776873167700942 -0.000307592956914628 0.000489042170355632 0.000244298003230856 0.000206488801329556 0.000319438336615484 0.00164104282834422
"100" -0.000943499792036492 -0.000893781295817637 -0.00147302738215043 -0.000455001319169793 -0.00230028078673271 4.06442902416206e-05 -0.0017739399845057 -0.000753450068135995 -0.00223842732762884 0.00078081091614419 -0.000307299659777899 0.000482618936959437 0.000258589115051914 -5.37855065209191e-07 0.000343826724271549 0.00177412621530167
"101" -0.000906114468434779 -0.000852291288994651 -0.00139882936561786 -0.000428824176722009 -0.00220275798610563 3.36099717329896e-05 -0.00171362690239409 -0.000729858599208768 -0.00216843514872524 0.000778865195526919 -0.000305184367247916 0.00047324862223882 0.000271470944827365 -0.000209076516790143 0.000364484349880947 0.00189451821960278
"102" -0.000863944403091281 -0.000806578041106402 -0.00131783305159584 -0.000400123261021621 -0.00209576112153498 2.64655293659614e-05 -0.00164600056601412 -0.000704303990012017 -0.00208880353362334 0.000770858262191417 -0.000301206815475049 0.000461024208700865 0.000282899695937382 -0.000417603014171023 0.000381353039889627 0.00200111391116589
"103" -0.000817250691430144 -0.000756882857113094 -0.00123042568079044 -0.000369049968710358 -0.00197981263924878 1.9197365389458e-05 -0.00157148386009125 -0.000677001121386444 -0.00200040960862539 0.000756666207620765 -0.000295343766207158 0.000446064718855288 0.000292849865044219 -0.000624527958601302 0.000394412513284196 0.00209295089239119
"104" -0.000766310621699041 -0.000703465985958164 -0.00113703583034337 -0.000335771865562852 -0.00185549711041705 1.17945000518193e-05 -0.001490547021224 -0.000648171122683018 -0.00190422865878336 0.000736232611968361 -0.000287586218892822 0.00042852207591036 0.000301299917522555 -0.00082822013825286 0.000403685071277645 0.00216921372946357
"105" -0.000711435789374223 -0.000646612981496152 -0.00103813171262888 -0.000300466887255385 -0.001723456145266 4.24898883447103e-06 -0.00140369719098049 -0.000618047960134645 -0.00180132625664995 0.000709553492156929 -0.000277945972120647 0.000408564988887987 0.000308249974375302 -0.00102700759130583 0.000409218543822335 0.00222925142979388
"106" -0.000652963983148829 -0.000586636727845003 -0.000934218340298785 -0.000263329305786677 -0.00158439304117379 -3.43743339231211e-06 -0.00131150007359916 -0.00058687114505079 -0.0016928394865211 0.000676690921430694 -0.000266449577563155 0.000386391408537447 0.000313707478000982 -0.00121920122650817 0.000411104055990321 0.00227258630610675
"107" -0.00059124496224597 -0.000523864514624718 -0.00082583616761104 -0.000224560138812487 -0.00143906767787497 -1.12607284603625e-05 -0.00121455097204546 -0.000554891754817314 -0.00157997992034413 0.000637766389454311 -0.000253140711770505 0.000362214700423367 0.000317690466533004 -0.00140311382666352 0.000409462785996488 0.00229891317070265
"108" -0.000526655283804319 -0.000458646731502689 -0.000713558401623603 -0.000184373332645949 -0.00128830003601193 -1.92087402807934e-05 -0.00111349075343544 -0.000522356263140197 -0.00146401035146802 0.000592957575501721 -0.000238078421316745 0.000336263562548613 0.00032023043119793 -0.00157708000284718 0.000404445758788895 0.00230809811088266
"109" -0.000459593296855211 -0.000391354048922624 -0.000597993496148563 -0.000142992521134629 -0.00113296276439853 -2.72645976451374e-05 -0.00100899342580559 -0.000489520846793145 -0.00134623861275514 0.000542500716220545 -0.000221339469022113 0.000308785210006087 0.000321365323761052 -0.00173948160947952 0.000396237778432173 0.00230018230874149
"110" -0.000390464923715933 -0.000322364675118111 -0.000479776124278262 -0.000100647964821328 -0.00097397511478685 -3.54033411950243e-05 -0.000901761812628821 -0.000456630007740008 -0.00122799866133085 0.000486681576365418 -0.000203017348860485 0.000280034213675908 0.000321146707138137 -0.00188875659346362 0.000385048597331469 0.00227537390898008
"111" -0.000319697084271328 -0.000252078209032785 -0.000359571509007314 -5.75761280886033e-05 -0.000812305370103592 -4.35998549066818e-05 -0.000792536272243712 -0.00042394020178155 -0.00111063976622819 0.000425839916981659 -0.000183215267874882 0.000250265954794273 0.000319628187238017 -0.00202343682998671 0.000371110559117866 0.002234038300229
"112" -0.000247722877382904 -0.0001808994676556 -0.000238062597092051 -1.40221181306919e-05 -0.000648957878885422 -5.18138514905371e-05 -0.000682064932174905 -0.000391695139542841 -0.000995521125439635 0.000360356081654088 -0.000162053656294866 0.000219745343311854 0.000316876843798071 -0.00214215410927633 0.000354678734676147 0.00217669065414015
"113" -0.000174991265498539 -0.000109246858485676 -0.000115959787821043 2.97643303756143e-05 -0.000484980729847006 -6.0014599275846e-05 -0.000571123530093209 -0.000360138308427303 -0.000883966386830058 0.00029066036079765 -0.00013966195650022 0.000188733488830038 0.000312958464843771 -0.00224367790949509 0.000336022049451231 0.00210397854163309
"114" -0.000101953982653524 -3.75397725862784e-05 6.01380178334113e-06 7.35337971982047e-05 -0.000321436843487522 -6.8158902915534e-05 -0.000460496563797328 -0.000329502890867934 -0.000777275853282611 0.000217213763022909 -0.000116184608482877 0.000157488071619285 0.000307953833153708 -0.00232691510674388 0.000315435665627684 0.00201667435185813
"115" -2.90642675019004e-05 3.37960610444672e-05 0.000127129566156863 0.000117035789207291 -0.00015941408685733 -7.62051873033194e-05 -0.000350971830965686 -0.000300009118042537 -0.000676696646051444 0.000140517905587248 -9.17715104020179e-05 0.000126261066452815 0.000301937162370756 -0.00239094556382335 0.000293212212693745 0.00191565734180594
"116" 4.32181149929341e-05 0.000104338681968187 0.000246648810523937 0.000160017346559547 1.59467643100649e-09 -8.41033618136237e-05 -0.000243331969576428 -0.000271871534248578 -0.000583404588118927 6.1100006399535e-05 -6.65809152646299e-05 9.52931416579077e-05 0.000294996463735528 -0.00243501885401845 0.000269661411575 0.0018018984446783
"117" 0.000114450511869002 0.000173671647147652 0.000363844388137315 0.000202227733318658 0.000155722971538899 -9.18135073517345e-05 -0.000138349629920599 -0.000245287923986666 -0.000498484107992781 -2.04824980534006e-05 -4.07795126068526e-05 6.48150021389445e-05 0.000287210806042348 -0.00245857880569033 0.000245092431872206 0.00167644724465975
"118" 0.00018418311841254 0.00024137991045099 0.000477988029638665 0.000243425807078869 0.000306683273151522 -9.92867280391097e-05 -3.6772668202304e-05 -0.000220441580636143 -0.000422910943962785 -0.000103651888608311 -1.45359310686387e-05 3.50369138803625e-05 0.000278670208232974 -0.00246126025790912 0.000219824158028315 0.00154042429063366
"119" 0.000251988114887618 0.000307066966979015 0.000588378560983827 0.000283371054750328 0.000451850144839236 -0.000106476144853509 6.06713191704945e-05 -0.000197498958933195 -0.000357528670247838 -0.000187813962343301 1.19766495941175e-05 6.16043425296364e-06 0.000269457520870064 -0.00244289948426185 0.000194160726105864 0.00139499267525818
"120" 0.000317446684264383 0.00037034635631771 0.000694337570916089 0.000321836117069805 0.000590236555231651 -0.000113335729141551 0.000153305135249396 -0.000176602950283044 -0.000303041584402025 -0.000272355809753946 3.85871937159969e-05 -2.16379215398504e-05 0.000259662818769274 -0.00240352433248688 0.000168416875972377 0.00124136071517954
"121" 0.000380168432556608 0.000430855684931841 0.00079522191697605 0.00035860086500198 0.000720913346173119 -0.00011981856551089 0.000240492282668493 -0.000157880776728388 -0.000259994523647673 -0.000356658304351537 6.51216723838158e-05 -4.81974382163286e-05 0.000249370780063051 -0.00234335910577498 0.000142884510854966 0.00108076333828297
"122" 0.00043977597175113 0.000488252818282481 0.000890431424118981 0.000393462844090972 0.000843031383321607 -0.000125885625247728 0.000321652453743133 -0.000141431160764062 -0.000228751937297227 -0.000440093665578922 9.14087140804386e-05 -7.33795031681839e-05 0.000238662348603043 -0.00226281288439782 0.00011785307549733 0.00091444476431515
"123" 0.000495920637222007 0.000542222776884908 0.000979413944740637 0.00042622939521685 0.000955827795820746 -0.00013149325176679 0.000396268043654648 -0.000127330728555837 -0.000209501482204291 -0.000522032006303549 0.000117283809397043 -9.70657192574706e-05 0.000227620288441367 -0.00216247740847068 9.35989733558887e-05 0.000743650289773572
"124" 0.000548300313225333 0.000592480606221961 0.00106168160703081 0.000456731064365833 0.00105864322999579 -0.000136597461550281 0.000463897345476142 -0.000115626982920768 -0.000202240318363295 -0.000601844645587668 0.000142586445467207 -0.000119157803485672 0.00021632369412931 -0.0020430935005835 7.03784831734362e-05 0.000569623841601997
"125" 0.000596623638073877 0.000638773896374341 0.00113680708809473 0.000484813620101079 0.00115092446712844 -0.000141164276529091 0.000524181631412854 -0.000106345480384979 -0.000206759705294672 -0.000678910312588183 0.000167162360384569 -0.000139582008357429 0.000204848493325526 -0.00190557195617782 4.84340015748928e-05 0.000393593702918958
"126" 0.000640654459879048 0.000680886333549527 0.00120443946271112 0.000510344404133369 0.00123225282278248 -0.000145151336516414 0.000576832339106749 -9.94777378833209e-05 -0.000222665231151061 -0.000752613210051931 0.00019086453469642 -0.000158281740995812 0.000193266178232796 -0.0017509435551964 2.79850050705571e-05 0.000216766029054866
"127" 0.000680191227251588 0.000718643977565441 0.00126430245968647 0.000533213085254526 0.00130232649736088 -0.000148526966096951 0.000621668511053274 -9.49910324100196e-05 -0.000249356711237082 -0.000822354912927872 0.000213559172063322 -0.000175223415855356 0.000181644962239299 -0.00158036939239763 9.23077051169519e-06 4.03257360714933e-05
"128" 0.000715074249141917 0.000751903108068172 0.00131620211897034 0.00055333296424784 0.00136098934838448 -0.000151253169345381 0.000658585470524393 -9.28206043795951e-05 -0.00028605260790856 -0.000887554947600049 0.00023511989775168 -0.000190392096672381 0.000170048124764171 -0.0013951105451694 -7.65591763926984e-06 -0.000134579185712948
"129" 0.00074518597879602 0.000780572651258452 0.00136002811189967 0.000570643160142745 0.00140821112464004 -0.000153295041223297 0.000687574044355247 -9.28759421056318e-05 -0.000331798695369128 -0.000947658488196461 0.000255432614723992 -0.000203789935378204 0.000158537686253738 -0.00119651592233989 -2.25208743156733e-05 -0.00030683853677243
"130" 0.00077045241761502 0.000804596049273487 0.00139575210703187 0.000585105940348816 0.00144410311810429 -0.000154619642838271 0.000708717473857966 -9.50411182113857e-05 -0.000385470837382099 -0.00100213620446088 0.000274397770200974 -0.000215435651290125 0.000147169219816297 -0.000986014981781874 -3.52422579282206e-05 -0.000475376713757841
"131" 0.000790851210439619 0.000823961844321411 0.0014234301086498 0.000596707457437981 0.00146890613150064 -0.000155193975023858 0.000722197096051964 -9.91672015195288e-05 -0.000445793035773529 -0.00105049730804661 0.000291921671627568 -0.000225367549668482 0.000135995245556217 -0.000765094714100534 -4.57179370689476e-05 -0.000639163739355943
"132" 0.000806396799911338 0.000838697487443209 0.00144320418303221 0.000605462043398605 0.00148298484945563 -0.00015498438428012 0.000728264283216363 -0.000105087416597356 -0.000511368699578741 -0.00109228256500545 0.000307934187961838 -0.000233632759194711 0.000125066416954452 -0.000535292457732825 -5.38789980097974e-05 -0.000797210914999319
"133" 0.00081715442867814 0.000848875632345085 0.00145528949297326 0.000611405383456749 0.00148682278851616 -0.000153957409081962 0.000727266176292862 -0.000112607292743958 -0.000580691886077878 -0.00112708101278587 0.000322372633970949 -0.000240294306422012 0.000114423898010203 -0.000298179843598294 -5.96753126167244e-05 -0.000948581178907196
"134" 0.000823221812184327 0.000854605818806733 0.00145998009630843 0.000614599046578514 0.00148100976964105 -0.00015208158771967 0.000719611951735282 -0.000121516994018918 -0.000652182948342735 -0.00115453164324083 0.000335189964961023 -0.000245426070345544 0.000104109555441286 -5.53564424977997e-05 -6.30932016932606e-05 -0.00109238420057843
"135" 0.000824747218978272 0.000856029907924153 0.00145763477916997 0.00061512609919585 0.00146623086685526 -0.000149320571132349 0.000705793294592378 -0.000131579289828162 -0.000724201666982985 -0.00117432538773586 0.000346355220808882 -0.000249109253381978 9.41618285030583e-05 0.000191559482834004 -6.41377547903872e-05 -0.0012277854162495
"136" 0.000821906312313209 0.000853331241374523 0.00144867136432944 0.000613088119856826 0.00144324343374332 -0.000145646416956508 0.000686344286027254 -0.000142553032788256 -0.00079508730349201 -0.00118621747342611 0.000355846378449437 -0.000251436020719551 8.46131292422717e-05 0.000440937225272742 -6.28420995681217e-05 -0.00135399742761598
"137" 0.000814919642147968 0.000846721294961741 0.00143356872981636 0.000608610386607079 0.00141288365392397 -0.000141026884396772 0.000661858690774885 -0.000154176293655692 -0.000863175403081272 -0.0011900272834466 0.000363662754687567 -0.000252502302251841 7.54924655927941e-05 0.000691143263940948 -5.92640711045024e-05 -0.00147028846699115
"138" 0.000804028683650297 0.000836433672723809 0.00141283972575787 0.000601829589937973 0.00137602444192786 -0.000135427590496643 0.000632970319405728 -0.000166182593499553 -0.000926827446295238 -0.00118564603435442 0.000369811831497345 -0.000252412119361131 6.68278416563816e-05 0.000940548661893979 -5.34895367976385e-05 -0.00157599264131361
"139" 0.000789510778326163 0.000822736726098752 0.00138703915799731 0.000592903147716644 0.00133357924201958 -0.000128824489682942 0.000600340984312252 -0.000178298609597661 -0.000984465502387273 -0.00117303308204686 0.000374318712351585 -0.000251270247473279 5.86409867518323e-05 0.00118753492952351 -4.56232183658098e-05 -0.00167049969945669
"140" 0.000771658026959099 0.000805908344870281 0.00135675174755083 0.00058199736596141 0.00128648681951376 -0.000121188470254981 0.000564648520894861 -0.000190245045714293 -0.00103458568317987 -0.00115223088715919 0.000377220183075302 -0.000249184583295794 5.09525222673594e-05 0.00143049637972618 -3.57929853782271e-05 -0.00175326590007812
"141" 0.000750788336205088 0.00078624664582116 0.00132256995545866 0.000569288111243357 0.00123568152512166 -0.000112497157436808 0.000526590932164999 -0.000201750419247356 -0.00107579040966298 -0.00112335415040955 0.000378561219098415 -0.000246269582369697 4.37757383234529e-05 0.0016678488431917 -2.41502792085458e-05 -0.00182381622964226
"142" 0.000727232052342208 0.000764066338082861 0.00128510477896135 0.000554963096550077 0.00118209970581679 -0.000102730183427779 0.000486857629079599 -0.000212545592725822 -0.0011068171659623 -0.00108659721035016 0.000378406093597154 -0.000242627800891773 3.71281255840926e-05 0.00189803611963072 -1.08590443754096e-05 -0.00188174028429982
"143" 0.000701327802254573 0.000739678691078834 0.00124496666337172 0.000539209538335772 0.00112665247017893 -9.18751056024954e-05 0.000446142979118754 -0.000222364040273797 -0.00112653883908402 -0.00104223488571457 0.000376821598763132 -0.000238376446112721 3.10198724665789e-05 0.00211953022299532 3.89687214889222e-06 -0.00192671315410166
"144" 0.000673423832928245 0.000713408860163496 0.00120275379785411 0.000522221081705913 0.00107022227504022 -7.99188624110777e-05 0.000405110892750812 -0.000230955223007582 -0.00113399518800545 -0.000990615243450765 0.000373890567429261 -0.000233619311866347 2.54566175663737e-05 0.00233084106414788 1.99186109701281e-05 -0.00195848264141251
"145" 0.000643868196315465 0.000685577841461016 0.0011590529324448 0.000504189170715983 0.00101365033151809 -6.68608970747031e-05 0.000364409167867321 -0.000238084481002859 -0.00112840116933125 -0.000932161052779888 0.000369701457958209 -0.000228463616314131 2.04458793737748e-05 0.00253052454342472 3.69921551822548e-05 -0.00197689211925302
"146" 0.000613012233912599 0.00065650038879677 0.00111442802511426 0.000485309072088888 0.00095773051269975 -5.27053595295925e-05 0.000324659276869758 -0.000243526959654906 -0.00110916200905236 -0.000867363304384188 0.000364350836556261 -0.000223009349979069 1.59890792342358e-05 0.00271719205499476 5.49024327040225e-05 -0.00198187092558423
"147" 0.000581192260995921 0.000626488078227176 0.00106941589003568 0.0004657597471947 0.000903194555102419 -3.74633690986417e-05 0.000286439222052607 -0.000247087747624618 -0.00107586969616811 -0.000796780343620384 0.000357945258594274 -0.000217356978548587 1.20891569121811e-05 0.00288951430875993 7.34160396081862e-05 -0.00197344234749446
"148" 0.000548746711598971 0.000595839949203639 0.00102452230787495 0.000445725397046393 0.000850716097611858 -2.11578216061511e-05 0.000250282383829364 -0.000248583002940647 -0.00102832356044202 -0.00072102502884217 0.0003505918235369 -0.000211600247107063 8.73981033212339e-06 0.00304623219113082 9.2297041855679e-05 -0.00195172899303087
"149" 0.000515992860316979 0.000564843683711652 0.000980209988021237 0.000425374607627756 0.000800901422615703 -3.81955667383541e-06 0.00021668726014847 -0.000247859175668922 -0.000966514885135124 -0.000640769203696304 0.000342405115552557 -0.000205828848223988 5.94181546035053e-06 0.00318616868776078 0.000111316644831279 -0.0019169521997765
"150" 0.000483237528512046 0.00053376724346347 0.000936908357486833 0.000404871386287806 0.000754285296687784 1.45107326777559e-05 0.000186086518072126 -0.000244787597266841 -0.000890647287380868 -0.000556725911208936 0.000333502437433106 -0.000200124535189298 3.68665891441521e-06 0.00330823546346275 0.000130232546742999 -0.0018694379970225
"151" 0.000450768175914273 0.000502864650333371 0.000894993812547473 0.000384365090824127 0.000711328027453639 3.37794623102933e-05 0.000158869962099441 -0.000239267288765732 -0.000801111662481198 -0.00046964515597399 0.000324001988544298 -0.000194567922480049 1.96852396073457e-06 0.00341145140944862 0.00014881173480027 -0.00180961378831305
"152" 0.000418857497406615 0.000472366670978247 0.000854805057265272 0.000363992075605532 0.000672419044897442 5.39258318342241e-05 0.000135368965029058 -0.000231227422668615 -0.000698495114300954 -0.000380305496172631 0.000314025037407941 -0.000189229768865208 7.75655745599729e-07 0.00349495500132379 0.000166826696239445 -0.00173800674289283
"153" 0.0003877501262204 0.000442485232150953 0.000816627164092406 0.000343877632345385 0.000637865897904307 7.4868598312724e-05 0.000115851811822174 -0.000220626209510722 -0.000583552535858432 -0.000289499821998352 0.000303693276386623 -0.000184181337689312 9.81788309457811e-08 0.0035580054796348 0.000184054887919105 -0.00165525188040414
"154" 0.000357676937129435 0.000413409988581329 0.000780701550966027 0.000324131428515025 0.000607913771715438 9.65313213454056e-05 0.000100540882662832 -0.000207448834257277 -0.000457219466338811 -0.000198035644494809 0.000293123284036312 -0.00017947861453959 -7.60593798557616e-08 0.00360000965833606 0.000200289729333173 -0.00156207289420191
"155" 0.000328831238215215 0.000385307557273393 0.000747217907009493 0.000304852025646338 0.000582719668373753 0.000118810675715755 8.9587356026444e-05 -0.000191715630500297 -0.000320575651607804 -0.000106716520396712 0.000282431849092904 -0.000175181231787406 2.36182021985702e-07 0.00362052320058016 0.000215328236157568 -0.00145929250345487
"156" 0.000301400411939953 0.00035831726059669 0.000716318638693545 0.000286120618179167 0.000562380066319096 0.000141600421839555 8.30887141208629e-05 -0.000173475514093927 -0.000174846493900428 -1.63374862025307e-05 0.000271733657349482 -0.000171336986924121 1.01947012776365e-06 0.00361926597996362 0.000228987592564752 -0.00134781541434569
"157" 0.000275533656246503 0.000332564862560736 0.000688106251829412 0.000268005520134051 0.000546919314494299 0.000164781497610941 8.10900979863067e-05 -0.000152805218076822 -2.13728935713033e-05 7.23214403252014e-05 0.000261137544912961 -0.00016799004230335 2.25623136629828e-06 0.00359613425755819 0.000241102875835972 -0.00122862742165436
"158" 0.000251357606707739 0.000308140723116122 0.000662633403552019 0.000250562241524555 0.000536293060746859 0.000188228923986638 8.35724112590003e-05 -0.000129812177798251 0.000138396221629946 0.000158511393283394 0.000250748957046095 -0.000165181150017808 3.92835888073823e-06 0.0035512047977333 0.000251522136693857 -0.00110278621871556
"159" 0.00022898311215332 0.00028512278097142 0.000639916008159027 0.000233835575137749 0.000530398871874205 0.000211809791216104 9.04717403588836e-05 -0.000104629139733395 0.000302925943389216 0.00024151388683863 0.000240661884441261 -0.00016294383242967 6.0148535841042e-06 0.00348474767597366 0.000260118882699177 -0.000971407459848947
"160" 0.000208493952313486 0.000263563473014841 0.000619924710442684 0.000217853549888593 0.000529073312179497 0.000235376666750112 0.000101667596193324 -7.74170956189284e-05 0.000470612408522741 0.000320650293568904 0.000230972190222493 -0.000161305153355812 8.48870795784842e-06 0.00339722563555286 0.000266784605752684 -0.000835661596370637
"161" 0.0001899494061165 0.000243496552597839 0.000602603379679515 0.000202638292115881 0.000532101712004724 0.000258790148173824 0.00011699411142979 -4.83570090466801e-05 0.000639818095757835 0.000395292748101081 0.000221761378873339 -0.000160292712006213 1.1328615559079e-05 0.00328931132487583 0.000271431394451036 -0.000696757886214938
"162" 0.000173388400379914 0.000224937721145127 0.00058785983366455 0.000188200943936921 0.000539218889781695 0.000281898392350669 0.000136236865349748 -1.76508787988446e-05 0.000808872047846241 0.000464865635228275 0.000213106558695572 -0.000159925841402556 1.4506739960714e-05 0.00316186701887487 0.000273998236481836 -0.000555934494522183
"163" 0.000158832835781452 0.000207883611618874 0.00057557149078031 0.000174544614031614 0.000550116637126909 0.000304545236833273 0.000159148285453385 1.44719861252511e-05 0.000976105293848227 0.000528845880862928 0.000205075569117356 -0.000160221756843009 1.79931603706869e-05 0.00301596190512775 0.00027444641289393 -0.000414439554221692
"164" 0.000146287577194336 0.000192314556895344 0.000565597448796451 0.000161662628768103 0.000564443405895465 0.000326578645481663 0.00018543365819238 4.77779011890451e-05 0.00113985968372096 0.000586777902812558 0.00019772902467979 -0.00016119347409044 2.17614710090903e-05 0.00285285426711579 0.000272759530012766 -0.000273532675818765
"165" 0.000135730039309004 0.000178199233579362 0.000557769914291705 0.000149543963627799 0.00058182221500958 0.000347850167373282 0.000214771173789477 8.20077345804874e-05 0.00129851095804229 0.000638263511336397 0.000191115388387746 -0.000162853559619308 2.5775507651672e-05 0.0026739824077925 0.000268946124765212 -0.000134452497409457
"166" 0.00012713715994868 0.000165491837601642 0.000551901398271701 0.000138173829847066 0.0006018377063242 0.000368206043420703 0.000246804481159746 0.000116900787055199 0.00145048651017098 0.000682974031292175 0.000185275468417741 -0.000165206879294732 3.00047691829137e-05 0.0024809743875365 0.000263040760013466 1.58036204856828e-06
"167" 0.00012046062204536 0.000154134486102518 0.000547799010765731 0.000127533287866233 0.000624060526930974 0.0003875009464415 0.000281152032449217 0.000152177919043775 0.00159427075053746 0.000720646021837044 0.000180239884011529 -0.000168257850314512 3.4411910952815e-05 0.002275607096962 0.000255101253850248 0.000133375984669331
"168" 0.000115640002127216 0.000144063537918558 0.000545247368167022 0.000117595370574303 0.000648032853023103 0.000405596247479196 0.000317413136217122 0.000187562079581385 0.00172845401226906 0.000751082376043253 0.000176032490775197 -0.000172011885993728 3.89618050283489e-05 0.00205980335125732 0.000245207585785944 0.000259791354371862
"169" 0.000112606363384392 0.000135203989185752 0.000544030080948507 0.000108336556969399 0.000673292570764782 0.000422359709718367 0.000355160383508 0.000222766885237109 0.00185170653108268 0.000774150423589101 0.000172665904032204 -0.00017646362628636 4.36192624255217e-05 0.00183560914581787 0.000233463218995643 0.000379745709532249
"170" 0.000111276643664752 0.00012747388207934 0.00054392026568707 9.97268152061191e-05 0.000699366982113112 0.000437659011530685 0.000393967325969122 0.000257504464163868 0.00196282361827622 0.000789781169435261 0.000170141351148531 -0.000181614155472785 4.83449371922302e-05 0.0016051697603334 0.000219995393356839 0.0004922152851473
"171" 0.000111559835739993 0.000120787900015888 0.000544692468909742 9.17363854797001e-05 0.000725779078356912 0.000451381490976682 0.000433385016630219 0.000291491818890028 0.00206072281735649 0.000797968623048856 0.000168456916549716 -0.000187458752891199 5.31001195038004e-05 0.0013707072807625 0.000204947431125027 0.000596258899942488
"172" 0.000113358063386239 0.000115055433249304 0.000546116111606635 8.43345874225849e-05 0.000752059415296592 0.000463418955086978 0.000472965162868152 0.000324448847512596 0.00214444776914234 0.00079876147378707 0.000167595083177381 -0.000193986949023697 5.78512826605611e-05 0.00113448163270758 0.000188481521931377 0.000691007922182571
"173" 0.00011656020348093 0.000110184018576818 0.000547962946882085 7.74880040058333e-05 0.000777741246966781 0.000473678196497834 0.000512258763147176 0.000356098928835262 0.00221319771818803 0.000792266876304184 0.000167535304304294 -0.000201193750776505 6.25581627750898e-05 0.000898773811204219 0.000170785374394122 0.000775691472771792
"174" 0.000121051834349902 0.00010607680464105 0.000550012601429802 7.11647910115438e-05 0.000802378694059425 0.000482069658104488 0.000550821142898368 0.000386180609764311 0.0022663093373243 0.000778641255636324 0.000168246303713105 -0.000209061479637638 6.71876979858494e-05 0.000665856825793439 0.000152055120803659 0.000849628375930533
"175" 0.000126716365931213 0.00010264413939432 0.00055204797736386 6.53330577577564e-05 0.000825539125908321 0.000488529062396888 0.000588215759758341 0.000414440891021169 0.00230328506885598 0.000758099159079152 0.000169689198279429 -0.00021757732925098 7.17054022992118e-05 0.000437951357553196 0.00013250343050383 0.000912228574104445
"176" 0.000133428237466662 9.97909347748278e-05 0.000553863043399075 5.99633101083126e-05 0.000846818722305848 0.000492996489561758 0.000624023424356968 0.00044064398159054 0.00232378943602243 0.000730891530276021 0.000171824290903284 -0.000226725758221548 7.60772079368061e-05 0.000217201860391147 0.000112351603562419 0.000963007784464186
"177" 0.000141064979009608 9.74265507370564e-05 0.000555265744497148 5.50225706169484e-05 0.000865840871397918 0.000495430457723405 0.000657844156495092 0.000464572328398562 0.00232763513139454 0.000697319408681951 0.0001745965446945 -0.000236481728939241 8.02760887301902e-05 5.65144602606815e-06 9.18362472549191e-05 0.00100158129180925
"178" 0.000149495485312668 9.54660033805907e-05 0.000556073827090324 5.04832351548144e-05 0.000882264354162097 0.000495806517843547 0.000689294915602055 0.000486029076534274 0.00231480401898036 0.000657725755306451 0.000177950862605192 -0.000246820531161006 8.42726331728014e-05 -0.000194805923322281 7.11992559941461e-05 0.00102765098934012
"179" 0.000158596818408439 9.3828064627209e-05 0.00055612555425672 4.63191687084309e-05 0.000895788997273304 0.000494115521215336 0.00071803052629137 0.000504844295735032 0.00228542681650458 0.00061249028649194 0.000181827244819463 -0.000257716595975764 8.8042069219284e-05 -0.000382423742310764 5.06831806765774e-05 0.00104103235977939
"180" 0.000168240141558952 9.24369086538545e-05 0.00055528020875469 4.25086059916855e-05 0.000906156757064254 0.000490367930682265 0.000743733691417146 0.000520870167826563 0.00223979097669466 0.000562027940910217 0.000186161517386129 -0.000269135027320946 9.15650657102924e-05 -0.000555657388883643 3.05376257829816e-05 0.00104163494853069
"181" 0.00017830856112744 9.12233874490767e-05 0.000553412418546211 3.90263381389365e-05 0.000913155003215456 0.000484585275328753 0.000766125651949772 0.000533988033998541 0.00217833465661909 0.000506788058349832 0.000190885442061307 -0.000281039988934371 9.48216349578998e-05 -0.000713158278518003 1.10117806396334e-05 0.00102945443401087
"182" 0.000188679307844052 9.01284836941838e-05 0.000550423416493591 3.58565740729834e-05 0.000916623276324028 0.000476810757416978 0.000784967951378348 0.000544113594138853 0.00210163832401584 0.00044725290122122 0.000195931130480406 -0.000293393578006387 9.77962809699605e-05 -0.000853811287047962 -7.64744222553964e-06 0.00100458964886696
"183" 0.000199242285591853 8.91004954298999e-05 0.00054623814852489 3.298975795012e-05 0.000916451860451825 0.000467108719256647 0.000800066038243292 0.000551195262970615 0.002010407498177 0.000383931772552808 0.000201225286949058 -0.000306145979466706 0.000100479811298506 -0.000976724935440294 -2.51978399835052e-05 0.000967223926093876
"184" 0.000209891874379374 8.80976144079667e-05 0.000540812114134118 3.04133773794421e-05 0.000912585111538594 0.00045555513336699 0.00081127756772767 0.000555213546516966 0.00190547037291046 0.000317359288359013 0.000206701343270441 -0.000319252292345346 0.000102866236170774 -0.0010812524759561 -4.14080102383156e-05 0.000917616698369397
"185" 0.000220527528726888 8.70864379432388e-05 0.000534117110631402 2.81275596687809e-05 0.000905022861376037 0.000442247606389544 0.000818503701954562 0.000556180655355178 0.00178776928687562 0.000248096675297976 0.000212288247047555 -0.000332655227048731 0.000104948245108541 -0.00116699032788622 -5.60487770188837e-05 0.000856112202194736
"186" 0.000231057105613435 8.60422884361057e-05 0.000526159548324326 2.61283370815672e-05 0.000893814139366741 0.000427296723856039 0.000821689305288676 0.000554148535664698 0.00165834262237887 0.000176718813290733 0.00021791607887977 -0.000346302309254776 0.00010672772180199 -0.00123378131549205 -6.89062113942296e-05 0.000783119021535048
"187" 0.00024139724181613 8.4953783035814e-05 0.000516965679406477 2.44219391753875e-05 0.0008790615020913 0.000410829769905507 0.0008208378745326 0.000549196251693577 0.00151831806418737 0.000103823988377759 0.000223520302833923 -0.000360131327170262 0.000108208426803844 -0.00128169144063281 -7.97805860570687e-05 0.000699123664257571
"188" 0.000251478155914529 8.38138734386184e-05 0.000506596228593154 2.30184690461349e-05 0.000860919313542381 0.000392988316890233 0.000815996645121874 0.000541444096122626 0.00136889323578934 3.00232929942038e-05 0.000229039661762616 -0.000374079474152811 0.000109398227914047 -0.00131101521527231 -8.84876045826216e-05 0.000604658152666804
"189" 0.000261231737490735 8.26295409177288e-05 0.00049512899263542 2.19286713862393e-05 0.000839586749945649 0.000373926033754375 0.000807261557562123 0.000531032967802442 0.00121132247437199 -4.40635442627455e-05 0.000234418842106572 -0.000388079115901748 0.000110308995032052 -0.00132224516826257 -9.48533719232079e-05 0.000500322458807202
"190" 0.000270602097153242 8.14104412814891e-05 0.000482662564730618 2.11718853017164e-05 0.000815307720850866 0.000353805156757067 0.000794774948134167 0.000518142332419064 0.00104690533368188 -0.000117808696835674 0.000239603776943219 -0.000402063789918502 0.000110954826846529 -0.00131607089852104 -9.87316273766675e-05 0.000386763763168772
"191" 0.000279543401664419 8.01785925274598e-05 0.000469322796397024 2.07641556672569e-05 0.000788359646676647 0.000332800140865575 0.000778719334105589 0.00050297382724181 0.000876970115847385 -0.00019058462475021 0.00024454923146651 -0.000415961432901184 0.000111354069457627 -0.00129334424243647 -9.99889286536487e-05 0.000264670049458035
"192" 0.00028801491948703 7.89587541790356e-05 0.000455244193626652 2.07281982697043e-05 0.000759054875329808 0.000311090065185812 0.000759317908233764 0.000485750907210042 0.000702869138247555 -0.000261765312902961 0.00024921691159139 -0.000429704321776049 0.000111530053000157 -0.00125507346007785 -9.85116626433418e-05 0.00013477842176341
"193" 0.000295987025644103 7.7785472214024e-05 0.000440588880128037 2.10881533249939e-05 0.000727737203695618 0.000288861368261516 0.000736825062667089 0.000466718235857917 0.000525951175642896 -0.00033073521804943 0.000253573230939101 -0.00044321825865917 0.000111508417751194 -0.00120238809602771 -9.42080984938197e-05 -2.14725918203229e-06
"194" 0.000303435997311012 7.66883585400508e-05 0.000425517268071527 2.18638557828822e-05 0.000694763792659842 0.000266296672078154 0.000711528271955017 0.000446133829906348 0.000347564907565857 -0.00039689381404443 0.000257597025412891 -0.000456433217700201 0.000111315584852616 -0.00113652754293314 -8.70143268696602e-05 -0.000145311184954123
"195" 0.000310346366405096 7.57130385279827e-05 0.000410209375882414 2.3080911776784e-05 0.000660517299715746 0.000243586160201022 0.000683736335863412 0.000424273596338221 0.000169024755985169 -0.000459660885818743 0.000261268127353909 -0.000469279837926854 0.000110984811513245 -0.00105881449250542 -7.68768468552568e-05 -0.000293882132216112
"196" 0.000316702481565415 7.48934027081542e-05 0.000394844666770878 2.4760099627136e-05 0.000625378892701672 0.000220910305474808 0.000653783325905616 0.000401416923063686 -8.37418372763343e-06 -0.000518480560561738 0.000264580947247253 -0.000481688513505377 0.000110548506259307 -0.000970638066271914 -6.37737902792766e-05 -0.000447016184683646
"197" 0.000322504559262378 7.42755552628122e-05 0.000379604358982922 2.69190421057346e-05 0.000589740362160026 0.000198448399020798 0.000622008538212904 0.000377846031841199 -0.000183389633157907 -0.000572836584881673 0.000267532058123383 -0.000493595347643857 0.000110043901375656 -0.000873437688887849 -4.77032434769685e-05 -0.000603841671721055
"198" 0.000327745018684973 7.38970343363343e-05 0.000364673381746674 2.95720459117877e-05 0.000553985730861875 0.000176374889836174 0.000588764995851772 0.000353847512219826 -0.000354828629816302 -0.000622246798521557 0.000270129579929607 -0.000504933380035438 0.000109509664317666 -0.000768673864838724 -2.86852680127278e-05 -0.000763471578508197
"199" 0.000332427125878149 7.3795908384494e-05 0.000350222858149445 3.27342291018544e-05 0.000518491713737469 0.00015485243294891 0.000554414311995055 0.000329696252947389 -0.000521561604714717 -0.000666274770497854 0.00027239028595738 -0.000515646204862817 0.00010898520672625 -0.000657833141596069 -6.75985190277064e-06 -0.000925012990510143
"200" 0.000336553910183395 7.40068886997886e-05 0.000336426437043304 3.64110866529383e-05 0.000483620258297411 0.000134031872166853 0.000519301056047957 0.000305665462447628 -0.000682529802183776 -0.000704536812366945 0.000274335388873206 -0.000525674759018639 0.00010851021526073 -0.000542391192910732 1.80094053292293e-05 -0.00108756822077566
"201" 0.000340127491598719 7.45599321707542e-05 0.000323437475618909 4.06013392832986e-05 0.000449711414985168 0.000114058372563274 0.000483780119615879 0.000282014039404441 -0.000836762553466064 -0.000736706971228996 0.000275992890256547 -0.000534968224581269 0.000108134591001466 -0.000423809102490717 4.55375511457211e-05 -0.00125022841482679
"202" 0.00034315532385665 7.54829100133697e-05 0.000311403691974624 4.53027669349685e-05 0.000417087680109691 9.50566962095247e-05 0.000448179983444218 0.00025898841474901 -0.000983362283271187 -0.000762512197689108 0.000277398726146243 -0.000543479219619155 0.000107893674909348 -0.000303532086384405 7.57184168839694e-05 -0.00141209976233881
"203" 0.000345638074417082 7.67933407288766e-05 0.000300448392191213 5.04994329218814e-05 0.000386036519329787 7.71402804417423e-05 0.0004128220276442 0.00023681392622197 -0.0011215346317263 -0.000781750382284898 0.000278594489372575 -0.00055116615715369 0.000107836431018336 -0.000182957074328251 0.000108429438590135 -0.00157228429009207
"204" 0.000347583979081006 7.8502411844278e-05 0.000290679859456384 5.61712098539549e-05 0.000356812983513895 6.04016901211968e-05 0.000378000226492573 0.000215692775424192 -0.00125057403878013 -0.000794281696588693 0.000279625763029338 -0.000557992093600522 0.000108006192734045 -6.34385349323341e-05 0.000143533939256441 -0.00172990627926701
"205" 0.00034898979825445 8.06170976422615e-05 0.000282188253678232 6.22910727710372e-05 0.000329645284975667 4.49209688111086e-05 0.000343993179279516 0.000195807134918695 -0.00136988022234687 -0.000800031892587091 0.0002805431129256 -0.000563924553956689 0.000108444094786513 5.37228496036623e-05 0.000180868939644608 -0.00188409802568748
"206" 0.000349857726911386 8.31354275592116e-05 0.000275035919502241 6.8822352873237e-05 0.000304717586097887 3.07608311037756e-05 0.000311048700272596 0.000177319130271624 -0.00147895512548731 -0.000798998377154613 0.000281400619346324 -0.000568938307026181 0.000109196166894332 0.000167294605534324 0.000220261896014182 -0.00203402372345732
"207" 0.000350181433063023 8.60455000385077e-05 0.000269264875440432 7.57186632755879e-05 0.000282177597539168 1.79653739622542e-05 0.00027938014267056 0.000160356553668029 -0.0015774015075564 -0.000791247263386951 0.000282253121244086 -0.000573014092295907 0.0001103015314947 0.000276109387218793 0.000261530617823076 -0.00217886763875651
"208" 0.000349959967445483 8.93270198059706e-05 0.00026489498382103 8.29289433109083e-05 0.000262131139808924 6.55819122230935e-06 0.000249180422449082 0.00014502168730262 -0.00166493258791406 -0.000776914125591597 0.000283160593849 -0.000576136866320712 0.000111799574067306 0.000379084719814428 0.000304471158845379 -0.00231785626881736
"209" 0.000349183243953148 9.2955767702951e-05 0.000261917076725771 9.03945098807094e-05 0.000244647421827143 -3.45167705076544e-06 0.000220600985308891 0.000131388563517573 -0.00174136264946919 -0.000756200018963312 0.000284181455016111 -0.000578298345489682 0.000113727455112106 0.00047521460970397 0.000348876212012753 -0.00245024686671592
"210" 0.000347834521847428 9.68943628587609e-05 0.000260294924027225 9.80424929423995e-05 0.000229749555603151 -1.2076905111777e-05 0.000193763193494562 0.000119503543789656 -0.00180660967254235 -0.000729370375382089 0.000285373778170736 -0.000579498228551483 0.000116120672892445 0.000563586110240048 0.000394528687485853 -0.00257534918370604
"211" 0.000345900127512718 0.000101097802406581 0.000259975238122489 0.000105800732993006 0.000217426766147479 -1.93394288165347e-05 0.000168755142769673 0.000109379846408587 -0.00186069293519269 -0.000696747397474727 0.000286796059495103 -0.000579738790847567 0.000119006526569613 0.000643377094807113 0.00044120208565745 -0.00269251990616268
"212" 0.000343366494353342 0.000105516041696561 0.000260875571876877 0.00011358623993792 0.000207623975320899 -2.52887633604085e-05 0.000145627196592484 0.000101010640097542 -0.00190372876570719 -0.000658710650289212 0.000288503843151162 -0.000579030978874731 0.000122418128144405 0.00071386626892455 0.000488665102886641 -0.00280117319834122
"213" 0.000340208392677787 0.000110089803594455 0.000262889833532591 0.000121312212056494 0.000200247980867233 -2.99812935343632e-05 0.00012440199366856 9.43523404298727e-05 -0.00193591785284547 -0.000615691521679341 0.000290551785574729 -0.000577389244507989 0.000126374920289908 0.000774426202059023 0.000536683584338941 -0.0029007745275749
"214" 0.000336406557672094 0.000114754740793453 0.000265890271798562 0.000128884321152811 0.000195176837696017 -3.34884013445459e-05 0.000105062907750735 8.93364792783504e-05 -0.00195754566449448 -0.000568166567861833 0.000292985764175117 -0.000574836933534721 0.000130895837092148 0.000824543598390544 0.000585024254857474 -0.00299086011124865
"215" 0.00033193451716957 0.000119443361508513 0.000269736328976683 0.000136212187348328 0.000192249466748094 -3.58965771164841e-05 8.75741116479313e-05 8.58772295190825e-05 -0.00196897239895163 -0.000516649864603353 0.000295857118498764 -0.000571399410827777 0.000135995851384901 0.000863807009060367 0.000633447637177204 -0.00307102145837
"216" 0.000326771762461592 0.000124078842718642 0.000274264323343629 0.000143198645092274 0.00019128006055601 -3.7300046151244e-05 7.18591911212658e-05 8.38618656672166e-05 -0.00197061559958238 -0.000461688179237077 0.000299203322736168 -0.000567110876883642 0.000141679953856857 0.000891913306703479 0.000681719745524941 -0.00314091835647662
"217" 0.000320896096447709 0.00012859031812843 0.000279300370893639 0.000149745298408798 0.000192056053325717 -3.78054185259748e-05 5.78262938815847e-05 8.31563436968217e-05 -0.00196294405386208 -0.000403854613317712 0.000303064588349886 -0.000562007584465756 0.000147953416417076 0.000908673936863109 0.000729608328994072 -0.00320027927095112
"218" 0.000314288394461661 0.000132896637216139 0.000284663514834298 0.000155759762085207 0.000194348317630362 -3.75173904052792e-05 4.53628783568323e-05 8.36155317388157e-05 -0.00194647571047447 -0.000343739422022496 0.000307468265689024 -0.00055613218734856 0.000154811090529617 0.000914013710773242 0.00077688219866263 -0.00324889618073962
"219" 0.00030693502298833 0.000136926431238126 0.000290167443296331 0.000161154989643467 0.000197907674640122 -3.65510790043294e-05 3.43249622683262e-05 8.50762793190356e-05 -0.00192174801994866 -0.000281943782396929 0.000312439712623428 -0.000549533826339799 0.00016224080422199 0.000907968992820995 0.000823317021563806 -0.00328662778813528
"220" 0.000298826586758178 0.00014060575305828 0.000295620956374262 0.000165847095622571 0.00020247499344175 -3.50219928013312e-05 2.45745182998879e-05 8.73743797951008e-05 -0.00188931157905543 -0.000219078613296798 0.000317995326322306 -0.000542261728362055 0.000170222130194605 0.000890689422782352 0.000868696573971566 -0.00331339758970469
"221" 0.000289964826312219 0.000143865037588802 0.000300847434707101 0.000169760681660801 0.000207791599180798 -3.30379074774566e-05 1.59528160080628e-05 9.03365997865668e-05 -0.0018497237818041 -0.000155740910141889 0.000324148185676809 -0.000534371383108453 0.000178731928555799 0.000862447744786111 0.000912806745704063 -0.00332919593119824
"222" 0.000280355186805908 0.000146647644800657 0.000305671664677706 0.000172835679991402 0.00021359700682616 -3.07100592137441e-05 8.29390214948943e-06 9.37896642059638e-05 -0.00180353336399397 -9.252765775197e-05 0.000330898013345687 -0.000525921211628085 0.000187733667039003 0.000823620090027189 0.00095543987577107 -0.00333406555095375
"223" 0.000270020221371968 0.000148899297837509 0.00030993646426004 0.000175020347904531 0.000219633775353623 -2.81348314683805e-05 1.44416875141148e-06 9.75667778318373e-05 -0.0017512583389234 -3.00137463232167e-05 0.000338242741896425 -0.000516974199758245 0.000197184193378547 0.00077469794549003 0.000996397905582446 -0.00332810800574596
"224" 0.000258990359289351 0.000150579551754938 0.000313500787326318 0.000176280941885022 0.000225662648608188 -2.54016026238672e-05 -4.75809769421968e-06 0.000101508927359271 -0.00169338957565076 3.12476478949936e-05 0.000346169761926869 -0.000507593292741144 0.00020703225527352 0.000716286195588999 0.00103549591818268 -0.00331147512348505
"225" 0.000247310971130869 0.000151656072009728 0.000316245369391997 0.000176597840940595 0.000231454107192187 -2.25917982766031e-05 -1.0459599162126e-05 0.000105463502956957 -0.00163036969605876 9.07246904182646e-05 0.000354656867829871 -0.000497841084165759 0.000217219943392039 0.000649086102867855 0.00107254742013042 -0.00328437094450464
"226" 0.000235037225441387 0.000152113834611916 0.000318076227786501 0.000175967446783904 0.000236802329231542 -1.97681278045922e-05 -1.58020151388296e-05 0.000109298736497219 -0.00156259301261923 0.00014792489734777 0.00036367887619186 -0.000487789346663034 0.000227675069186563 0.000573902841589769 0.00110738240688319 -0.00324704723874622
"227" 0.000222244666286976 0.000151946847122405 0.000318928419745288 0.000174405940864351 0.000241525139321755 -1.69855230184558e-05 -2.0903690572335e-05 0.000112895982508196 -0.00149039026249573 0.000202380970898297 0.000373200916847883 -0.000477504758557742 0.000238325736928653 0.000491626066731621 0.00113984342355106 -0.00319979673463919
"228" 0.00020901398138203 0.000151163511125944 0.000318758303426217 0.000171943504920417 0.000245461489835619 -1.42785201693614e-05 -2.58828055847159e-05 0.000116152005236321 -0.00141404880112293 0.00025366524972074 0.00038317775831176 -0.000467056157911645 0.000249085371140803 0.000403235234180241 0.00116977166829617 -0.00314295077433705
"229" 0.000195441612177582 0.000149786983675417 0.000317553207374463 0.000168628013760752 0.000248479825103447 -1.16748352433494e-05 -3.08279260990328e-05 0.000118982478455708 -0.00133377456381003 0.000301380648836671 0.000393562561240747 -0.000456512965562459 0.000259869537718019 0.000309773890245311 0.00119703741346587 -0.00307687246031923
"230" 0.00018163209520634 0.000147843563034237 0.000315321700849786 0.000164518276001544 0.000250472703273875 -9.1837571604061e-06 -3.58191382219299e-05 0.000121322927597881 -0.00124972567764073 0.000345172992980989 0.000404300365813024 -0.000445943964255653 0.000270576078202094 0.000212346174060797 0.00122150662431274 -0.00300195359161156
"231" 0.000167690392762922 0.000145378908612403 0.000312097452661504 0.000159689736514541 0.000251362035460842 -6.80855498755563e-06 -4.09183905074642e-05 0.000123121401481602 -0.00116199450691714 0.000384717811434991 0.000415325976389998 -0.00043542116790771 0.000281112115064248 0.000112100762338462 0.00124306661007198 -0.00291861671495975
"232" 0.000153738473761654 0.000142446370300179 0.000307937330637114 0.000154224606986313 0.000251093946451116 -4.53780432862262e-06 -4.61685311129359e-05 0.000124342042300473 -0.00107062826689067 0.000419731311377042 0.000426574502503074 -0.000425009022525214 0.000291371124417872 1.0227091499603e-05 0.00126161975947381 -0.00282730596076676
"233" 0.000139893189100775 0.00013910085569915 0.000302911280185118 0.000148212451846078 0.00024963426201522 -2.35855326864442e-06 -5.16109943625546e-05 0.000124962634437902 -0.000975622106029381 0.00044995892280397 0.000437976971357029 -0.000414778201918171 0.00030125060816646 -9.20785751962725e-05 0.00127707738560665 -0.00272849140294632
"234" 0.000126271891805362 0.000135406288444035 0.000297101274161336 0.000141754519121897 0.000246977174941348 -2.44528722028007e-07 -5.72646646775927e-05 0.000124970328623854 -0.000876940264749814 0.000475179851778965 0.000449456686434358 -0.000404793394850742 0.000310643560478293 -0.000193603894221929 0.00128937488299134 -0.00262265776665659
"235" 0.000112987587125427 0.000131429811707663 0.000290604232503102 0.000134944269300002 0.000243128570060972 1.82496792839586e-06 -6.31460594192826e-05 0.000124361669847327 -0.00077451674779473 0.000495204003587259 0.000460934377402035 -0.000395122709492767 0.000319446388209068 -0.000293170622677509 0.00129845688964128 -0.00251031281283444
"236" 0.000100150730923426 0.0001272376200681 0.000283517928093313 0.000127886048290047 0.000238117350647654 3.88180056602418e-06 -6.92526280907324e-05 0.000123138051824716 -0.000668275726858717 0.000509867462289313 0.000472334687094159 -0.000385825448541217 0.000327554874100777 -0.000389608683328713 0.00130429061834289 -0.00239197604814049
"237" 8.78615789679447e-05 0.000122897655008927 0.000275948750725419 0.000120672006801785 0.000231985813489681 5.95009673854643e-06 -7.55906716846365e-05 0.000121311600824354 -0.000558125336580195 0.000519041994040387 0.000483573889211558 -0.000376962445436933 0.000334873509383046 -0.00048179949661623 0.00130685891687409 -0.00226818343124718
"238" 7.62118720927104e-05 0.000118474350079941 0.000267993570745262 0.000113401422021563 0.000224787480677275 8.05403384096709e-06 -8.21459407798478e-05 0.000118889181327508 -0.000443980842242615 0.000522620130516671 0.000494571387961332 -0.000368592574686799 0.000341305657578368 -0.00056869023844475 0.00130615562085204 -0.00213949219362353
"239" 6.52830244022037e-05 0.000114031391906703 0.000259759159839423 0.000106157368785649 0.000216586734134201 1.02145254095855e-05 -8.89148828560384e-05 0.000115889200407615 -0.000325774075541956 0.000520529759979224 0.000505246385319215 -0.000360767241378359 0.000346762589870926 -0.000649293566229628 0.00130220354557809 -0.00200647076332163
"240" 5.51346287439821e-05 0.000109623441476162 0.000251336757305932 9.90230610505967e-05 0.000207460020357113 1.24546636290431e-05 -9.58798919080409e-05 0.000112318148481437 -0.000203458162807969 0.000512724899794388 0.000515520708037677 -0.00035353839227937 0.000351167487924766 -0.000722715148399944 0.00129503366623217 -0.00186970695936026
"241" 4.58288847666749e-05 0.000105304335167979 0.000242815199038493 9.20720822305115e-05 0.000197487499470759 1.47818021907516e-05 -0.000103023543438485 0.000108195864267456 -7.7025975850121e-05 0.000499193186740129 0.00052531707648071 -0.000346950308241566 0.000354446283122393 -0.00078814958653916 0.00128469861270317 -0.00172980617254471
"242" 3.73993336554535e-05 0.000101121445386349 0.000234278297705428 8.53690884830124e-05 0.000186759516054936 1.7210005088826e-05 -0.000110332936638981 0.000103535232244587 5.34853500818263e-05 0.000479952360340024 0.000534561333714751 -0.000341040038181692 0.000356533667161177 -0.000844912250397355 0.00127126354060992 -0.00158739074933494
"243" 2.98715932570775e-05 9.71132339315731e-05 0.000225795844899125 7.89670235869341e-05 0.00017536716623388 1.97392131454505e-05 -0.000117782167648451 9.83500414196548e-05 0.00018799313793477 0.000455059763780677 0.000543183154679213 -0.000335843205784742 0.000357378441119889 -0.000892431142278121 0.00125481473909386 -0.00144310137341001
"244" 2.32568006805513e-05 9.33128325223527e-05 0.000217432404175454 7.29100076718866e-05 0.000163407205783302 2.23669060001024e-05 -0.000125357463704549 9.26517087762942e-05 0.000326344659296703 0.000424601661311044 0.000551113789164517 -0.000331384541200938 0.000356937123209277 -0.000930265836369146 0.00123544735927772 -0.00129759309606552
"245" 1.75461229801205e-05 8.97462528332207e-05 0.000209243075810253 6.72389307496938e-05 0.000150983014953829 2.50891685388923e-05 -0.000133032790403246 8.64579257205833e-05 0.00046832469086279 0.000388708737883352 0.000558293796924552 -0.000327688582484357 0.000355175087002038 -0.000958107114917561 0.00121327522305695 -0.00115153904583393
"246" 1.2724779158264e-05 8.64337653106048e-05 0.000201269670515206 6.19735344593165e-05 0.000138192825072719 2.7892728814739e-05 -0.000140789445921865 7.9781632985353e-05 0.000613643382520519 0.000347545571143211 0.000564666855358331 -0.000324761246982777 0.000352077418583029 -0.000975789275928606 0.00118842299004271 -0.00100563084195835
"247" 8.75742254309291e-06 8.33860758127367e-05 0.00019354889478692 5.71336591319615e-05 0.000125137067537934 3.07598029453364e-05 -0.000148600297838798 7.26333455777791e-05 0.00076193631434265 0.000301320251777112 0.000570178760627856 -0.000322613766095406 0.000347632226840029 -0.000983286787208123 0.00116102014414557 -0.000860574275486828
"248" 5.60278182325271e-06 8.06101691088992e-05 0.00018610417755274 5.27261258154282e-05 0.000111922613624731 3.36759260409534e-05 -0.000156442925827314 6.50361083065227e-05 0.00091274987298536 0.000250282680498598 0.000574786053363557 -0.000321235711570837 0.000341842235123181 -0.000980715922591893 0.00113121977666617 -0.000717090022135273
"249" 3.19867975208664e-06 7.81043946149716e-05 0.000178951543979498 4.8748810317678e-05 9.86476597069324e-05 3.6612591883346e-05 -0.000164288255201978 5.70046030965179e-05 0.00106555113692953 0.000194721582409746 0.000578451938815372 -0.000320619843281118 0.000334724705437094 -0.00096833469381048 0.00109917313808321 -0.000575902564968668
"250" 1.48374083740077e-06 7.58647012277169e-05 0.000172102626227215 4.51922358811607e-05 8.54133168791129e-05 3.95456232865557e-05 -0.000172110228343378 4.85581279280496e-05 0.00121971742275327 0.000134969195934886 0.00058114235730414 -0.000320744314651106 0.000326307980567546 -0.000946533860125431 0.00106503961911819 -0.000437750880547948
"251" 3.79695936211454e-07 7.38765908396083e-05 0.000165552646655735 4.20377207346861e-05 7.23154973410623e-05 4.24489574487906e-05 -0.000179879145585782 3.97183954506227e-05 0.00137454840511718 7.13955203065724e-05 0.000582832248236686 -0.000321579425972682 0.000316629580182149 -0.000915842932701673 0.00102898846652747 -0.00030337241512749
"252" -2.0410125695813e-07 7.21220643071172e-05 0.000159296800804928 3.92610747746369e-05 5.94487669466543e-05 4.5291243210461e-05 -0.000187569509152256 3.05102280813939e-05 0.00152925014112591 4.41638428930031e-06 0.000583505383477416 -0.000323086261278767 0.000305739727422828 -0.000876902946262875 0.000991191585679041 -0.000173506873604955
"253" -3.51331375243988e-07 7.05802039726668e-05 0.000153317064805353 3.68342886033857e-05 4.68987298600659e-05 4.80395131906512e-05 -0.000195145777881174 2.09629752132723e-05 0.0016829583079178 -6.55205198062065e-05 0.000583148947251015 -0.000325220592737524 0.000293702313435935 -0.000830469259485451 0.00095182701640199 -4.88869173163365e-05
"254" -1.71890959239918e-07 6.92249200850675e-05 0.000147596791986344 3.47162359078472e-05 3.47546041907948e-05 5.066292643715e-05 -0.000202579290977653 1.11031816382667e-05 0.00183472799233649 -0.000137930082897904 0.000581757660366311 -0.000327926278396589 0.000280587762933757 -0.000777399072819189 0.000911067742762985 6.97659368876739e-05
"255" 2.4028380949632e-07 6.80243227389829e-05 0.000142103561348068 3.28694706088516e-05 2.30887286114203e-05 5.31307554998231e-05 -0.000209838597213777 9.69163820728399e-07 0.00198354547594041 -0.000212299073127008 0.000579337665662253 -0.000331140427441255 0.000266478923505843 -0.000718635434062771 0.000869095398189816 0.000181751726003262
"256" 7.73982362859819e-07 6.69470827968564e-05 0.00013680827030468 3.12437171848964e-05 1.19759979532829e-05 5.5408865571368e-05 -0.000216894068340883 -9.40801214744844e-06 0.00212833941206177 -0.0002880856112927 0.000575896848789093 -0.000334796541976356 0.000251464809162725 -0.000655189332192065 0.000826086437096499 0.000286399114541218
"257" 1.3174456296207e-06 6.59564391738922e-05 0.000131673235610545 2.97920258317911e-05 1.47569111014459e-06 5.74649413973941e-05 -0.000223713604779497 -1.99913466429444e-05 0.00226798553804139 -0.000364729131895905 0.000571449768044957 -0.000338815993926815 0.000235646455789733 -0.000588138415880784 0.000782219519395522 0.000383067890164438
"258" 1.76193064556738e-06 6.50111209305969e-05 0.000126654541765382 2.84583054941758e-05 -8.35519845703935e-06 5.92662939973664e-05 -0.000230264938397985 -3.07345723779771e-05 0.00240131868035086 -0.000441647035108833 0.000566022757177627 -0.000343119022372514 0.000219131946254596 -0.000518587159146164 0.000737667320822667 0.000471162189072275
"259" 2.000635189968e-06 6.40749757100942e-05 0.000121708763759723 2.71906387590546e-05 -1.74705458018318e-05 6.07818145782354e-05 -0.00023652047504874 -4.15997055674191e-05 0.00252714744343549 -0.00051824861146852 0.000559643223784434 -0.000347616826506965 0.000202030386561251 -0.000447664685242259 0.000692601598399157 0.00055013928470613
"260" 1.92050064393291e-06 6.31051586290193e-05 0.00011678513755119 2.59297291717942e-05 -2.5836454684166e-05 6.19809766897871e-05 -0.00024245529027997 -5.25408384073417e-05 0.00264426198610815 -0.000593936054813948 0.000552347638864712 -0.00035221764226715 0.000184462459820246 -0.000376498532324471 0.000647190076417021 0.000619516654590713
"261" 1.41984244522492e-06 6.20613823097533e-05 0.00011183262154754 2.4617037916215e-05 -3.34224700149764e-05 6.28343832901132e-05 -0.000248043000894842 -6.35154379197562e-05 0.00275145603176712 -0.000668117426271105 0.000544172897509222 -0.000356827790793174 0.00016655103986625 -0.000306200492039708 0.000601595202720974 0.000678880515962008
"262" 3.91661551301012e-07 6.08996949719345e-05 0.000106800361720919 2.31955600385933e-05 -4.02138032651837e-05 6.33162432922959e-05 -0.00025326047448901 -7.44776245809939e-05 0.00284753903071536 -0.000740201089870259 0.000535165355121957 -0.000361350508309165 0.000148420861184897 -0.000237852389064756 0.000555973816461131 0.00072789252189261
"263" -1.2574202868692e-06 5.95821731269073e-05 0.000101629646896256 2.16085009690987e-05 -4.62044278198703e-05 6.33979160210553e-05 -0.000258087779393675 -8.53803480628251e-05 0.0029313519499563 -0.000809613669502622 0.000525376392837845 -0.000365685734842238 0.000130200507381562 -0.00017248176555239 0.000510478582608974 0.000766298722196444
"264" -3.614404809956e-06 5.80684821540356e-05 9.62692178533397e-05 1.97966576887014e-05 -5.13947896106723e-05 6.30568453663805e-05 -0.000262506639764144 -9.61792065175419e-05 0.00300178607515892 -0.000875800932503733 0.00051486186811726 -0.000369736426955676 0.000112018056313475 -0.000111059383624347 0.000465252158488597 0.000793932558642173
"265" -6.76828232222836e-06 5.63202929806444e-05 9.06601198219612e-05 1.77076054353884e-05 -5.58043993549836e-05 6.22661160322718e-05 -0.000266507919746063 -0.000106834467042989 0.0030578064559979 -0.000938235955469082 0.00050367469481201 -0.000373403706163453 9.40030154708431e-05 -5.44700466126043e-05 0.000420434028525511 0.000810729900462261
"266" -1.07890564729119e-05 5.43013632828827e-05 8.47486092355668e-05 1.5287635626566e-05 -5.94533663171587e-05 6.10083064192526e-05 -0.000270081596562631 -0.000117298023660231 0.00309846009872774 -0.000996427726374031 0.000491879435756684 -0.000376590039504065 7.6278855896452e-05 -3.51250646427708e-06 0.000376153129773506 0.000816714561542943
"267" -1.57455171820902e-05 5.19785833337035e-05 7.84816436317602e-05 1.24856036638223e-05 -6.23746078776895e-05 5.92596805816414e-05 -0.000273217935315025 -0.000127536089887639 0.00312289651562461 -0.00104991752153856 0.000479539005477775 -0.000379206200222375 5.89725730228603e-05 4.11225565743067e-05 0.000332533661853634 0.000812019158376627
"268" -2.16961097237643e-05 4.93218155950922e-05 7.18038573276059e-05 9.25588813692351e-06 -6.4615141718849e-05 5.70072320335744e-05 -0.000275923996869822 -0.000137510562853876 0.00313037939594575 -0.00109829734740301 0.000466720702651633 -0.000381162769902971 4.22020115361618e-05 7.88512763379689e-05 0.000289690821074388 0.000796874984632649
"269" -2.86786830938395e-05 4.6303313745219e-05 6.46668350830595e-05 5.558435754436e-06 -6.62258751019026e-05 5.42313277356172e-05 -0.000278199802201488 -0.000147188684462829 0.00312030758024468 -0.00114120312846848 0.000453489710364141 -0.000382374928346018 2.6085559431971e-05 0.00010921318044721 0.000247732526750742 0.000771616186673854
"270" -3.67365741618104e-05 4.29030988320501e-05 5.70199025858818e-05 1.35499419913635e-06 -6.72641803973462e-05 5.09184896736021e-05 -0.000280054899934303 -0.000156541818335355 0.003092221952243 -0.00117832162505139 0.000439915198158152 -0.000382768675322429 1.07291996190641e-05 0.000131873981710999 0.000206758847414087 0.000736672402104229
"271" -4.58863597402837e-05 3.9099164431748e-05 4.8820734138537e-05 -3.38883261993003e-06 -6.78038390231281e-05 4.70605643353138e-05 -0.000281499692820272 -0.000165546374936571 0.00304582190158325 -0.00120939439096943 0.000426067437897148 -0.000382273568055028 -3.76388842847436e-06 0.000146628742474244 0.000166858177524463 0.000692575698463995
"272" -5.61470527735762e-05 3.48758965409804e-05 4.00270412713108e-05 -8.70180662235953e-06 -6.79166252450278e-05 4.26450612089385e-05 -0.000282559191881071 -0.000174185196836999 0.00298097186997433 -0.00123422429930093 0.000412015894573448 -0.000380831128129216 -1.72954164617743e-05 0.000153401717376248 0.000128120778350264 0.000639943686978885
"273" -6.75134655260515e-05 3.02235138349043e-05 3.0600504641462e-05 -1.46001249309782e-05 -6.7686386102597e-05 3.76626273545954e-05 -0.000283252430513231 -0.000182445408459374 0.0028977079413786 -0.00125267049503904 0.00039783040515035 -0.000378387632172921 -2.97838308150132e-05 0.000152254597593405 9.06200735009332e-05 0.000579481599746121
"274" -7.99756054308851e-05 2.51356846814292e-05 2.05084245140496e-05 -2.11021891794768e-05 -6.71972679762824e-05 3.21136828731933e-05 -0.000283608459634775 -0.000190318754812523 0.00279623959581668 -0.00126465196220955 0.00038358237324742 -0.000374905667244297 -4.11514464856507e-05 0.000143377881462427 5.44271340458165e-05 0.000511973971993029
"275" -9.35117946846138e-05 1.96116917249007e-05 9.72404402232152e-06 -2.82188441046902e-05 -6.65421859440976e-05 2.5994440807358e-05 -0.000283661386810802 -0.000197804993058381 0.00267694965450546 -0.00127015226996065 0.000369336830124617 -0.00037035349205701 -5.13309514514097e-05 0.000127084680564605 1.96045256630877e-05 0.000438270094858752
"276" -0.000108080716587349 1.36513752122535e-05 -1.77434212510071e-06 -3.59499579590585e-05 -6.58128954062544e-05 1.92992202524687e-05 -0.000283443145694179 -0.000204913363155657 0.00254039844566233 -0.00126921050383762 0.000355164197970068 -0.000364711745711449 -6.02663471290364e-05 0.000103804054624213 -1.37897339961767e-05 0.0003592744984339
"277" -0.000123641312543351 7.26651160051306e-06 -1.40066086081202e-05 -4.42896199064957e-05 -6.51059710072845e-05 1.20402036717186e-05 -0.000282999384451639 -0.000211651491586785 0.00238732437208609 -0.00126192858028738 0.000341126874845008 -0.000357976785567667 -6.791295993906e-05 7.40863673368704e-05 -4.57094579886792e-05 0.00027593905261159
"278" -0.000140131617758272 4.70184614020307e-07 -2.69799217131248e-05 -5.32264945160247e-05 -6.45138356562485e-05 4.2157040182513e-06 -0.000282374756574006 -0.000218040841257773 0.00221861302260961 -0.00124846918243925 0.000327292208222851 -0.000350153144934645 -7.42383728846319e-05 3.8571324320741e-05 -7.61068738191231e-05 0.000189244140280974
"279" -0.000157483695990394 -6.7215578869805e-06 -4.06920779046313e-05 -6.27419788886941e-05 -6.41290538308618e-05 -4.15446361253655e-06 -0.000281603103864079 -0.000224093749785939 0.00203531650652157 -0.00122904621079481 0.000313721493936761 -0.000341255680747138 -7.92223497091876e-05 -2.01191626768142e-06 -0.0001049499119139 0.000100198257147803
"280" -0.000175614035402872 -1.42854478429339e-05 -5.51399079159023e-05 -7.28074566406793e-05 -6.40446480346898e-05 -1.30634498107476e-05 -0.000280740606313845 -0.000229844105612283 0.0018386273894817 -0.00120392802169775 0.000300470559528177 -0.000331317874136188 -8.28543479263338e-05 -4.68478267551202e-05 -0.000132207489082547 9.81864514560043e-06
"281" -0.000194432851366609 -2.21925173618701e-05 -7.03091329119537e-05 -8.33905486771138e-05 -6.43426747880774e-05 -2.24908112116768e-05 -0.000279828379471764 -0.000235319498526344 0.00162986699376733 -0.00117343644391698 0.000287600089546272 -0.000320383143793543 -8.51398338815839e-05 -9.50680086917898e-05 -0.000157854590966906 -8.08774876580802e-05
"282" -0.000213841824343714 -3.04082688669628e-05 -8.61741948966313e-05 -9.44457935211703e-05 -6.51022960225846e-05 -3.24144969114966e-05 -0.000278911427449626 -0.000240550386397629 0.00141047086306826 -0.00113793440878917 0.000275162353102569 -0.000308502572945223 -8.6096469277081e-05 -0.000145748738530373 -0.000181873039754152 -0.000170882344243734
"283" -0.000233728524944721 -3.88959162784962e-05 -0.000102694441135497 -0.000105922382433736 -6.63953126717132e-05 -4.28003287315171e-05 -0.000278034464366109 -0.000245566403688974 0.00118197987941469 -0.00109783219964195 0.000263204768492486 -0.000295745418778085 -8.57493968705291e-05 -0.000197929464285716 -0.000204252909820432 -0.000259216375010803
"284" -0.000253976411141335 -4.76099974841001e-05 -0.00011982597124768 -0.000117764414030141 -6.82788453041715e-05 -5.36173265805285e-05 -0.000277231548085832 -0.000250401554235839 0.00094601516791913 -0.0010535712494424 0.000251772488361033 -0.000282186341161426 -8.41406617586131e-05 -0.000250624847183325 -0.000224988357121361 -0.000344922925921869
"285" -0.000274458517291237 -5.65019047613991e-05 -0.000137509068953163 -0.000129901689116347 -7.08075283503085e-05 -6.48238534908363e-05 -0.000276536644033564 -0.000255084181219561 0.000704271566141594 -0.00100562821068206 0.000240910895063774 -0.000267914623723522 -8.1327995503548e-05 -0.000302846160589302 -0.000244079379903282 -0.000427093923040653
"286" -0.00029504054731281 -6.55164532332758e-05 -0.00015567187517565 -0.000142266547819733 -7.40139154942142e-05 -7.63774000661951e-05 -0.000275982952074044 -0.000259638477857822 0.00045848293550228 -0.000954508867598043 0.000230654121658087 -0.000253026300845562 -7.73726011314082e-05 -0.000353612189189283 -0.000261533434678153 -0.000504869719821916
"287" -0.000315581793152592 -7.45987058189228e-05 -0.000174231645060011 -0.000154771362097774 -7.79219895189509e-05 -8.82180252608293e-05 -0.000275586197910354 -0.000264094635496299 0.000210417799989351 -0.000900740394318763 0.000221034903909287 -0.000237626810641816 -7.23514201899889e-05 -0.000401962603418329 -0.000277363620748736 -0.000577451031113185
"288" -0.000335940121805921 -8.36787548219868e-05 -0.00019308736363681 -0.000167333289091705 -8.25416357421419e-05 -0.000100288030484397 -0.000275362788902711 -0.00026845891137313 -3.81434203927274e-05 -0.000844864462551207 0.000212083114241362 -0.000221829997981794 -6.63542229932135e-05 -0.00044696604674425 -0.000291593691456637 -0.000644092845706984
"289" -0.000355966517726297 -9.26931866588052e-05 -0.000212131706546116 -0.000179856410314444 -8.78656559211592e-05 -0.000112520071057101 -0.000275315396145716 -0.000272747197739034 -0.000285416115232024 -0.000787440350036853 0.000203817792187952 -0.000205756262636378 -5.94756856623858e-05 -0.000487748633001114 -0.000304244920089565 -0.000704129686758796
"290" -0.00037550736297902 -0.000101568904537074 -0.000231242001896918 -0.000192242577935652 -9.38701567833617e-05 -0.00012484232920341 -0.000275437012439366 -0.000276959835642634 -0.000529646886559784 -0.000729031448043019 0.00019626222491992 -0.000189531658813237 -5.182272364781e-05 -0.000523485625602358 -0.000315354687234868 -0.00075696219663289
"291" -0.00039440994995797 -0.000110234122443404 -0.000250286127160724 -0.000204386988692516 -0.000100519777281602 -0.000137174380923595 -0.000275718581607592 -0.000281093041212795 -0.00076910897128499 -0.000670202541584041 0.000189426387815787 -0.000173286531574223 -4.35103323664238e-05 -0.000553432149923333 -0.000324960404968583 -0.000802081886215762
"292" -0.000412521097315402 -0.000118608272546347 -0.000269117387288303 -0.000216183460486639 -0.000107758349159669 -0.000149426894072142 -0.000276129403364151 -0.000285131268201126 -0.00100213159296973 -0.000611516847069644 0.000183316979996479 -0.000157153932069351 -3.46614956475908e-05 -0.000576915153659283 -0.000333106326516998 -0.000839047613512441
"293" -0.000429687570239439 -0.000126614827694403 -0.000287586257639727 -0.000227519827307525 -0.000115522389002326 -0.000161517389526819 -0.000276642295526132 -0.000289055576379667 -0.001227111704379 -0.000553529355961184 0.000177939083344312 -0.000141270193148184 -2.54021857941458e-05 -0.000593352318693319 -0.000339844616798067 -0.000867509216290364
"294" -0.000445759384253445 -0.000134174656355691 -0.000305533113991432 -0.00023828766717364 -0.000123729343984023 -0.000173346042600172 -0.000277213429354083 -0.000292835888493907 -0.00144252509485868 -0.000496780482743032 0.000173288985562635 -0.000125771599431772 -1.58670058714851e-05 -0.000602257464341108 -0.000345230055617847 -0.000887206289285333
"295" -0.000460593150445447 -0.000141210974799687 -0.000322788891990876 -0.000248373115560782 -0.000132289074850903 -0.00018481733120899 -0.000277796767954192 -0.000296432671926796 -0.00164694558447716 -0.000441795857655369 0.000169360021654875 -0.000110792997891136 -6.18885039374509e-06 -0.000603241607165088 -0.000349321385283972 -0.000897962817780931
"296" -0.000474051064043087 -0.000147647221082734 -0.000339193194769051 -0.000257670482653998 -0.000141098276518538 -0.000195832813622628 -0.000278337315074139 -0.00029980923760973 -0.00183904350692653 -0.000389077629664753 0.000166144766176626 -9.64664571232314e-05 3.49576843798431e-06 -0.000596021038425388 -0.000352185503753513 -0.000899690517600132
"297" -0.000486003827824294 -0.000153409328718308 -0.000354575213207619 -0.000266070034070576 -0.000150046584159053 -0.000206294622834388 -0.000278773482044972 -0.000302910896225628 -0.00201760822076202 -0.000339100930672485 0.000163623583484178 -8.29238879860668e-05 1.30499352764798e-05 -0.000580415061841671 -0.000353885815592148 -0.000892384451562733
"298" -0.000496325628237789 -0.000158428491959952 -0.00036877119600339 -0.000273473651152771 -0.000159018839196534 -0.000216103034210464 -0.000279042052108176 -0.000305690500466692 -0.00218155767553597 -0.000292310824543442 0.0001617779668044 -7.02897747936593e-05 2.23373771919517e-05 -0.000556356246486211 -0.000354492125279559 -0.00087612550280194
"299" -0.000504911152556884 -0.00016264013209745 -0.00038161759699376 -0.000279783367293619 -0.000167893511955305 -0.000225162295408769 -0.000279074137001853 -0.000308090162703391 -0.00232993571153706 -0.000249117561482413 0.000160588399439577 -5.86845010063086e-05 3.12302628349477e-05 -0.000523883680504398 -0.000354077946782633 -0.000851083019024608
"300" -0.000511662775721938 -0.000165987746563657 -0.000392965178031197 -0.000284913052016838 -0.000176548107782018 -0.000233378015589676 -0.000278803484152297 -0.000310051916173412 -0.00246193562377756 -0.000209894311167148 0.000160027861753286 -4.8213890872185e-05 3.95984555825543e-05 -0.000483137126049141 -0.000352712536178087 -0.000817503294623675
"301" -0.000516495100212107 -0.000168419527097863 -0.000402667113214 -0.000288781370760252 -0.000184859946989983 -0.000240662953374891 -0.000278163210829535 -0.000311520278790713 -0.00257689307576765 -0.000174970625174661 0.000160066082220383 -3.89871988053878e-05 4.7322472457377e-05 -0.000434363088172664 -0.000350467590727793 -0.000775722145771379
"302" -0.000519341464747557 -0.000169893874485757 -0.000410596745345444 -0.00029132158745185 -0.00019271384959747 -0.000246932946609315 -0.000277088189445287 -0.000312435363441154 -0.00267429090783155 -0.000144635091654976 0.000160675723730601 -3.10954397394343e-05 5.42914297860384e-05 -0.000377908434643284 -0.000347412609395735 -0.00072614529981315
"303" -0.000520151190549514 -0.000170378899797443 -0.000416628597517262 -0.000292473360690292 -0.000199990027520764 -0.000252115668597965 -0.000275512526637823 -0.000312743286727207 -0.00275377262511321 -0.000119120210136345 0.000161821553273983 -2.46204465224561e-05 6.04000416162968e-05 -0.000314207373604438 -0.000343618570759667 -0.000669249591802275
"304" -0.000518889962086043 -0.000169846877387938 -0.000420662483279737 -0.000292192087527247 -0.000206583606269846 -0.00025613940437675 -0.00027338041440434 -0.000312393332322009 -0.00281513305262227 -9.86119590411665e-05 0.000163470516482875 -1.96350262454801e-05 6.55567071413067e-05 -0.000243785656439824 -0.000339154605338548 -0.000605591310525017
"305" -0.000515535377782416 -0.000168285154376523 -0.000422616240120979 -0.000290442188447142 -0.000212388952026125 -0.000258945020242587 -0.000270637642837495 -0.000311331106564967 -0.00285832250745365 -8.32400424219671e-05 0.000165585614463033 -1.61956470031932e-05 6.96796047368719e-05 -0.000167242594543085 -0.000334078624464395 -0.000535785909729275
"306" -0.000510086681474849 -0.000165691909002738 -0.000422422960119132 -0.000287203233699637 -0.000217316554589253 -0.000260484491346121 -0.000267234407557828 -0.000309517649481056 -0.00288344791693919 -7.30755848877098e-05 0.000168131375782555 -1.43506747365574e-05 7.27012248267221e-05 -8.52586851357517e-05 -0.000328458660226507 -0.000460518554474575
"307" -0.000502567830546185 -0.000162070837587318 -0.000420031655904594 -0.000282468929489736 -0.00022128078155025 -0.000260716436728605 -0.000263131488707516 -0.000306911178078335 -0.00289076293267117 -6.81334598504345e-05 0.000171070291121123 -1.41309941202653e-05 7.45662068688618e-05 1.42108005923254e-06 -0.000322350435532861 -0.000380525757040189
"308" -0.000493006178491491 -0.000157439199921553 -0.000415413462954087 -0.000276244406809505 -0.000224216407826164 -0.00025961042209565 -0.000258290144393674 -0.00030347673953618 -0.00288067022817392 -6.83694597498783e-05 0.000174364923740526 -1.55504937698635e-05 7.52304105104915e-05 9.19954685513375e-05 -0.000315804379609754 -0.000296596525409495
"309" -0.000481457109124617 -0.000151823727117162 -0.000408563992248649 -0.000268550706521662 -0.000226060043584041 -0.000257146159335893 -0.000252689983747471 -0.000299183423001514 -0.00285370879216988 -7.36740969520201e-05 0.000177976605583245 -1.86164683799235e-05 7.46700633548007e-05 0.000185608606656253 -0.000308871950702837 -0.000209566694023157
"310" -0.000467989836492691 -0.00014525946800401 -0.000399492896327372 -0.000259420421394723 -0.0002267627996664 -0.000253310436680944 -0.000246302846695334 -0.00029401062544423 -0.00281056098914245 -8.38806889316362e-05 0.000181868374123552 -2.33128286740891e-05 7.2867340370241e-05 0.000281367010803851 -0.000301599857448812 -0.00012031213440374
"311" -0.000452684066068487 -0.000137793609271454 -0.000388233229511346 -0.000248896937307134 -0.000226295407631698 -0.000248109433918571 -0.000239122022384497 -0.000287939755143262 -0.0027520213817341 -9.87550165664584e-05 0.000186003496263362 -2.96154860704387e-05 6.98285809601502e-05 0.000378335710416168 -0.000294027337302122 -2.97418260210766e-05
"312" -0.000435644881075733 -0.000129476200541406 -0.000374831259960631 -0.000237040851608414 -0.000224630889687892 -0.000241547763684403 -0.00023113331894814 -0.000280955202091966 -0.00267901256779927 -0.000118016179928763 0.000190345163480976 -3.74806699097239e-05 6.55671956319298e-05 0.000475558230216831 -0.000286194742173729 6.12160687669101e-05
"313" -0.000416978158266927 -0.000120367664879178 -0.000359357958110148 -0.000223918580686483 -0.00022175857314416 -0.000233647945931099 -0.00022234514145731 -0.000273051203666702 -0.00259255013549501 -0.000141311056482383 0.000194856202444114 -4.68535337024549e-05 6.01131407124818e-05 0.000572050471649762 -0.000278129146209188 0.000151614302029497
"314" -0.000396815561622599 -0.000110537225696162 -0.000341900352812602 -0.000209612804955602 -0.000217684633977152 -0.000224442055982166 -0.000212759921124158 -0.000264224739821601 -0.00249375835349809 -0.000168244164548176 0.000199503298363135 -5.7665662800306e-05 5.35064407559991e-05 0.000666820824746594 -0.000269868069441964 0.000240506585376602
"315" -0.00037529035668245 -0.000100056397646136 -0.000322554321539529 -0.000194212652239244 -0.000212418494207428 -0.00021396188788712 -0.000202384126898516 -0.000254470024291202 -0.00238383632961143 -0.000198360305128627 0.000204249506278494 -6.98319996189254e-05 4.58053494557054e-05 0.00075887236613837 -0.000261429614544596 0.000326945964785893
"316" -0.000352553837138558 -8.9001839239866e-05 -0.000301439637676461 -0.000177817777675461 -0.000205983535507725 -0.000202259949894464 -0.000191243145791775 -0.00024379636397846 -0.00226406062569982 -0.000231165141171619 0.000209063077006514 -8.32603245160309e-05 3.7073096149786e-05 0.00084720977355063 -0.000252846331784923 0.000410009803212864
"317" -0.000328753948332577 -7.74553223709334e-05 -0.00027868314053929 -0.000160534145793464 -0.000198415577592674 -0.000189392802588203 -0.000179354218912746 -0.00023221247516529 -0.00213576330390502 -0.000266115849749058 0.000213908928951821 -9.78442469599876e-05 2.73879886641916e-05 0.00093084602636493 -0.000244133463011439 0.000488800602745173
"318" -0.000304060723905888 -6.55021226459518e-05 -0.000254430721646539 -0.000142477953036093 -0.000189758046106485 -0.000175419223785987 -0.000166740620149581 -0.000219727266672102 -0.00200031731429374 -0.000302633770249087 0.000218756324723358 -0.00011346799978445 1.68345494777357e-05 0.00100881275179186 -0.000235311430918228 0.000562453205227941
"319" -0.00027863726157627 -5.32234159669971e-05 -0.000228827884760115 -0.0001237666041562 -0.000180062752197199 -0.000160409479388825 -0.000153436459518619 -0.000206350423275968 -0.00185913002038627 -0.000340112419860126 0.000223572614084279 -0.00013000947059551 5.5062537667943e-06 0.00108016002164675 -0.000226405881784209 0.000630157274361388
"320" -0.000252657454852682 -4.07071434675615e-05 -0.000202035247718027 -0.000104524553782432 -0.000169387746259365 -0.000144440637040159 -0.000139468080721239 -0.000192102010349526 -0.00171362241680808 -0.00037792108941344 0.000228327743713825 -0.00014733318055649 -6.49763562479562e-06 0.00114397383728082 -0.000217430926437933 0.000691150180182102
"321" -0.000226297050821235 -2.80356523075291e-05 -0.000174215716275126 -8.48788898377343e-05 -0.000157798910244269 -0.000127593370079013 -0.000124870770298964 -0.000176993709519213 -0.00156521851399231 -0.000415409167952425 0.000232990263371605 -0.000165305029714779 -1.9070493120458e-05 0.0011993785754065 -0.000208407101083759 0.000744744991455448
"322" -0.000199729538554641 -1.52933873467743e-05 -0.000145544662760383 -6.4959227648377e-05 -0.000145372444493645 -0.000109959474385791 -0.000109680493374149 -0.000161051117217912 -0.00141531691808472 -0.000451918411339006 0.000237531927239196 -0.000183784211001377 -3.21090141667526e-05 0.00124554330553215 -0.000199351951493385 0.000790330644959404
"323" -0.000173129751337276 -2.55714734182019e-06 -0.000116190293024604 -4.48939043428328e-05 -0.00013218026697955 -9.16269564675053e-05 -9.39353447304817e-05 -0.000144289153128952 -0.00126529937192367 -0.000486791195985868 0.000241921069419153 -0.000202623505155734 -4.54993295044866e-05 0.00128169626940695 -0.000190294402919816 0.000827375874098758
"324" -0.00014667043336189 1.00914962270708e-05 -8.63313838064111e-05 -2.48147669369249e-05 -0.000118306966442246 -7.26910649993045e-05 -7.76689845758388e-05 -0.000126733555437691 -0.00111649529735487 -0.000519373039857256 0.000246127405274036 -0.000221678896412281 -5.91342267957446e-05 0.00130711627201403 -0.000181256080749496 0.000855447458587927
"325" -0.000120522670123431 2.25850782383145e-05 -5.61425551514541e-05 -4.84822895615515e-06 -0.000103833677363487 -5.32561904607156e-05 -6.09226927392828e-05 -0.000108407188229183 -0.000970179713909943 -0.000549025248734192 0.000250125057564726 -0.000240805585250588 -7.29044769566944e-05 0.00132116300574941 -0.000172265621946857 0.000874210016074399
"326" -9.48500530023317e-05 3.48554954516796e-05 -2.57976402631174e-05 1.48778986252494e-05 -8.88498129607988e-05 -3.34221577319323e-05 -4.37407676454544e-05 -8.93376513841904e-05 -0.000827548239427451 -0.000575134367179842 0.000253883446033808 -0.00025986326703889 -8.67062431059914e-05 0.00132326845543822 -0.000163354881365578 0.000883437734557513
"327" -6.98111535061401e-05 4.68388076480261e-05 4.53211105977674e-06 3.42430735106507e-05 -7.34446403666455e-05 -1.32936866125932e-05 -2.61576424301185e-05 -6.95528276625676e-05 -0.000689714921967965 -0.000597113161617094 0.00025737303336154 -0.000278709642753389 -0.000100433556860451 0.00131294273933136 -0.000154558367265311 0.000883002554862258
"328" -4.55593974199718e-05 5.84796362769493e-05 3.46773504623401e-05 5.31292502362513e-05 -5.77099845031293e-05 7.02028871422587e-06 -8.21581694043457e-06 -4.90848025738903e-05 -0.000557693969626456 -0.000614418229051212 0.000260565805905897 -0.000297213447866318 -0.000113991736355226 0.00128979486142396 -0.000145916470263405 0.00087289514787488
"329" -2.22360082078349e-05 6.97309099910515e-05 6.44722507289478e-05 7.1421861371011e-05 -4.17375211933461e-05 2.74061331137996e-05 1.00341734891703e-05 -2.79727965705e-05 -0.000432378727425093 -0.000626549984656436 0.000263435875424802 -0.000315247184960082 -0.00012729146716638 0.00125352077334142 -0.000137472865873794 0.000853205025000078
"330" 2.01708936834343e-08 8.05458819549863e-05 9.37573085481299e-05 8.90167545170594e-05 -2.56196700025255e-05 4.77563265741557e-05 2.85533611343097e-05 -6.25765130750651e-06 -0.000314553021737032 -0.000633060751196922 0.000265955140074913 -0.000332692014374208 -0.000140243924464124 0.001203923070721 -0.000129277435149534 0.000824136394978075
"331" 2.10838148929028e-05 9.08891300497553e-05 0.00012237987895273 0.000105812920268784 -9.45492052217646e-06 6.79574684371959e-05 4.72854055233674e-05 1.6011490045576e-05 -0.000204866620238945 -0.000633568629457316 0.000268099835419544 -0.000349440607248417 -0.000152778298997327 0.00114090999167286 -0.000121380184766828 0.000785993465392817
"332" 4.08399777535441e-05 0.000100726644389178 0.000150194771757469 0.000121719080339708 6.66634727529299e-06 8.78983123609149e-05 6.61849524825247e-05 3.87793539479632e-05 -0.000103835679563335 -0.000627755402119236 0.00026984071801946 -0.000365394012729962 -0.000164825548886689 0.00106450723222579 -0.000113839466998055 0.000739180246347328
"333" 5.91850353500287e-05 0.000110035299507628 0.000177056318934085 0.000136649793053242 2.26465805353277e-05 0.000107461420198636 8.51923472118776e-05 6.19850767577746e-05 -1.1838063420777e-05 -0.000615375748321226 0.000271156748485912 -0.000380461495948882 -0.000176325315014639 0.000974858228062675 -0.000106711385082609 0.00068419655762518
"334" 7.60210284035857e-05 0.000118791811973242 0.000202831533321486 0.000150531168233576 3.83878972268576e-05 0.00012653731136487 0.000104250034025906 8.55557571908738e-05 7.08910367622539e-05 -0.000596263606852363 0.000272027433574051 -0.000394574085803947 -0.000187232487942553 0.000872229059276011 -0.000100058936799279 0.000621633063347429
"335" 9.12666008004194e-05 0.000126985705174624 0.000227394079344129 0.000163293121348385 5.37947308208126e-05 0.000145010906819977 0.000123283496276563 0.000109408479926045 0.000144254653480207 -0.000570335408982009 0.000272430620298561 -0.00040766980433571 -0.000197507088569483 0.000757004521051147 -9.39519768256704e-05 0.000552157062162172
"336" 0.000104853723152986 0.000134601467585603 0.000250620592015181 0.00017487995299997 6.87684924422038e-05 0.000162774929814006 0.000142229536935347 0.000133452538820889 0.000208287448803453 -0.000537586488250754 0.000272349010077562 -0.000419703762942607 -0.000207119950797117 0.000629703913342999 -8.84546541136101e-05 0.000476509874985799
"337" 0.000116715461628396 0.000141637446053236 0.000272397760758138 0.000185244685225405 8.32107102636124e-05 0.000179714609486962 0.000161003225582393 0.000157577680690919 0.000263160468987015 -0.000498105523796738 0.00027176720176688 -0.000430646688906262 -0.000216053428512488 0.000490970795796045 -8.36347570439168e-05 0.000395496330935876
"338" 0.000126808006891139 0.000148086133666151 0.000292616250057799 0.000194346717376096 9.70260604660563e-05 0.000195722181372154 0.000179518097826126 0.000181670664942593 0.000309165105885512 -0.000452058819676281 0.000270673330352084 -0.000440483154061422 -0.000224299772952182 0.000341572640067182 -7.9563132853266e-05 0.000309963021563649
"339" 0.000135094315363165 0.000153951824909334 0.000311178424468222 0.000202159046947979 0.00011011194107417 0.000210696213818379 0.000197683531079819 0.000205602809825274 0.000346721394408357 -0.000399705977925022 0.000269060141537842 -0.000449215926327464 -0.000231860690159136 0.000182401056759876 -7.63093413351964e-05 0.000220810249076691
"340" 0.000141551924529296 0.000159233912701922 0.000327993076932701 0.00020866072045085 0.000122374233071817 0.0002245345050056 0.000215400043222911 0.000229229708502698 0.000376341211978463 -0.000341388018231611 0.000266915515505211 -0.000456862911633741 -0.000238747402716024 1.44698057410312e-05 -7.39457286259204e-05 0.000128955562811507
"341" 0.000146162946819484 0.000163937674214691 0.000342972906577017 0.000213841776671781 0.00013371701692801 0.00023713796719353 0.000232559443924872 0.000252403184738906 0.000398642952299727 -0.000277527812807695 0.0002642406474145 -0.000463456761578147 -0.000244981187866088 -0.000161100624704653 -7.25379199097372e-05 3.53492185772373e-05
"342" 0.000148927319923259 0.000168070887030005 0.000356043155756701 0.000217700120184305 0.000144044161681145 0.000248416014381904 0.000249047826367411 0.000274951631525016 0.000414312788282835 -0.000208630809748977 0.000261033976735288 -0.000469049424182764 -0.000250589052818797 -0.000343074452339846 -7.21575035231914e-05 -5.90621570740624e-05
"343" 0.000149852172607361 0.00017163866783798 0.000367133341078567 0.000220250526531945 0.000153262926002998 0.000258287873999333 0.000264749520677007 0.000296708103339237 0.000424107774003844 -0.000135275474085141 0.000257297899517038 -0.000473703486825421 -0.000255613922246316 -0.000530124833449386 -7.28677623137924e-05 -0.000153325383982911
"344" 0.000148959581912998 0.000174651536972597 0.000376187473332926 0.000221506459162979 0.000161288986142409 0.00026666975689897 0.000279541341556324 0.000317492366873665 0.000428833186223719 -5.81093607107335e-05 0.000253038305591991 -0.000477501727724627 -0.000260097241234433 -0.000720834354273476 -7.47321696274516e-05 -0.000246498106349012
"345" 0.000146275375834945 0.000177117708853405 0.000383153744839826 0.000221496400751243 0.000168036846714326 0.000273494160742969 0.00029329289606747 0.000337109059026329 0.000429331862194938 2.21565654024769e-05 0.000248264357674074 -0.00048053615235142 -0.000264097335071992 -0.000913709467754609 -7.78150118922275e-05 -0.000337660090498169
"346" 0.00014184012007631 0.000179046533211662 0.000388000170709872 0.000220257376934388 0.000173431819320239 0.000278700412049219 0.000305882263491446 0.000355373751689948 0.000426461556079259 0.000104759222697177 0.000242985737973651 -0.000482913584458291 -0.000267670787169275 -0.00110720117344861 -8.21744875111103e-05 -0.000425922608983737
"347" 0.000135706707216099 0.000180448416670997 0.000390695390474657 0.000217833150436249 0.000177401818047882 0.000282239169088019 0.000317179786925996 0.000372091883232173 0.000421089055797796 0.000188886048160811 0.000237217240484063 -0.000484752218680377 -0.000270887516349592 -0.0012997117789327 -8.78655420962068e-05 -0.000510428316798607
