"V1" "V2" "V4" "V5" "V7" "V8" "V10" "V11" "V13" "V14" "V15" "V17" "V18" "V20" "V21" "V23"
"1" -0.000198317032814029 -0.000276278234520001 0.000132839302066838 -0.000356143811929645 0.000304963986808934 -0.000252445101500351 0.00041851893194157 -0.000357114136274096 -0.000174180867351762 0.000187374720423078 -0.000225435497337536 -0.00288707545718778 -0.00228185688347994 -0.000412542156180942 -0.00160290099839748 -0.00139374701156599
"2" -0.00021680758829457 -0.00030222347448747 0.000115821783126843 -0.000366893865233633 0.000302439081454525 -0.000258653529060525 0.000408354354833046 -0.000356383845311987 -0.000165348172639867 0.000251538154592896 -0.000211408672648418 -0.00296232568748107 -0.0023380457072621 -0.000391988554381883 -0.00161605370158361 -0.00139685900305711
"3" -0.00023425159750691 -0.000329092414777373 9.91771494653024e-05 -0.000377489647247361 0.000299552680762611 -0.000264821563222152 0.000397980341719377 -0.000357346856742639 -0.000153155653164778 0.000325046684014286 -0.000198631122248728 -0.00303646783891207 -0.00237816214849492 -0.000371726493427396 -0.00161462936144747 -0.00138385752593868
"4" -0.000250650251157625 -0.000356751640219085 8.29350680045736e-05 -0.000387905102613186 0.000296279980310037 -0.000270967021399041 0.00038739089443885 -0.000360068952453028 -0.000137832640448486 0.000407962427019509 -0.000187107788197291 -0.00310920611859502 -0.00240101724416052 -0.000351825287717225 -0.00159842061134951 -0.00135482602765851
"5" -0.000266000255726451 -0.000385053694828275 6.7129963826801e-05 -0.000398121015152859 0.000292608321599365 -0.000277099706693319 0.000376598335522311 -0.00036459220170296 -0.000119632564528498 0.000500277019724394 -0.000176829611407405 -0.00318026643091747 -0.00240554616384352 -0.000332364201095001 -0.0015674244347566 -0.0013100307889458
"6" -0.000280301615877292 -0.000413838792554031 5.17958365276151e-05 -0.000408102720210628 0.000288526899861302 -0.000283235740048573 0.000365611575722768 -0.000370939173416096 -9.88282929971436e-05 0.00060192717597376 -0.000167778687107513 -0.00324940629910866 -0.00239081685150035 -0.000313401894576472 -0.00152182208426435 -0.00124990899144487
"7" -0.000293555849387282 -0.000442943976288544 3.69546232782454e-05 -0.00041782071297458 0.000284033456425939 -0.000289380527350394 0.00035445613521851 -0.000379112349868799 -7.57204744254058e-05 0.000712801101342271 -0.00015992571765476 -0.00331640671451446 -0.00235606066058371 -0.000294996337346761 -0.00146198717400422 -0.00117507509334129
"8" -0.000305770502528595 -0.000472195720659822 2.26428428613436e-05 -0.000427236159910579 0.000279132702183635 -0.000295542557955325 0.000343162211149529 -0.000389096409102354 -5.06101806691573e-05 0.000832719654885787 -0.000153229391179728 -0.00338106874668227 -0.00230065104657729 -0.000277199459657443 -0.00138845131411687 -0.00108631235475338
"9" -0.000316944268085738 -0.000501415897544705 8.88519695391876e-06 -0.000436310368226311 0.00027384160969378 -0.000301721501504599 0.000331773178524109 -0.00040084481405908 -2.38237802819143e-05 0.000961458668676231 -0.000147639109001168 -0.00344321565826067 -0.002224140182606 -0.000260048482730755 -0.00130191022759835 -0.000984560430018262
"10" -0.000327086145759847 -0.000530421874340063 -4.29191954542799e-06 -0.000445004316029934 0.000268179100438225 -0.000307914929836628 0.000320334135093018 -0.000414303228206411 4.30841261227003e-06 0.00109875021184635 -0.000143098824685211 -0.00350267343244125 -0.00212625728058433 -0.000243583915895827 -0.0012031871176105 -0.000870915867108691
"11" -0.000336202438872256 -0.000559034149952641 -1.68589820760268e-05 -0.000453271799179843 0.000262177751373064 -0.000314120587149704 0.000308896157520376 -0.000429390212390942 3.34496938499693e-05 0.00124426595121231 -0.000139541830250266 -0.00355929864979476 -0.00200691675644054 -0.000227829817662974 -0.00109321560955399 -0.000746613496101778
"12" -0.000344301104203978 -0.00058706986290837 -2.87885188815007e-05 -0.000461069500416462 0.000255872975543313 -0.000320327878696531 0.00029751754839033 -0.000446005707543142 6.32630232129538e-05 0.00139763592638036 -0.000136898363765726 -0.0036129309987738 -0.00186622703418953 -0.000212812573182094 -0.000973028232368206 -0.000613023834433731
"13" -0.000351392868444815 -0.000614347221276784 -4.00560193519239e-05 -0.000468354942382654 0.00024930803419012 -0.000326526342073209 0.000286261503480381 -0.000464035273157746 9.34066470601734e-05 0.00155845469517837 -0.000135085187895076 -0.00366340386762462 -0.00170451176209697 -0.000198547708603886 -0.000843722828639932 -0.000471631075453199
"14" -0.00035749169574423 -0.00064069418562921 -5.06345778729343e-05 -0.000475081914549706 0.000242536964035203 -0.00033270412069688 0.00027518733738095 -0.000483345005785696 0.000123547430467076 0.00172625572715975 -0.000134018002040169 -0.0037105453168473 -0.00152229420353718 -0.000185053558811177 -0.000706443729161086 -0.00032401647681824
"15" -0.000362608082833702 -0.000665941787221672 -6.05001552569713e-05 -0.000481205551241486 0.000235614595981413 -0.000338836596429668 0.000264364195769277 -0.000503791121409834 0.000153358588641277 0.00190053824096967 -0.000133606026302021 -0.00375415178908658 -0.0013203269574702 -0.000172332093385341 -0.000562373503740363 -0.000171846660112718
"16" -0.000366760523385838 -0.000689927306055438 -6.96289439065506e-05 -0.000486685187839903 0.000228600940007662 -0.000344905373070712 0.000253862273844959 -0.000525209541096097 0.000182523637702542 0.00208075372522073 -0.000133755633659818 -0.00379399065524506 -0.00109958376749119 -0.000160394431651748 -0.00041269736642996 -1.68517434425518e-05
"17" -0.00036996459000242 -0.00071250030433788 -7.79948107682966e-05 -0.000491481028544543 0.000221564276866152 -0.000350885460372968 0.000243744469059223 -0.000547428663109803 0.000210739987321743 0.00226630469414461 -0.000134368995654644 -0.00382980494290072 -0.000861262246864665 -0.000149237775933879 -0.000258614307455652 0.0001391979067461
"18" -0.000372244518836778 -0.000733521761815265 -8.55843286465481e-05 -0.000495554842525899 0.000214573198096456 -0.00035674673014101 0.000234076098247709 -0.000570270317446296 0.000237720397474856 0.00245656055851642 -0.000135343296636133 -0.0038612663506936 -0.000606786353870044 -0.000138859910822737 -0.000101297201333813 0.000294509642874356
"19" -0.000373621672049083 -0.000752864123917895 -9.23694591854503e-05 -0.000498874326554487 0.000207703782051626 -0.000362462507041037 0.000224924133385184 -0.000593541187721362 0.000263191756570705 0.00265084282940187 -0.000136577483004811 -0.00388801956647553 -0.000337810601652735 -0.000129251708037524 5.80920827963288e-05 0.000447294530588894
"20" -0.000374123705294904 -0.000770413571169149 -9.83361743684503e-05 -0.000501406486157869 0.000201022574258492 -0.000367994578589851 0.000216350919066098 -0.00061704680786711 0.000286912003911409 0.00284842835545858 -0.000137964207905335 -0.00390964039707002 -5.61940656250894e-05 -0.00012040780648505 0.000218432171698288 0.000595787213294795
"21" -0.00037378315132575 -0.000786069446434745 -0.000103473404878578 -0.000503130460120995 0.000194612458881206 -0.000373308433561402 0.000208411939080763 -0.000640590515387907 0.000308645682009624 0.00304854759595911 -0.000139398927917455 -0.00392566079972685 0.000235988422704166 -0.000112310631857572 0.000378627221609703 0.000738268082567491
"22" -0.000372624373907661 -0.000799749721695689 -0.000107764426984742 -0.000504022519154031 0.000188540573003017 -0.000378367413045326 0.000201163040237595 -0.000663970932988404 0.000328197331574061 0.00325038435393897 -0.00014077572203109 -0.00393555108688082 0.000536454667644238 -0.00010494385945333 0.000537630219153499 0.000873096200650985
"23" -0.000370693997033046 -0.000811387919119023 -0.000111208610258329 -0.0005040695375841 0.000182884456016433 -0.000383131823087861 0.000194656068805329 -0.000686988654854715 0.000345381635407812 0.00345306917010452 -0.000141989533635664 -0.00393872143924962 0.000842748967498853 -9.82969872559866e-05 0.000694428250769779 0.000998715564852245
"24" -0.00036802252013479 -0.000820936086495415 -0.000113797449970284 -0.000503265312382883 0.000177714427398126 -0.000387557594505095 0.000188935287023842 -0.000709445080019606 0.000360047530765867 0.00365567428865779 -0.000142938441583989 -0.00393451741477172 0.00115223705375319 -9.23392449559842e-05 0.000848058615624433 0.00111370005431792
"25" -0.000364659279801407 -0.000828358449303495 -0.00011553308615165 -0.00050160258983778 0.000173100854775927 -0.000391606572477011 0.000184039950437814 -0.000731145597392615 0.000372067149502172 0.00385721410630524 -0.000143519297684931 -0.00392224448737551 0.00146216524930234 -8.70544969157653e-05 0.000997598550704518 0.00121675071027416
"26" -0.00036064463356347 -0.000833643037285415 -0.00011642319080552 -0.000499086212509896 0.000169100466563242 -0.000395233672796132 0.000180009607614695 -0.000751908521512016 0.000381337491941267 0.0040566467821783 -0.000143638061199519 -0.00390116154808225 0.00176966150472202 -8.24194276808248e-05 0.0011421778494693 0.00130672774481857
"27" -0.000356029781794374 -0.000836793634569422 -0.000116480605169035 -0.000495724637250187 0.000165779063222702 -0.000398394291808542 0.000176873093227243 -0.0007715467307752 0.000387782827674789 0.00425287099945955 -0.000143201785561055 -0.00387047998783551 0.00207177447748721 -7.84148625378876e-05 0.00128095771319368 0.00138266650654449
"28" -0.000350863022949043 -0.000837828047185921 -0.000115721976573305 -0.000491537954582377 0.000163191390056775 -0.000401049342510278 0.000174649747692763 -0.000789896689725865 0.000391354254383968 0.00444472572578311 -0.00014212340468241 -0.00382940606564855 0.00236552612181077 -7.50101811526157e-05 0.00141315571168947 0.00144379147031604
"29" -0.000345196389481393 -0.000836790113512746 -0.000114170741772316 -0.000486546686530728 0.000161378026894348 -0.000403153994059115 0.000173366392952708 -0.000806799900912218 0.000392032146628244 0.00463098982060385 -0.000140321608003027 -0.00377711199472051 0.00264794137378767 -7.21918980688683e-05 0.00153803063165056 0.00148952168439477
"30" -0.000339087918097686 -0.00083372905222012 -0.000111856062018719 -0.000480779988030281 0.000160387652302918 -0.000404669426742232 0.000173032402596425 -0.000822111510440817 0.000389816837880238 0.00481038328850849 -0.000137723585621177 -0.00371278121180229 0.00291608623928691 -6.99302009225997e-05 0.00165488278651378 0.0015194769829623
"31" -0.000332594298606884 -0.000828721987276804 -0.000108809817484966 -0.000474274515139365 0.000160249121748862 -0.000405553870673631 0.000173657584469278 -0.000835701008058343 0.000384739004737173 0.00498157581801204 -0.000134259871004319 -0.00363559530966158 0.00316713427066656 -6.82061020729339e-05 0.00176306591137951 0.00153348525008415
"32" -0.000325763393015423 -0.000821853271488289 -0.000105078378650807 -0.000467067619682854 0.000160991426688298 -0.00040577494424803 0.000175243931816814 -0.000847456676379442 0.000376854409314251 0.00514317633703269 -0.000129874329619161 -0.00354478033529277 0.00339840318570766 -6.70082498680301e-05 0.00186197167873937 0.0015315766251886
"33" -0.000318658495763485 -0.00081322617054259 -0.000100707266623146 -0.000459209822109202 0.000162632952467733 -0.000405296794966948 0.000177786054368897 -0.000857278347076983 0.000366243935322753 0.00529376228556152 -0.000124518229355986 -0.00343959950766083 0.00360739984055573 -6.63102411283031e-05 0.0019510568167812 0.00151398997400941
"34" -0.000311331434962551 -0.000802955142721905 -9.57472661282121e-05 -0.000450752205621795 0.000165179792504592 -0.000404089302303487 0.00018127583774133 -0.000865088994370465 0.00035301043626685 0.00543187577183988 -0.000118150418959739 -0.00331937816890087 0.00379188494874066 -6.61036663288151e-05 0.00202981887389012 0.00148115626312529
"35" -0.000303836740403513 -0.000791170590458068 -9.02557052659112e-05 -0.000441749642263927 0.000168638145282464 -0.000402126930691978 0.00018570275722249 -0.000870830475111895 0.000337289637996194 0.00555603601314407 -0.000110744707770025 -0.00318352243632149 0.00394989508507263 -6.63760515820461e-05 0.00209782218323452 0.00143368897010742
"36" -0.000296231634322019 -0.00077801184072395 -8.42969579511211e-05 -0.000432266507038102 0.000172994057166806 -0.000399387340375376 0.000191045475348121 -0.000874458722114705 0.000319229545726864 0.00566475891391913 -0.000102279724172483 -0.00303154592145517 0.00407979759442287 -6.7112556773354e-05 0.00215468845672733 0.00137237194426622
"37" -0.000288562449045526 -0.000763628186283089 -7.79374519285025e-05 -0.000422366554245287 0.000178236082393438 -0.00039585590134888 0.000197282608985407 -0.000875956209236684 0.000299013027644414 0.00575656369317563 -9.27456264640596e-05 -0.00286306289317384 0.0041803172452017 -6.83129896266002e-05 0.0022001124103226 0.00129814416778485
"38" -0.000280878155820744 -0.000748177937963046 -7.12466702479025e-05 -0.000412120110653547 0.000184334637488956 -0.000391518927238271 0.000204378262509761 -0.000875321891383716 0.000276838460879127 0.0058300076395544 -8.21466446789625e-05 -0.00267781215719916 0.00425054643286909 -6.99607416338308e-05 0.00223386386167722 0.00121208511283889
"39" -0.000273228458800072 -0.000731828148508381 -6.43006784424858e-05 -0.000401597897196153 0.000191258507607702 -0.000386371505581026 0.000212304998554135 -0.000872576432134079 0.000252924474454009 0.00588368374337772 -7.04912918844307e-05 -0.00247567661452827 0.00428998630495827 -7.2057523949383e-05 0.0022557927425375 0.00111539397503365
"40" -0.000265654557226197 -0.000714749714659426 -5.71741635203782e-05 -0.000390877033772245 0.000198961251611365 -0.000380415361468855 0.000221017923812472 -0.000867758531496844 0.000227514403374148 0.00591624982165021 -5.78050717780332e-05 -0.00225669760306513 0.0042985548044083 -7.46023455362816e-05 0.00226584133211413 0.00100936790134271
"41" -0.000258197294999752 -0.000697120955387067 -4.99534591351215e-05 -0.000380032197545863 0.000207392885038104 -0.000373654999325936 0.000230473101299414 -0.00086092960159162 0.000200869532691808 0.00592645574823489 -4.41194496143276e-05 -0.00202106968836366 0.00427657238271489 -7.75930634901585e-05 0.00226404524847976 0.000895397611104514
"42" -0.000250892369482187 -0.000679117847334096 -4.27137390421859e-05 -0.000369145567345376 0.000216491466595517 -0.000366103315174287 0.000240621493100189 -0.000852165907382798 0.000173258927998946 0.0059131672743388 -2.94763420873425e-05 -0.0017691517867599 0.00422476032265966 -8.10257058840715e-05 0.0022505425347926 0.000774930184389448
"43" -0.000243775193024378 -0.000660921492681598 -3.55431723464386e-05 -0.000358292391373466 0.00022618811315937 -0.000357783566924421 0.00025140217350484 -0.000841566189879195 0.000144982391403213 0.0058753847273372 -1.39278198460983e-05 -0.00150149963414863 0.00414423741726679 -8.49023870499621e-05 0.00222557550033028 0.000649463397914177
"44" -0.00023687453419261 -0.000642709615271291 -2.85256610026576e-05 -0.00034755218106861 0.000236409805605052 -0.000348717697782622 0.000262759878971057 -0.000829246056909501 0.000116339555930926 0.00581226182978128 2.46457929406116e-06 -0.00121881474925349 0.00403646228798597 -8.92139309825167e-05 0.00218949824566836 0.000520523714816892
"45" -0.000230222694433455 -0.000624660101249259 -2.17445653398254e-05 -0.000337005858544258 0.000247071365124001 -0.000338943322068222 0.000274622682574128 -0.000815331928228262 8.76425542042043e-05 0.00572313426603057 1.96283664748863e-05 -0.000922009522898946 0.00390323761591291 -9.39669060779584e-05 0.00214277366431531 0.000389662818933348
"46" -0.000223836980582757 -0.000606944901292931 -1.5282754512219e-05 -0.00032673023921063 0.000258082079384316 -0.000328496266711862 0.000286922741890499 -0.000799973770084373 5.92133164553955e-05 0.00560753288734295 3.74877941097069e-05 -0.000612173424527914 0.00374665885523396 -9.91528564012575e-05 0.00208597580355412 0.000258419474246062
"47" -0.000217747095159934 -0.000589733661537806 -9.22534405646395e-06 -0.000316801917640271 0.000269346360627919 -0.000317422630988559 0.000299579935478777 -0.000783323949731782 3.1382292104648e-05 0.00546520092882929 5.59543305019582e-05 -0.000290570539361999 0.00356906490627645 -0.000104764447301364 0.00201979542281927 0.000128327468601778
"48" -0.000211964037974362 -0.000573183538208934 -3.65003853785314e-06 -0.000307294159757336 0.000280765684144891 -0.000305776391212449 0.000312509328877443 -0.000765556282474332 4.47525547078473e-06 0.00529610419886599 7.49371194341953e-05 4.13498589193949e-05 0.00337300939426873 -0.000110788777212684 0.00194502152982565 8.92934156757262e-07
"49" -0.00020651163573068 -0.000557448079972701 1.35835483035193e-06 -0.000298277825525718 0.000292232864497667 -0.000293615141730986 0.000325630299814866 -0.000746848932501462 -2.11787618779555e-05 0.00510043834538806 9.43354909773517e-05 0.000381961265661743 0.00316121662016719 -0.000117213502772525 0.0018625370317633 -0.000122417023627073
"50" -0.000201401357000872 -0.00054266856964544 5.73080988763961e-06 -0.000289817541887327 0.000303641109032161 -0.000281000016000796 0.000338845476777264 -0.000727387847471519 -4.5260892665093e-05 0.00487864146170417 0.000114044135857133 0.000729478229397473 0.00293652616656559 -0.000124021784856063 0.00177332379101956 -0.000240179701745481
"51" -0.000196640838072146 -0.000528975299844972 9.39580052649978e-06 -0.000281978396831393 0.000314876914137883 -0.000268002465634252 0.000352059483546127 -0.000707366703304764 -6.74591350186038e-05 0.00463138291268438 0.000133951151629338 0.00108196225395286 0.00270186134671304 -0.000131187859108966 0.00167843198049269 -0.000351031482213588
"52" -0.000192244722482376 -0.000516484877592627 1.22849619718081e-05 -0.000274816265461023 0.000325834167152797 -0.000254691915791651 0.000365173179296692 -0.0006869795334343 -8.74740914755027e-05 0.00435957025431997 0.000153944690445834 0.00143732705304236 0.00246018082486852 -0.000138682229196244 0.00157897706095286 -0.000453672596927065
"53" -0.000188218467609062 -0.000505298706374309 1.43410592047075e-05 -0.00026838141320424 0.00033639601093732 -0.000241147945879626 0.000378084139279943 -0.000666426471053935 -0.000105018458145205 0.00406431157915644 0.000173903038557512 0.00179334889334161 0.00221444416650801 -0.000146470381637916 0.00147611628286426 -0.000546883951536027
"54" -0.000184561750503747 -0.000495506632208229 1.55044655407503e-05 -0.000262716358553697 0.00034645311183004 -0.000227447771429403 0.000390683594728181 -0.000645904264423758 -0.000119834229731981 0.00374692115147242 0.000193705075032965 0.00214769271658958 0.00196757365883254 -0.000154515158900921 0.00137102998954212 -0.00062952880061479
"55" -0.000181283959593046 -0.00048718070906856 1.57355356140782e-05 -0.000257858597239532 0.000355902461390493 -0.000213672658148292 0.000402866883098041 -0.000625603634486966 -0.000131681964877659 0.00340889487960839 0.000213227815890055 0.0024979206953273 0.00172241699150813 -0.000162767132419822 0.00126490001059705 -0.000700554437188972
"56" -0.00017838164419976 -0.000480374021797502 1.49938877661297e-05 -0.000253836235469157 0.000364632470302232 -0.000199908501835476 0.000414524113992892 -0.000605715750325162 -0.000140350779696242 0.00305188501496165 0.000232342969150718 0.00284150000056572 0.00148172953338719 -0.00017117788806748 0.00115889596488164 -0.000759018044549839
"57" -0.000175850024648144 -0.000475126198931689 1.32468454081274e-05 -0.000250668329608197 0.000372548002806051 -0.000186240264422936 0.00042554292413749 -0.000586421976934686 -0.000145658101848324 0.00267768610262505 0.000250925159313883 0.0031758471406665 0.00124814090382064 -0.00017968693742772 0.00105413794006932 -0.000804085782405585
"58" -0.000173686967919825 -0.000471457373343946 1.04742591719652e-05 -0.000248367622014114 0.000379557791022065 -0.000172749850968086 0.000435820720262974 -0.000567893824626812 -0.000147453291525198 0.00228819742873604 0.000268844191159896 0.00349832858532395 0.00102414092264128 -0.000188237002028961 0.000951679559633555 -0.000835041956587971
"59" -0.000171881816109163 -0.000469365876738939 6.6676755620885e-06 -0.000246936011048593 0.000385570729199294 -0.000159525322839671 0.000445248133951071 -0.00055029322206225 -0.000145631359174048 0.00188540725212675 0.000285972918511279 0.00380628987549943 0.000812055572349844 -0.000196756972498755 0.000852493804855783 -0.000851292180127383
"60" -0.000170421769441668 -0.000468836805027962 1.82767965784673e-06 -0.000246362136695375 0.000390511872546533 -0.000146645455170695 0.000453723368573494 -0.000533767070213133 -0.000140112818955386 0.00147135826137766 0.000302185510275954 0.00409709123308795 0.000614033312292927 -0.000205181773611926 0.000757451500515077 -0.000852390935545819
"61" -0.000169296299518453 -0.000469834321511685 -4.03673750786702e-06 -0.000246631168126179 0.000394313794100605 -0.000134195118091461 0.000461142731285349 -0.00051845169677805 -0.000130868461017402 0.00104812833397678 0.000317350503169609 0.00436811006047835 0.0004320261932279 -0.000213433620086331 0.000667304085358376 -0.000838034078064873
"62" -0.000168483531636166 -0.000472307011048528 -1.09056276151104e-05 -0.00024771396122502 0.000396917884511376 -0.000122250188955207 0.000467412079369592 -0.000504463887913137 -0.000117905647361752 0.000617812524686886 0.000331350116235346 0.00461678912408313 0.000267782991691419 -0.000221440666603837 0.000582670541118545 -0.00080808004766182
"63" -0.00016796017198258 -0.00047618541205656 -1.87390641862338e-05 -0.000249572354811167 0.000398278186642117 -0.000110883226224768 0.000472442245672598 -0.000491900634955988 -0.000101276023194331 0.000182489602885901 0.000344061314652637 0.0048406637836294 0.000122835905975714 -0.000229125964635036 0.000504025448573867 -0.000762546776685915
"64" -0.000167706769129595 -0.000481385452746001 -2.74983788696972e-05 -0.000252162636968578 0.000398359105827824 -0.000100165194747158 0.000476152087152341 -0.00048084703332638 -8.10701839292911e-05 -0.000255791296067023 0.000355362940688278 0.00503737914025993 -1.49711458061864e-06 -0.000236415746631497 0.000431694363732473 -0.000701634315763105
"65" -0.00016768779017721 -0.000487800972781426 -3.71265913576884e-05 -0.000255425399595685 0.000397135393709382 -9.01608170580984e-05 0.000478464168019195 -0.000471363564796584 -5.74310806505912e-05 -0.000695027854961193 0.000365145322172074 0.00520473217801252 -0.000104137210044038 -0.000243230246234553 0.000365849477190869 -0.000625724418453795
"66" -0.000167876835128446 -0.000495319071627235 -4.75519977490574e-05 -0.000259296106642774 0.000394605885615005 -8.0925777766745e-05 0.000479310905977115 -0.000463493228325228 -3.05338650218781e-05 -0.00113326975648333 0.000373295375788269 0.00534070051808617 -0.000184241460628429 -0.000249497767953848 0.000306518759872469 -0.000535392474304186
"67" -0.000168232515729833 -0.000503812520944521 -5.86999427713043e-05 -0.000263704213880594 0.000390762723626849 -7.25174374459158e-05 0.00047864057675865 -0.000457255592911819 -6.00597015268704e-07 -0.0015686432046885 0.000379715386769894 0.00544345751414036 -0.000241204522008529 -0.000255143553242094 0.000253583302072451 -0.000431399069436218
"68" -0.0001687258551643 -0.000513138480994365 -7.04792308249698e-05 -0.000268564652368578 0.000385630968486695 -6.49765810088071e-05 0.000476402510062776 -0.000452653296337308 3.21113331760311e-05 -0.00199934968182722 0.000384303321165236 0.00551142484756435 -0.000274660663189678 -0.000260102363658419 0.000206790420541511 -0.000314706392367395
"69" -0.000169306880482124 -0.000523151083277325 -8.27937318901957e-05 -0.000273792140830241 0.000379234283491398 -5.83397775655221e-05 0.000472565846123154 -0.000449664432312789 6.73029541856823e-05 -0.00242367617819824 0.000386973208530197 0.00554328455889647 -0.00028449492871005 -0.000264311371410855 0.000165763689757167 -0.000186468171893154
"70" -0.000169934956530598 -0.000533689804994957 -9.55403601889718e-05 -0.00027929338574358 0.000371611566460347 -5.26418940793906e-05 0.000467097404424951 -0.000448251295826329 0.000104644643941007 -0.00284000193384345 0.000387638665988243 0.00553799895801957 -0.000270836352291831 -0.00026770684356866 0.000130021318218575 -4.80269924749417e-05
"71" -0.000170567364395392 -0.000544589431925031 -0.0001086003266013 -0.000284967694551638 0.000362824324338958 -4.79019027377868e-05 0.000459990660989326 -0.000448354301877564 0.000143771561096496 -0.00324678794925334 0.000386232820860264 0.00549484892636673 -0.000234059444783307 -0.000270238191687315 9.89846720427998e-05 9.90945933800822e-05
"72" -0.000171155508433429 -0.000555682944803166 -0.00012185175498252 -0.000290715985389172 0.000352929394956914 -4.4132287181875e-05 0.0004512428219779 -0.000449894452932573 0.000184292443549764 -0.00364258355910784 0.00038268554817784 0.00541343942257967 -0.000174790307132524 -0.000271854774475414 7.20027085423121e-05 0.000253199559946665
"73" -0.000171649540020805 -0.000566799902916316 -0.000135171142113658 -0.000296430028174703 0.000342008760600084 -4.13388513703092e-05 0.000440867108270726 -0.000452775420262504 0.000225791734520175 -0.00402603991624592 0.000376949600976026 0.00529370279759085 -9.38962200916869e-05 -0.000272515805630253 4.83734525871363e-05 0.000412441089415608
"74" -0.000172007750868215 -0.000577764925649558 -0.000148424678291806 -0.000302004174336155 0.000330143010208048 -3.95198442632866e-05 0.000428879465901365 -0.000456886178564185 0.000267834821934699 -0.00439588215850771 0.000368982796307958 0.00513593215349 7.50356909764885e-06 -0.000272180600640962 2.73435090654598e-05 0.000574835733183477
"75" -0.000172179765962168 -0.000588410426765139 -0.000161482923489226 -0.0003073299481909 0.000317432070383075 -3.8659130126624e-05 0.000415320396505255 -0.000462096829752792 0.000309969124152633 -0.0047509327036954 0.00035875125180202 0.00494075982784045 0.000128063223840745 -0.000270827085563953 8.14824249553035e-06 0.000738299119567855
"76" -0.000172124868993944 -0.000598566359240733 -0.000174212171147707 -0.000312297953424946 0.000303977125321562 -3.87402328461748e-05 0.00040023172814583 -0.000468268714532094 0.000351730241680081 -0.00509008976773381 0.000346242649186073 0.00470917554336093 0.000266200808520002 -0.000268424989343989 -9.98210184895643e-06 0.000900670485991085
"77" -0.000171792569299516 -0.000608070223633793 -0.000186472839300875 -0.00031680530140838 0.000289884588153499 -3.97309033532649e-05 0.000383671443473818 -0.000475247417031716 0.0003926491569056 -0.00541233198333319 0.000331453956391239 0.00444251210137453 0.000420119530239512 -0.000264960540191636 -2.78127955674296e-05 0.00105973240604425
"78" -0.000171146108251247 -0.000616766242101294 -0.000198136351758682 -0.000320744721982716 0.00027527557488398 -4.15946611437648e-05 0.000365704230813565 -0.000482872930804309 0.000432258898765116 -0.00571671577281164 0.000314398227410334 0.00414243666917695 0.000587815691551419 -0.000260419580381052 -4.60718317463677e-05 0.00121326097381327
"79" -0.000170153382969606 -0.000624503974232495 -0.000209073112697058 -0.000324020420579566 0.000260268753869472 -4.42883422491043e-05 0.000346408907629536 -0.000490971931480869 0.000470090098765718 -0.00600236414707387 0.000295099716388591 0.00381092938502989 0.000767093591945776 -0.000254799523365123 -6.54595366821137e-05 0.00135905915677067
"80" -0.00016877248172815 -0.000631146426847713 -0.000219156561715191 -0.000326537597207558 0.000244989793636446 -4.77574705331739e-05 0.000325868910895503 -0.000499369434092612 0.000505692023942326 -0.00626847899734518 0.000273601240213737 0.00345026820077703 0.000955583981389641 -0.000248098281491798 -8.66181607144808e-05 0.00149499477409424
"81" -0.000166986421490112 -0.000636565808433579 -0.00022827270996165 -0.000328204683258751 0.000229559521042464 -5.19439619295336e-05 0.000304174827656807 -0.000507887464740052 0.000538619234382974 -0.00651433382197367 0.000249960982469767 0.00306299945362949 0.00115077788351559 -0.00024032355097679 -0.00011013942123563 0.00161903950342008
"82" -0.000164766038162498 -0.000640647411805057 -0.000236310530570959 -0.000328941372931381 0.00021410442144849 -5.67805808152462e-05 0.000281427796041393 -0.000516343464003107 0.000568448065054079 -0.00673926420266753 0.000224256714155353 0.00265192100590518 0.0013500334687565 -0.000231487166284705 -0.000136545703919737 0.00172930241102017
"83" -0.00016210129050853 -0.00064328901955369 -0.000243166420522224 -0.000328672372831801 0.000198752851204136 -6.22001615187169e-05 0.000257738360488419 -0.000524555102873941 0.000594782019588383 -0.00694267997493894 0.000196570393889766 0.00222004101290877 0.00155062493468048 -0.000221610783759684 -0.000166280056256953 0.00182407574293864
"84" -0.000158978832799744 -0.000644404788907272 -0.000248753387326922 -0.000327335367940377 0.000183626744672469 -6.8124431474158e-05 0.000233208909922063 -0.000532343880048854 0.000617247150422344 -0.00712405245628432 0.000167011649405699 0.00177056945259942 0.00174976014554108 -0.000210708592344875 -0.000199710684682964 0.00190186015170617
"85" -0.000155402568595871 -0.000643919895138346 -0.000252988659054253 -0.000324871075025592 0.0001688447736566 -7.44706542746466e-05 0.000207956521782593 -0.000539537789691865 0.000635511998158351 -0.007282931567848 0.000135705027177969 0.00130685077586515 0.00194462434385249 -0.000198813288992136 -0.000237122871152896 0.00196138801361416
"86" -0.000151374110904935 -0.000641782333429078 -0.000255811377289707 -0.000321234525506613 0.000154520586244938 -8.11580993460507e-05 0.000182103330372578 -0.000545967577127742 0.000649271102053929 -0.00741893721426673 0.000102778935687629 0.000832361243053887 0.00213241949072739 -0.000185958310452883 -0.000278711603421382 0.00200165675629135
"87" -0.000146905704058667 -0.000637948582876621 -0.000257168995372541 -0.000316390825889159 0.000140764358921769 -8.80997441084884e-05 0.000155763036466015 -0.000551472683848371 0.000658271559319416 -0.00753176234711317 6.83861233118714e-05 0.000350652085914216 0.00231040022780702 -0.000172179446083853 -0.000324587627524564 0.00202193763569777
"88" -0.000142025046140988 -0.000632397363112752 -0.000257020925850315 -0.000310313689713999 0.000127675581334924 -9.52077176691589e-05 0.000129058144433369 -0.000555905283052629 0.000662296629025445 -0.00762117478436692 3.26916653212111e-05 -0.000134657842462519 0.00247590678655004 -0.000157523346718331 -0.00037477134519253 0.00202178066249787
"89" -0.000136752239933998 -0.000625124635987301 -0.000255346877070575 -0.000302991937522562 0.000115353377411248 -0.000102389224661515 0.000102110589070589 -0.000559124710399441 0.000661176374693378 -0.00768702841940377 -4.12872150336671e-06 -0.000619928958319192 0.0026264308475439 -0.000142035951133485 -0.000429200181721737 0.00200102830514173
"90" -0.00013113244304329 -0.000616139657267174 -0.000252138601138342 -0.000294423891602251 0.000103873640582015 -0.000109558896753436 7.50399013798132e-05 -0.000561010119500632 0.000654795004116218 -0.00772925705878068 -4.18897292618922e-05 -0.00110153737877575 0.00275963358302604 -0.000125772309311639 -0.00048772127558221 0.00195980479831738
"91" -0.000125202432091213 -0.000605468066248922 -0.000247408773175083 -0.000284620305603818 9.3318609005385e-05 -0.000116625033067312 4.79622869334705e-05 -0.000561445097388083 0.000643087558022016 -0.00774788851259365 -8.03912880111068e-05 -0.00157589625953811 0.00287340004808036 -0.000108791262463764 -0.000550109670106537 0.00189850102008854
"92" -0.000119016878526077 -0.000593158017125384 -0.00024117952846986 -0.000273602241921637 8.37498391154925e-05 -0.000123499819807806 2.09928774226648e-05 -0.000560336502171197 0.000626038200141977 -0.00774303827151591 -0.00011942535768572 -0.00203949092790139 0.00296585094961285 -9.11560591441319e-05 -0.000616059183752046 0.0018177767615547
"93" -0.000112626836302322 -0.000579268280313422 -0.000233495842697447 -0.000261407083842023 7.52184928187749e-05 -0.000130102745970374 -5.75903715026213e-06 -0.000557605875706052 0.000603688918742294 -0.00771491756616536 -0.000158777628030334 -0.00248890112829863 0.003035399337105 -7.2935613505958e-05 -0.000685197724757894 0.00171851354237752
"94" -0.000106098790774049 -0.000563875083431636 -0.000224412330827966 -0.000248080387395812 6.77659981849195e-05 -0.000136346940190179 -3.21808797738528e-05 -0.000553192523270128 0.000576132457546384 -0.00766384009176335 -0.000198226018127038 -0.00292082830338457 0.00308076342951639 -5.42070519516233e-05 -0.000757079848345338 0.0016018090429463
"95" -9.94976160593181e-05 -0.000547070347441889 -0.000214001191496227 -0.00023367649780259 6.14203490617303e-05 -0.0001421582435322 -5.81715581213901e-05 -0.000547052132002301 0.000543518104741624 -0.00759022001409182 -0.000237541932544549 -0.00333212782852692 0.00310097662574994 -3.50408855301059e-05 -0.00083121792322195 0.00146894512674113
"96" -9.28966321009487e-05 -0.000528956879074832 -0.000202349048914235 -0.000218264601255392 5.62031411697759e-05 -0.000147462320263913 -8.36366594775089e-05 -0.000539157615349848 0.00050604589536271 -0.00749457576462344 -0.000276494174358213 -0.00371982668851428 0.00309542259641421 -1.55214252269692e-05 -0.000907055596001314 0.00132136259506933
"97" -8.63646891642118e-05 -0.000509655498961484 -0.000189557333732675 -0.000201923571548092 5.21138882645171e-05 -0.000152194955234578 -0.00010848074996249 -0.000529505867281715 0.000463967660285239 -0.00737754206499481 -0.000314854136496826 -0.00408114922970749 0.0030638159262645 4.26604161653607e-06 -0.000984005939700966 0.00116062553518464
"98" -7.9982554901724e-05 -0.000489296956426457 -0.000175744062221246 -0.000184739385294432 4.914796644299e-05 -0.000156291440642473 -0.000132621208616456 -0.000518108519615653 0.000417580064474178 -0.00723985307655202 -0.000352389526842875 -0.00441352923328614 0.00300622393992291 2.42346470117497e-05 -0.00106144163098616 0.000988392683319325
"99" -7.38272137843896e-05 -0.000468021891151301 -0.00016103140350223 -0.000166809033804162 4.72837443261754e-05 -0.00015969974355577 -0.00015598114713318 -0.000504998073780747 0.00036723086514937 -0.00708236157956109 -0.000388870448118471 -0.00471462601125801 0.00292303776258721 4.42935517849081e-05 -0.00113871404738004 0.000806391039952799
"100" -6.7974613718216e-05 -0.000445984161996767 -0.000145558440556547 -0.000148237402261749 4.64896697167588e-05 -0.000162371024257541 -0.000178485395782418 -0.000490225651829598 0.000313302835707868 -0.00690601621592345 -0.000424069811829578 -0.00498234342142756 0.00281496465253765 6.43553243155922e-05 -0.00121515568505071 0.000616396722480582
"101" -6.25036641396528e-05 -0.000423343925807642 -0.000129471229494126 -0.00012913168747606 4.67241202154457e-05 -0.000164268333563503 -0.000200070944948719 -0.000473859435265097 0.000256226130538282 -0.00671187404150387 -0.00045777084001752 -0.00521485584795766 0.00268302023917746 8.43272825391611e-05 -0.00129009285801512 0.000420198374198689
"102" -5.74882830365447e-05 -0.000400267694734572 -0.000112928112019766 -0.000109611454233671 4.79355908523999e-05 -0.000165355554345151 -0.000220681949742042 -0.000455986729307754 0.000196456896185007 -0.00650110290709304 -0.000489759538636424 -0.00541060216228215 0.00252848244740346 0.000104117058014845 -0.00136284822482639 0.000219590209603724
"103" -5.30055051982171e-05 -0.000376931780164683 -9.60857392330499e-05 -8.97941912175091e-05 5.00608353153977e-05 -0.000165612447466612 -0.000240271973151094 -0.000436711013021235 0.00013448873733948 -0.00627495464435923 -0.000519834739048102 -0.00556830055428377 0.00235287425020381 0.000123634865171927 -0.00143275197173095 1.63447391531399e-05
"104" -4.91193952728997e-05 -0.000353515142564295 -7.9116231284379e-05 -6.98040282506617e-05 5.30267731023341e-05 -0.00016502383305268 -0.000258799185014207 -0.000416151826014175 7.08338932139347e-05 -0.00603480230897997 -0.000547803877716707 -0.00568696365422363 0.00215792747355776 0.000142794519431378 -0.00149916046695509 -0.000187796554197366
"105" -4.5901150249823e-05 -0.000330196575014454 -6.21896626266287e-05 -4.97692406219427e-05 5.67540239434203e-05 -0.000163582442306691 -0.000276232099599542 -0.000394444298532361 6.0239791441576e-06 -0.00578208194219865 -0.000573488774990716 -0.00576588041743875 0.00194554771184355 0.000161509175460947 -0.00156144410817088 -0.000391144601603783
"106" -4.34066496205588e-05 -0.000307160219032721 -4.54777963260314e-05 -2.9817873486023e-05 6.11540247970357e-05 -0.000161288822223504 -0.00029254938719235 -0.000371733104854401 -5.9385413814294e-05 -0.0055183458774373 -0.000596722907169485 -0.00580465971394871 0.00171779172498483 0.000179695909006146 -0.00161901509609502 -0.000592061257746372
"107" -4.16953768997377e-05 -0.000284588854608358 -2.91506217063722e-05 -1.00712911899107e-05 6.61329195180072e-05 -0.000158153985966156 -0.000307737959171903 -0.000348179821063297 -0.000124842282782786 -0.00524519980920142 -0.00061735991298346 -0.00580317335162099 0.00147680912080714 0.000197273962615476 -0.00167132173579953 -0.000788968619994699
"108" -4.0815710757751e-05 -0.000262661837444774 -1.33837449415115e-05 9.33772773818935e-06 7.15947006060496e-05 -0.000154194903611417 -0.00032178935094246 -0.000323952621217431 -0.000189782351758499 -0.00496434415944843 -0.00063525642260247 -0.0057615943586917 0.00122481679492391 0.00021418456959025 -0.00171785812112365 -0.000980362290380183
"109" -4.08099012177463e-05 -0.000241554734368933 1.660118837626e-06 2.82908860732436e-05 7.74326641221614e-05 -0.000149439300715778 -0.000334707865362566 -0.000299228291945641 -0.000253649093942908 -0.00467753500534927 -0.000650307394457647 -0.00568038555576462 0.000964080775188746 0.000230344849553864 -0.0017581725278517 -0.00116481016918077
"110" -4.17122823625713e-05 -0.000221438400850058 1.58156189913789e-05 4.6670159943083e-05 8.35409872999362e-05 -0.000143919210510591 -0.000346510002106872 -0.000274191393810743 -0.00031588829159183 -0.00438659706047786 -0.000662408281645797 -0.00556028388491163 0.000696868921679909 0.000245706570950292 -0.00179186771153471 -0.00134095641400815
"111" -4.35545755068527e-05 -0.00020247625943824 2.89261513625379e-05 6.43587393269825e-05 8.98133594683751e-05 -0.000137678135596542 -0.000357212793684027 -0.000249032279286704 -0.00037596304381668 -0.00409339329695851 -0.000671485918695964 -0.00540229308089112 0.000425431150664475 0.000260210986842748 -0.00181861587995283 -0.00150751114513567
"112" -4.63545233770464e-05 -0.000184821937623763 4.08481762771277e-05 8.12480639635368e-05 9.6140865703225e-05 -0.000130761683779452 -0.000366849038913097 -0.000223938558604587 -0.000433354328069267 -0.00379983024763618 -0.000677478592566587 -0.00520767367799477 0.000151972161771089 0.000273811250123676 -0.00183814356606776 -0.00166326953703833
"113" -5.01225742327522e-05 -0.000168617675939324 5.14424317345542e-05 9.72411314494513e-05 0.000102415447195433 -0.000123224573291137 -0.000375454195822564 -0.000199100339973412 -0.000487567280038978 -0.00350783697864385 -0.000680348506932406 -0.00497792954710155 -0.000121366193474038 0.000286470550360065 -0.0018502523321223 -0.00180709644305347
"114" -5.48666066343496e-05 -0.000153994955244841 6.05909648550779e-05 0.000112241570965319 0.000108528829041449 -0.000115125520960896 -0.00038307773771454 -0.000174707136904093 -0.000538132140679526 -0.00321935749305327 -0.000680082473181438 -0.00471480459031246 -0.000392527787834642 0.000298154162791718 -0.00185481033941416 -0.00193792417472405
"115" -6.05802283284281e-05 -0.000141068234508419 6.81801287384684e-05 0.000126166993090277 0.0001143808827411 -0.000106533093539815 -0.000389773536368273 -0.000150944944798889 -0.000584617445949362 -0.00293633099737103 -0.000676687205865554 -0.0044202503532382 -0.000659556049412053 0.000308839811657974 -0.00185175594217335 -0.0020547637403787
"116" -6.72538183890586e-05 -0.000129940847900075 7.4112562986278e-05 0.000138946317535914 0.000119867422423956 -9.75121625090144e-05 -0.00039559848840484 -0.000127991399132134 -0.00062662314381252 -0.00266068046787636 -0.000670184883906808 -0.00409643105841716 -0.000920617305240194 0.000318506755612148 -0.00184110167656284 -0.00215669944409636
"117" -7.48651125972723e-05 -0.000120694045279214 7.83109808889603e-05 0.000150509072726841 0.000124894039107119 -8.81408062076802e-05 -0.000400624049841662 -0.000106011577985044 -0.00066379270866536 -0.0023942916744951 -0.000660627972080864 -0.00374569402284727 -0.00117400792319181 0.00032715078812629 -0.00182292479204729 -0.00224288487490973
"118" -8.33871110657814e-05 -0.00011339471144444 8.07150916590983e-05 0.000160810036270055 0.000129374476680576 -7.84898928836874e-05 -0.000404919256718397 -8.51691908733553e-05 -0.000695816334314842 -0.00213900175728558 -0.000648085529413015 -0.00337057043182874 -0.00141815665499125 0.000334762491283167 -0.00179737349366155 -0.00231254884449376
"119" -9.27798038789444e-05 -0.000108091203176631 8.12802317652592e-05 0.000169804723205936 0.000133225461377981 -6.86437862993503e-05 -0.000408567240371005 -6.56085546931991e-05 -0.000722427326731322 -0.00189657710777925 -0.000632648019924681 -0.0029737517895244 -0.00165164952225666 0.000341345092749449 -0.00176466860851938 -0.00236499454479976
"120" -0.000103003344611037 -0.000104810453698548 7.99837977395364e-05 0.000177463271409382 0.000136373099016928 -5.86764840958351e-05 -0.000411647111088086 -4.74611411764851e-05 -0.000743408023482809 -0.00166868638998881 -0.000614422819612042 -0.00255807191962804 -0.00187322425347173 0.000346911399438159 -0.00172508946144937 -0.00239960289690303
"121" -0.000114000802070367 -0.000103557870011428 7.68179524752871e-05 0.000183771698910195 0.000138751307210053 -4.86721838869206e-05 -0.000414245054343832 -3.08464552865844e-05 -0.000758599705093289 -0.00145689149310724 -0.000593542741054274 -0.00212649512554957 -0.00208177139032627 0.000351474228486315 -0.0016789731773778 -0.00241583663697495
"122" -0.000125717465146216 -0.000104322126869077 7.18021533151222e-05 0.000188722082885459 0.000140301503998627 -3.87105251161665e-05 -0.000416450559252162 -1.58639873817499e-05 -0.000767894481537762 -0.00126262729883071 -0.000570153628812619 -0.0016821249783326 -0.00227633683364738 0.000355050885508735 -0.00162672422737018 -0.00241324634206022
"123" -0.000138083143540991 -0.000107067743708559 6.49650521621522e-05 0.000192323111375804 0.000140979559704717 -2.88711481571686e-05 -0.000418349094686568 -2.59370738281508e-06 -0.000771231189335042 -0.00108717085018531 -0.00054442599254218 -0.0012281713304516 -0.00245613159464346 0.000357667005266803 -0.00156879130560998 -0.00239147976573161
"124" -0.000151028423081546 -0.000111740263142641 5.63691504908817e-05 0.00019459580947307 0.000140747411832866 -1.92322371554219e-05 -0.000420030639527262 8.90072968495117e-06 -0.000768616105816866 -0.000931636514714465 -0.00051653790716022 -0.000767936852201316 -0.00262052785007855 0.000359350698691385 -0.00150568088528703 -0.00235028351806572
"125" -0.000164473285637963 -0.00011826718174283 4.60827545028513e-05 0.000195568236097575 0.000139578845787639 -9.86781180951388e-06 -0.000421586914019986 1.85789255911137e-05 -0.000760105140034948 -0.000796951960611797 -0.000486687201515814 -0.000304826450343974 -0.00276904457082773 0.000360134391566941 -0.00143793359133311 -0.00228951250936559
"126" -0.000178334957439285 -0.00012655380518173 3.42034743753163e-05 0.000195284399705746 0.000137459793421114 -8.53606997200785e-07 -0.000423098427060492 2.64140641896335e-05 -0.000745810357640658 -0.000683851385099574 -0.000455083770696931 0.000157682356466004 -0.00290136791827332 0.000360054304273928 -0.00136613490170656 -0.0022091400638883
"127" -0.00019252388110022 -0.000136487614387546 2.08369143587607e-05 0.000193795079499613 0.000134381588191581 7.74414138612221e-06 -0.000424657250104901 3.24081829130632e-05 -0.000725900619758416 -0.0005928541809735 -0.000421951499783665 0.000616042162283777 -0.00301732719901603 0.00035914559461322 -0.00129090438683103 -0.00210926355943994
"128" -0.000206950150213567 -0.000147942433834585 6.11668324491207e-06 0.000191166551673619 0.000130354447448586 1.58600309539009e-05 -0.000426337077838966 3.6577528784189e-05 -0.000700590205466987 -0.000524257923814542 -0.000387524118164182 0.00106665091389475 -0.00311690165347517 0.000357450835084905 -0.00121287830497814 -0.00199011538241358
"129" -0.000221515408229815 -0.000160770384274474 -9.81651749975666e-06 0.000187469849892765 0.000125392269160042 2.34348757079277e-05 -0.000428213918305021 3.89621094052092e-05 -0.000670161082872131 -0.000478125433036119 -0.000352044060803455 0.00150587566072727 -0.00320021299543819 0.000355015761761082 -0.00113271876752615 -0.00185207384934663
"130" -0.000236123844573728 -0.000174813645880129 -2.68063030700163e-05 0.00018278286893358 0.000119519943198681 3.04133122949859e-05 -0.000430355601956575 3.96191903808222e-05 -0.000634926686272341 -0.000454292388763177 -0.000315757027489967 0.0019300569518408 -0.00326751086804002 0.000351876545220497 -0.00105109878635121 -0.00169567379157183
"131" -0.000250675613204443 -0.000189902260839861 -4.46782482548572e-05 0.000177194461453348 0.000112779787287989 3.67462891372948e-05 -0.000432828962723622 3.86257579688993e-05 -0.000595260407160418 -0.000452360624001513 -0.000278913681266254 0.00233554214905261 -0.00331917858182574 0.000348089600077274 -0.000968699873256756 -0.00152160940981814
"132" -0.000265076819986122 -0.000205853430459001 -6.32606323880377e-05 0.000170799270421788 0.000105211682500778 4.23937060967497e-05 -0.000435687805503001 3.60729475325217e-05 -0.00055156890134415 -0.000471703251205525 -0.000241770661814375 0.00271870241095402 -0.00335570784900816 0.000343692183939859 -0.000886189340970339 -0.00133074667497845
"133" -0.000279224483562143 -0.000222476198785886 -8.23580680226831e-05 0.000163696825610138 9.6868541702013e-05 4.73152974283047e-05 -0.000438982212102538 3.2075067580906e-05 -0.000504305079869023 -0.000511469154649942 -0.000204581291842424 0.00307597782309404 -0.00337770936158017 0.000338740629918789 -0.000804233668786679 -0.0011241263237348
"134" -0.000293025962760086 -0.000239575247010577 -0.000101780104533368 0.000155990866581637 8.78222837376515e-05 5.14882031087331e-05 -0.000442750270600488 2.6753382144888e-05 -0.000453952179186335 -0.000570601043584692 -0.000167592585102979 0.00340391652766664 -0.00338589103724971 0.000333280959084464 -0.000723480371960068 -0.00090296826803446
"135" -0.000306385486361205 -0.000256947246196061 -0.00012132546885814 0.000147785405006084 7.8132664551502e-05 5.48846004333109e-05 -0.000447026819484514 2.02497149781271e-05 -0.000401026795909186 -0.000647840769626476 -0.000131051186184567 0.00369920605929095 -0.00338105209371745 0.000327363386003967 -0.0006445499226992 -0.00066867075545256
"136" -0.000319213858578083 -0.000274390469421426 -0.000140794155605255 0.000139190166904412 6.78798530565629e-05 5.74908793987168e-05 -0.000451832817249084 1.27115046904121e-05 -0.000346065603860999 -0.000741752309089219 -9.51974439225242e-05 0.00395873157316684 -0.00336406557834229 0.000321035725865032 -0.000568037595609673 -0.000422809814077988
"137" -0.000331427178055656 -0.000291700190393003 -0.000159988233789256 0.000130312487173302 5.7142320327012e-05 5.92984446520923e-05 -0.000457181903277821 4.29820946768373e-06 -0.000289630787521084 -0.000850732702715921 -6.02571209751807e-05 0.0041796343937813 -0.00333587401596664 0.000314352830408903 -0.00049449139819555 -0.000167130938839872
"138" -0.000342944890077108 -0.000308677083484714 -0.000178707936843502 0.000121264301011097 4.6006608282155e-05 6.030976216404e-05 -0.000463080821819549 -4.82085425885746e-06 -0.00023229459895355 -0.000973047629723614 -2.64478886155225e-05 0.00435936742840744 -0.00329747224900711 0.000307359976624241 -0.000424426403993562 9.64537611506201e-05
"139" -0.000353694448059457 -0.000325121839804101 -0.000196758339066146 0.000112151395638189 3.45623092837706e-05 6.05248437510434e-05 -0.000469529311155769 -1.44738803612021e-05 -0.000174637908158871 -0.00110683369386235 6.0262335526194e-06 0.00449573896255361 -0.00324990187899561 0.000300111803349719 -0.000358298390950622 0.000365887484672584
"140" -0.00036361160213108 -0.000340841917295304 -0.000213956066166774 0.000103077461054618 2.29028714940031e-05 5.99592272883128e-05 -0.000476511036042842 -2.44858399294196e-05 -0.000117235282503393 -0.00125014698572318 3.69820515549705e-05 0.00458698818868008 -0.00319422778469138 0.000292657317618634 -0.000296508394799678 0.000638975728258307
"141" -0.000372633398271221 -0.00035565391399966 -0.000230121390991415 9.41455779211668e-05 1.11159717358367e-05 5.86311165949663e-05 -0.000484008557718502 -3.4675267736041e-05 -6.06678812650807e-05 -0.00140096507879153 6.6244723787384e-05 0.00463184208657238 -0.00313153432199081 0.000285046899718517 -0.000239397620714935 0.000913416510054249
"142" -0.000380715086353691 -0.000369382788408619 -0.000245087923227364 8.54507214244468e-05 -7.03576563017786e-07 5.65673605461879e-05 -0.000491990810304875 -4.48658692771994e-05 -5.49834177513526e-06 -0.00155721097693024 9.36713398505317e-05 0.00462955493754422 -0.00306291349554641 0.0002773261971774 -0.000187243754282509 0.00118681825469219
"143" -0.000387809457445291 -0.0003818633893721 -0.000258704470687108 7.70889320131914e-05 -1.24611985097543e-05 5.37954117434328e-05 -0.000500423178797067 -5.48805024645605e-05 4.77318839109156e-05 -0.00171679092794553 0.000119126561513096 0.0045799441127007 -0.002989431062052 0.000269547459413524 -0.000140248567358301 0.00145672527733981
"144" -0.000393886841702859 -0.000392941702458015 -0.000270825156573666 6.91418343409623e-05 -2.40690011330006e-05 5.03552350398292e-05 -0.00050926028715278 -6.45506092317168e-05 9.84971862900735e-05 -0.00187759587694187 0.000142503441898318 0.00448342231123577 -0.00291214280174864 0.000261753938426175 -9.85579073716254e-05 0.00172065580860123
"145" -0.000398920904771769 -0.000402476560631318 -0.000281324408087585 6.16925550517736e-05 -3.54383931837857e-05 4.62871915590277e-05 -0.000518452852778527 -7.37070925144268e-05 0.000146311423413757 -0.00203753892236237 0.000163717032258253 0.00434102458185105 -0.00283204987863477 0.000253990697112654 -6.22305514135276e-05 0.00197613154797853
"146" -0.000402901202197052 -0.000410346641331464 -0.000290095712554269 5.48153934843402e-05 -4.64860866136888e-05 4.16368209566099e-05 -0.00052794371427644 -8.21944139560366e-05 0.000190722486834063 -0.00219455489790745 0.00018270614537865 0.0041543710510273 -0.00275011257251285 0.000246304648513918 -3.12591565049429e-05 0.00222071569377636
"147" -0.000405813686727322 -0.000416435301247477 -0.000297042382025832 4.85729129567644e-05 -5.7129906982591e-05 3.64540264840768e-05 -0.000537665457901285 -8.98629104272369e-05 0.000231315023861458 -0.0023466369685011 0.000199428437264234 0.00392567608032407 -0.00266721869293518 0.000238729665426745 -5.56101455736353e-06 0.00245203697996251
"148" -0.00040767014759773 -0.000420650887226163 -0.000302093095951802 4.30224269527765e-05 -6.72962284030286e-05 3.07934055069875e-05 -0.000547559810493796 -9.65745401228869e-05 0.000267724705717745 -0.00249184086162245 0.000213868630779932 0.00365769944096569 -0.0025841928790806 0.000231314507383426 1.5011061711391e-05 0.0026678477589354
"149" -0.000408473787491151 -0.000422910581724435 -0.000305193537586773 3.82157748209797e-05 -7.69169235379577e-05 2.4711375929408e-05 -0.000557546417638462 -0.000102209616683892 0.000299638701796308 -0.00262830298313733 0.000226035576307127 0.00335369397161082 -0.00250176165290598 0.00022408691285052 3.0680582494774e-05 0.0028660394812259
"150" -0.000408244645417672 -0.000423150538441117 -0.000306301750708633 3.41936618867274e-05 -8.59259686882247e-05 1.82676906579192e-05 -0.000567551609008626 -0.00010664905516099 0.000326793706892626 -0.00275424187549318 0.000235960896782214 0.00301735573987611 -0.00242056849837266 0.000217081396851412 4.17232189651329e-05 0.00304469765211695
"151" -0.000407013559936653 -0.000421325114638893 -0.000305401838618387 3.09869194367775e-05 -9.42727647077502e-05 1.15208229765521e-05 -0.000577495835315853 -0.000109800987831656 0.000348990705652049 -0.00286799293835577 0.00024369164053375 0.00265272572101862 -0.00234114918075014 0.000210334061497511 4.84873596477697e-05 0.0032021091442163
"152" -0.000404806611764313 -0.000417403057379967 -0.000302495393436444 2.86186163969784e-05 -0.000101906154878074 4.53305058029655e-06 -0.000587303057550344 -0.00011158152730517 0.000366083296818224 -0.00296799856280325 0.000249305808344576 0.00226414105351763 -0.00226392317796812 0.000203865224065587 5.13604045143259e-05 0.00333680633251407
"153" -0.00040166837423822 -0.000411368679387118 -0.000297598801845722 2.71062665720248e-05 -0.000108787815597557 -2.63361067315967e-06 -0.000596886636589464 -0.000111927163961984 0.00037798801790509 -0.00305281264199154 0.000252891264956532 0.00185612255519143 -0.00218920682576753 0.00019770073661649 5.07915197665546e-05 0.00344758646149983
"154" -0.000397636652772581 -0.000403225180147861 -0.000290753721118033 2.64537254511775e-05 -0.00011488354259005 -9.9204277194485e-06 -0.000606162300439697 -0.000110789033872528 0.000384680097435112 -0.00312112596539464 0.000254559544243272 0.00143332019228371 -0.0021171930269429 0.000191863659811061 4.72557273879065e-05 0.00353352277103258
"155" -0.000392769830681728 -0.000392989562287862 -0.000282012010547732 2.66608058795202e-05 -0.000120175646887381 -1.72623294096233e-05 -0.000615052272792961 -0.000108135870916567 0.000386199811817838 -0.00317176275859926 0.000254439971946139 0.00100040458432238 -0.00204796282594738 0.000186368057994193 4.12666179726831e-05 0.0035939716205689
"156" -0.000387115186021367 -0.000380693626341189 -0.000271445779453883 2.77150978211394e-05 -0.00012464487349597 -2.46021009315937e-05 -0.000623469826751554 -0.000103953763888161 0.000382641697720907 -0.00320367793250626 0.000252667101379236 0.000561996202253267 -0.00198148015351161 0.000181231159130419 3.33566327544441e-05 0.00362859369459995
"157" -0.000380731047782356 -0.000366391435327548 -0.000259141812659747 2.95978624503297e-05 -0.000128285888194243 -3.1883298326379e-05 -0.000631338328142116 -9.82478620154728e-05 0.000374158190906715 -0.00321596939945416 0.000249397442404044 0.000122618722894887 -0.00191760181126517 0.000176460438585033 2.40720512656064e-05 0.00363733111113952
"158" -0.00037367664744628 -0.000350141161079328 -0.000245202480990365 3.22816457050928e-05 -0.000131104272252 -3.90490898640753e-05 -0.000638579430706289 -9.10398089700075e-05 0.000360958875250167 -0.00320787513760663 0.000244796081337023 -0.000313385358720663 -0.00185606748893494 0.000172069908932341 1.39663547745705e-05 0.00362040774983346
"159" -0.000366016408136649 -0.000332024835170253 -0.000229742814718144 3.57353665145027e-05 -0.000133104993189166 -4.60494066662935e-05 -0.000645122565512716 -8.2363709522811e-05 0.000343299820712186 -0.00317879033542542 0.000239025501595249 -0.000741893965891053 -0.0017965363162074 0.000168056488406677 3.58306896011289e-06 0.00357831220009129
"160" -0.000357815683651596 -0.00031213277951444 -0.000212892967143177 3.99152693330552e-05 -0.00013431507361202 -5.28326525970124e-05 -0.000650894254693966 -7.22758073314042e-05 0.000321486135586529 -0.00312824161987125 0.000232264576847322 -0.00115904468521962 -0.00173855880597988 0.000164425095528493 -6.55090512203367e-06 0.00351178919212365
"161" -0.000349133314262573 -0.000290570135545093 -0.000194792459084728 4.47751749523798e-05 -0.000134752841782988 -5.93523822167248e-05 -0.000655833825803155 -6.0846509115065e-05 0.000295866747381118 -0.00305590459539805 0.000224690960535784 -0.00156126385446804 -0.00168162667794124 0.000161177552377471 -1.59237221606911e-05 0.00342179748188785
"162" -0.000340041372325616 -0.000267452852153774 -0.000175587864430718 5.02602621395084e-05 -0.000134458293282755 -6.55720884185216e-05 -0.000659880615695362 -4.81592668361449e-05 0.000266824998705777 -0.0029616159613325 0.000216482213723251 -0.00194529436209066 -0.00162514205189614 0.000158306795517313 -2.40588175133738e-05 0.0033095005338628
"163" -0.00033060162553103 -0.000242912584742769 -0.000155438598301409 5.63138878315186e-05 -0.0001334665883646 -7.14484890741591e-05 -0.000662984743282928 -3.43132738995184e-05 0.00023477197521136 -0.00284534912360763 0.000207815014888448 -0.00230820116970345 -0.0015684760181636 0.000155805629941331 -3.05097573418095e-05 0.00317622934132936
"164" -0.00032088004025767 -0.000217088137400537 -0.000134510496642326 6.28722568703861e-05 -0.000131828133612806 -7.69513233767979e-05 -0.000665101035276379 -1.94181090368542e-05 0.000200152685626256 -0.00270723400851685 0.000198860406292724 -0.00264736812941007 -0.00151094673921992 0.000153670948564892 -3.48764027886474e-05 0.00302345837401526
"165" -0.000310945358708984 -0.000190130266329391 -0.000112972901610505 6.98640385343585e-05 -0.000129593907020805 -8.2049872472567e-05 -0.000666190140970282 -3.59781051530021e-06 0.000163426438746492 -0.00254755511806041 0.000189782971886324 -0.00296052911459547 -0.00145184016918755 0.000151882001552681 -3.68126694323602e-05 0.00285277901380499
"166" -0.000300855703458446 -0.000162195758200082 -9.09995934688773e-05 7.72210183391688e-05 -0.000126821944939917 -8.67211719093382e-05 -0.000666226615345004 1.30201165165553e-05 0.000125065975308909 -0.00236674318547943 0.000180736162047646 -0.00324571511183089 -0.00139045201127386 0.00015043682754077 -3.60192250772541e-05 0.00266586308106001
"167" -0.000290675697237906 -0.000133453280606803 -6.87688289674379e-05 8.48698451550936e-05 -0.000123571672610197 -9.09432138139491e-05 -0.000665191990418937 3.02923553874657e-05 8.55526456170917e-05 -0.00216540514805139 0.000171870782341024 -0.00350128832879614 -0.00132606401458715 0.000149315653525191 -3.22598225556863e-05 0.00246445194624745
"168" -0.000280467967500209 -0.0001040751949722 -4.64568385007386e-05 9.27302226440891e-05 -0.000119914018761294 -9.47021280877994e-05 -0.000663071929143541 4.80755264428347e-05 4.53688603201757e-05 -0.00194428642513708 0.000163316002691792 -0.00372590149955936 -0.00125797794618286 0.000148497345297836 -2.53572533700121e-05 0.00225031536598788
"169" -0.000270291758425359 -7.42380542488681e-05 -2.42368845684017e-05 0.000100729696246896 -0.000115911001111055 -9.79826066166561e-05 -0.000659867919097591 6.62180411985771e-05 4.99342135173642e-06 -0.00170431467285611 0.000155196168952686 -0.00391848178993052 -0.00118554842376409 0.000147971844061014 -1.5199087159295e-05 0.00202524861492068
"170" -0.00026020247204891 -4.41262761084345e-05 -2.28656084492502e-06 0.000108787518799911 -0.000111634529615089 -0.000100778562765881 -0.000655588884488502 8.45644314091418e-05 -3.51058748672208e-05 -0.001446580922511 0.000147612739653585 -0.00407824734086301 -0.00110816477137748 0.000147716488916554 -1.73571967054912e-06 0.00179104516321546
"171" -0.000250252681867238 -1.392417453749e-05 1.92248248546016e-05 0.000116828731102534 -0.000107153579314769 -0.00010308688861481 -0.000650247022938213 0.000102963493613577 -7.44787887160583e-05 -0.00117236006873776 0.000140652820658764 -0.00420464628525722 -0.00102528602927087 0.00014770359184959 1.50143684966814e-05 0.00154947609872417
"172" -0.000240495758218439 1.61833649838629e-05 4.01371214996343e-05 0.000124774331019114 -0.000102539630081603 -0.000104906470570878 -0.000643873288894341 0.000121257217095959 -0.000112695250920972 -0.000883098043493202 0.000134392116586945 -0.00429736773565891 -0.000936447473126055 0.000147918053254611 3.49739260266891e-05 0.00130228664496072
"173" -0.000230979833955308 4.60131102572225e-05 6.02912559048511e-05 0.000132553961905927 -9.78622104284672e-05 -0.000106240852753079 -0.000636500130997577 0.000139296309548117 -0.000149348362443441 -0.000580427511567677 0.000128880399106566 -0.00435631619967814 -0.000841280555091669 0.000148326719401479 5.79981630279692e-05 0.00105117329061279
"174" -0.000221747419164788 7.53794695855936e-05 7.95366086360244e-05 0.000140092237042036 -9.31879887009247e-05 -0.000107091208350201 -0.000628169088130956 0.000156930950256154 -0.000184064999530132 -0.000266164341257228 0.000124154384087883 -0.00438160087567636 -0.000739505542627944 0.000148912146757077 8.38791342698815e-05 0.000797781575346328
"175" -0.000212842900617546 0.00010410751698804 9.77392463832773e-05 0.000147323415026357 -8.85813494055458e-05 -0.000107471451052393 -0.000618934130217612 0.000174019294938305 -0.00021650260414201 5.76971039462448e-05 0.000120227961198686 -0.00437351990972802 -0.000630960975937665 0.000149648097516878 0.00011235547157995 0.000543708804159926
"176" -0.000204300702336477 0.00013202348482205 0.00011477483816907 0.000154184529200892 -8.41076523316732e-05 -0.000107390812235478 -0.000608857810167008 0.000190428009459739 -0.000246353646226069 0.000388968529933606 0.000117104112452569 -0.00433255254106936 -0.000515592228015328 0.000150499188232174 0.000143106367232429 0.000290480127442244
"177" -0.000196152380166123 0.000158961973631128 0.000130524729682975 0.00016061798698903 -7.98173268687174e-05 -0.000106859746339338 -0.000597996884532063 0.000206032581676298 -0.000273358889057007 0.000725275232390477 0.000114757952155136 -0.00425933480056221 -0.000393475710494393 0.000151442231718355 0.000175760508996623 3.95548154440177e-05
"178" -0.000188423950712973 0.000184769337802315 0.000144894096134993 0.00016656778395367 -7.5767513614982e-05 -0.0001058925497901 -0.000586426974627917 0.000220711916709346 -0.000297291709487665 0.00106406760183363 0.000113154530860807 -0.00415467797989955 -0.000264816679822156 0.000152451329109162 0.000209894484852581 -0.000207673017246124
"179" -0.000181143362602515 0.000209300610386705 0.000157796190590056 0.000171989490879061 -7.20048054563262e-05 -0.000104505505758646 -0.000574221249872874 0.000234365349470474 -0.000317982043133608 0.00140262585481149 0.000112235084724129 -0.00401953706986664 -0.0001299424912747 0.000153493325778628 0.000245045416834979 -0.000449884390969336
"180" -0.000174323961814897 0.000232420405656913 0.0001691622192195 0.000176841850083915 -6.8567401597077e-05 -0.000102715892970994 -0.000561463750590897 0.000246902397900904 -0.00033529289454268 0.00173807980099571 0.000111928983002539 -0.00385502898874179 1.06897626946851e-05 0.000154539575541432 0.000280710845914258 -0.000685835818142275
"181" -0.000167979268486518 0.000254011158376741 0.000178941746445306 0.000181091966752067 -6.54909026521979e-05 -0.000100539724425414 -0.000548234071152978 0.000258243255801792 -0.000349140471173293 0.00206742036175958 0.000112146753216469 -0.00366239933692282 0.000156480178270826 0.000155561657148266 0.000316358464349269 -0.000914354161774782
"182" -0.000162116406066891 0.000273969933165742 0.000187095932962577 0.000184716366083146 -6.27985180087888e-05 -9.79923538129877e-05 -0.000534613957457706 0.000268320958504518 -0.000359490592799427 0.00238753282679154 0.00011278922956422 -0.00344306180269682 0.000306727382702615 0.000156531289061887 0.000351427229918926 -0.00113434840607014
"183" -0.000156736213525185 0.000292203795058276 0.000193605969581524 0.000187693502467463 -6.05167949872643e-05 -9.50935670998216e-05 -0.000520694484157097 0.000277086917833481 -0.00036635089762016 0.00269522632206026 0.000113741380282808 -0.00319857059545943 0.000460602588218791 0.000157421132531583 0.000385332296918818 -0.00134479789443628
"184" -0.0001518341329949 0.000308645814506528 0.000198471153828178 0.000190014740550946 -5.86525021407041e-05 -9.18589001559104e-05 -0.000506558002511303 0.00028450784620079 -0.000369777352743584 0.00298727077368836 0.000114879373487338 -0.00293061511511301 0.000617171279589445 0.000158200725545879 0.000417486145395274 -0.00154476951053102
"185" -0.000147400188483306 0.000323235334862299 0.00020170397831151 0.000191675895093906 -5.72126661888316e-05 -8.83065031060708e-05 -0.000492295852538803 0.000290560469460611 -0.000369875119388495 0.00326044539194894 0.000116073538825196 -0.0026410316067003 0.000775398092614875 0.000158850071570378 0.000447286779430675 -0.00173341168057221
"186" -0.000143425377686414 0.000335937101428105 0.000203335312533486 0.000192682256537113 -5.61923951064234e-05 -8.44488644061119e-05 -0.000477982637199913 0.000295243047704315 -0.000366787054217973 0.00351158774779889 0.000117183439991352 -0.00233179687205297 0.000934175566876699 0.000159338087946262 0.000474136397967797 -0.00190995747536121
"187" -0.000139892629326372 0.000346731475730398 0.000203407778760123 0.000193045897367209 -5.55865799385742e-05 -8.03019767815428e-05 -0.000463706387476683 0.000298563849959711 -0.000360702451428899 0.00373766204079667 0.000118065074358926 -0.00200503585593167 0.00109232482079 0.000159645687164003 0.000497450898621263 -0.0020737310988279
"188" -0.00013677654701857 0.000355613884751568 0.000201985138247541 0.000192784084394066 -5.5373748828439e-05 -7.58834833114302e-05 -0.000449544025039874 0.00030054613398985 -0.000351849184702935 0.00393581119546788 0.000118575027881755 -0.00166300539938653 0.00124861685868923 0.00015975405403239 0.000516657214979652 -0.00222414550105841
"189" -0.000134054867751838 0.000362599975754217 0.000199137456522323 0.000191919071339287 -5.55319829721742e-05 -7.12007404616491e-05 -0.000435571066549105 0.000301229874507588 -0.000340488278622363 0.00410341631809259 0.000118568602245537 -0.00130809586900579 0.00140179948131575 0.000159639548755332 0.000531216366622914 -0.00236071305447629
"190" -0.000131706413070118 0.000367721324375824 0.000194953655719036 0.00019048291955106 -5.60333995319414e-05 -6.62706351641692e-05 -0.000421857529597163 0.000300664221439237 -0.000326920053537728 0.00423818342957583 0.000117904430885637 -0.000942836552609891 0.00155060329643223 0.000159291674853107 0.000540618775260956 -0.00248304285629001
"191" -0.000129697148352095 0.00037102412374822 0.000189528171562218 0.000188511662596756 -5.68445102744393e-05 -6.10987218487428e-05 -0.000408469939849903 0.000298917910722878 -0.000311463013245512 0.00433816722071885 0.000116448857834201 -0.000569882514229746 0.00169376794701735 0.000158690838066247 0.000544408199612049 -0.00259084522267642
"192" -0.000128003455948002 0.00037257030182297 0.000182964286441165 0.000186041822054389 -5.79258895438605e-05 -5.5697904387416e-05 -0.000395468935616082 0.000296060628950673 -0.000294468466980948 0.00440186626973931 0.00011406994039482 -0.000192018935193629 0.00183006051561793 0.000157830642824067 0.000542178531518182 -0.00268394370020037
"193" -0.000126598244310193 0.000372438057924585 0.000175377244322638 0.000183117374879982 -5.92340846992847e-05 -5.00733629892256e-05 -0.000382911347019374 0.000292182712252385 -0.000276301085683025 0.00442823257294783 0.000110650757987045 0.000187860297143277 0.0019582995533556 0.000156702262611555 0.000533583290889609 -0.00276226596232214
"194" -0.000125452952475608 0.000370712414186215 0.000166889794033431 0.00017978338108905 -6.07227191699518e-05 -4.42352178501661e-05 -0.000370845468886295 0.000287377324722396 -0.000257345725985455 0.00441673006135291 0.000106086028511961 0.000566749409285363 0.0020773739315539 0.000155304293759066 0.000518348162362661 -0.00282585588093322
"195" -0.000124540739378741 0.000367493814420082 0.000157623902768177 0.000176089158463086 -6.23445505149836e-05 -3.81865483632974e-05 -0.00035932321119106 0.000281749863563361 -0.000237989921533752 0.00436733241181507 0.000100277016537978 0.000941546054622764 0.00218625138039278 0.00015363417236719 0.000496270010727465 -0.00287486544407087
"196" -0.000123842373329554 0.00036289132138108 0.000147704222825493 0.000172082796296237 -6.40519295962553e-05 -3.19351121422694e-05 -0.000348377638235088 0.000275406808909971 -0.000218631451189863 0.00428055869472626 9.3151955521111e-05 0.00130906468404038 0.00228400706375383 0.000151691078159252 0.000467228148403675 -0.00290955777039551
"197" -0.000123339497805722 0.000357024023182458 0.000137258622710574 0.000167812011504259 -6.57926841283682e-05 -2.54818684974989e-05 -0.00033804019191982 0.000268466310974158 -0.000199662395506669 0.00415743688366664 8.4645806130764e-05 0.00166606843927245 0.00236982289064119 0.000149481738720541 0.00043119158286326 -0.00293030305049527
"198" -0.000123013826423818 0.000350011698140358 0.000126418106453448 0.000163327545898216 -6.75112447832099e-05 -1.88333660535705e-05 -0.00032834515462723 0.000261048465899479 -0.000181469154251214 0.00399949867588626 7.47169763002511e-05 0.00200926508893608 0.00244300413956711 0.000147014841744246 0.000388212726516322 -0.00293757438774956
"199" -0.000122855668220061 0.000341986760941985 0.000115305677932119 0.00015867942240758 -6.91647204146195e-05 -1.19890227738982e-05 -0.000319310663365975 0.000253273228794279 -0.000164426186744963 0.00380872989823326 6.33430308304382e-05 0.00233536585616833 0.00250298611197336 0.000144300624246371 0.00033843612477434 -0.0029319436529593
"200" -0.000122855873565789 0.000333079403645021 0.000104040953323982 0.000153911657978602 -7.07021174943919e-05 -4.95360384977504e-06 -0.000310950401349643 0.000245265779438257 -0.000148890005828922 0.003587519601936 5.05197012493707e-05 0.00264108643280692 0.00254934710594738 0.000141353321216523 0.000282101156728041 -0.0029140660528332
"201" -0.000123013078810986 0.000323423056065003 9.27459504307505e-05 0.000149071549696735 -7.20733063081826e-05 2.27488870489934e-06 -0.000303276608127259 0.000237148662312915 -0.000135194177196122 0.00333861012964048 3.62687129417791e-05 0.00292321624963175 0.00258179557980048 0.000138191381595563 0.000219540018445488 -0.00288468100142496
"202" -0.000123328090134294 0.000313151052454466 8.15244092304783e-05 0.000144201358741235 -7.32418399017521e-05 9.69094700511475e-06 -0.000296294760407222 0.000229042541338871 -0.000123642222448364 0.00306502307209286 2.06233265100485e-05 0.0031786380363748 0.00260018601822471 0.000134830209412137 0.000151171573399216 -0.00284458848963535
"203" -0.000123805496578235 0.000302398608608652 7.04868519527871e-05 0.000139343211779029 -7.41597847398987e-05 1.72936031014688e-05 -0.000290000413153134 0.000221067921751717 -0.000114510108660249 0.00277000304642294 3.64259481638565e-06 0.00340439993416834 0.00260450664280828 0.000131292711984366 7.75041714986328e-05 -0.00279465154292468
"204" -0.000124453404882857 0.00029129617508789 5.97273641702856e-05 0.000134535779966924 -7.47894994993889e-05 2.508238322875e-05 -0.000284388456181399 0.000213336437972991 -0.000108035352233226 0.00245693505394033 -1.45908603449955e-05 0.00359777104112828 0.0025948670176211 0.00012760337692689 -8.84720421308411e-07 -0.00273576815256699
"205" -0.000125285767229217 0.00027997214696275 4.93318060588137e-05 0.000129812575898591 -7.51038658789575e-05 3.3055185530506e-05 -0.000279441321700162 0.000205958114606006 -0.000104410186731972 0.00212927285567399 -3.39835015341241e-05 0.00375628038067189 0.00257151240254886 0.000123783127000651 -8.33362619185656e-05 -0.00266886196354029
"206" -0.00012631335834248 0.000268550276290801 3.93851517083666e-05 0.000125207346424581 -7.50647209781018e-05 4.12083327996619e-05 -0.000275144133503887 0.00019903147172749 -0.000103793304424132 0.00179049637280935 -5.44148599311238e-05 0.00387781662063436 0.00253479297904659 0.000119861722056596 -0.000169144410154083 -0.00259487462015954
"207" -0.000127554286448924 0.000257149448113381 2.99481506755458e-05 0.000120751196655027 -7.46533926914128e-05 4.95407568460632e-05 -0.00027147221349115 0.000192655526273382 -0.000106292653277976 0.00144403751941119 -7.57536932306626e-05 0.00396067363613774 0.00248517246561806 0.000115862320431359 -0.00025753581554615 -0.00251474376448844
"208" -0.000129025753147337 0.000245879795715315 2.1087999931161e-05 0.00011647053362002 -7.38472343781627e-05 5.8045409805945e-05 -0.00026839174539552 0.000186912486999201 -0.000111966211029076 0.00109324701734821 -9.78527723793327e-05 0.00400360953460642 0.00242320532317461 0.000111818742057242 -0.000347709862791832 -0.00242938614911019
"209" -0.000130747219149139 0.000234850200826015 1.28560232086317e-05 0.000112390847346543 -7.26250099051657e-05 6.6719856891436e-05 -0.000265873753044352 0.000181878612082169 -0.000120825024116633 0.000741334291920973 -0.000120548488212192 0.00400590630312081 0.00234952283692377 0.000107756049141727 -0.000438830828322118 -0.00233969493945218
"210" -0.000132731551047646 0.000224156524637545 5.28671243456224e-06 0.000108532955844755 -7.09815027571355e-05 7.55576643160505e-05 -0.000263873516675604 0.00017761787365302 -0.000132834580786506 0.000391343777311568 -0.000143668241574267 0.00396739077278458 0.00226485013506719 0.000103704003782303 -0.000530044177061917 -0.002246512656334
"211" -0.000135002555825664 0.000213893473359207 -1.58604255127796e-06 0.000104915747968182 -6.89098193392774e-05 8.45510967689119e-05 -0.000262349992212437 0.000174185306865006 -0.00014790370015635 4.61304587342397e-05 -0.000167027876969381 0.00388849154216189 0.00216994858389006 9.96926010431869e-05 -0.00062050064074363 -0.00215063665673751
"212" -0.000137565922846244 0.000204138059474331 -7.7413408491145e-06 0.000101558214288087 -6.64023555231979e-05 9.36884524663715e-05 -0.000261253056194739 0.00017162325405748 -0.000165900973980687 -0.00029166552538355 -0.000190440922538444 0.00377022446312596 0.00206564978467914 9.57513908306365e-05 -0.000709357147711328 -0.00205279221549252
"213" -0.000140440873393423 0.000194970511661131 -1.31634035308591e-05 9.84727623533766e-05 -6.34690589207892e-05 0.00010296268103954 -0.00026053817010085 0.000169959944470004 -0.000186640817387986 -0.000619615056880309 -0.000213705127593291 0.00361419792101253 0.00195282066375584 9.19056569311202e-05 -0.000795782310402325 -0.00195363540260266
"214" -0.000143635308017498 0.000186451467808769 -1.78543358508522e-05 9.56744279681986e-05 -6.01154182041367e-05 0.000112361036643021 -0.000260146002325032 0.000169215882440297 -0.000209903456169443 -0.000935522598030821 -0.000236624492972482 0.00342257063677643 0.00183236690244529 8.81847690790018e-05 -0.000878992282974832 -0.00185374764967282
"215" -0.000147154918373836 0.000178638721132014 -2.18129060517012e-05 9.31722344564565e-05 -5.63553113285306e-05 0.000121866774667117 -0.000260023776431034 0.000169395124036111 -0.000235418613702633 -0.00123741391103265 -0.00025900107801488 0.00319801191666911 0.00170522058424218 8.462126707887e-05 -0.000958239781322189 -0.00175361797904945
"216" -0.000151002486057832 0.000171581659052951 -2.50606677206164e-05 9.09768505617164e-05 -5.22059716562016e-05 0.000131465543553489 -0.000260116285901451 0.000170493739849894 -0.000262883147263704 -0.00152354668479993 -0.000280638558204518 0.00294364889282153 0.00157233179199498 8.1230401014344e-05 -0.00103284116229036 -0.00165365611085638
"217" -0.000155178263157279 0.000165316517583416 -2.7609749879467e-05 8.9091393800129e-05 -4.76932776546638e-05 0.000141137705812898 -0.000260367628820105 0.000172489840452762 -0.000291959397879722 -0.00179238989116899 -0.000301338120901886 0.00266296414374981 0.00143468076392516 7.80447267721338e-05 -0.0011021692628519 -0.00155418105397239
"218" -0.000159672779046294 0.000159874649982665 -2.94905444532749e-05 8.75238842231038e-05 -4.28401055344283e-05 0.000150864601484185 -0.000260716567140272 0.000175356962889221 -0.000322279077564898 -0.00204262131946936 -0.000320916378331997 0.00235975971142318 0.00129324611336999 7.50773853713711e-05 -0.00116567681173223 -0.00145542870174584
"219" -0.000164481452122122 0.000155274334190527 -3.07369704770158e-05 8.62764390053692e-05 -3.76834044210374e-05 0.00016062318427154 -0.000261109739068135 0.00017905120412023 -0.000353456212556479 -0.00227311595215246 -0.000339193498331298 0.00203802853562677 0.00114900946291621 7.23621923769827e-05 -0.00122289131640914 -0.0013575434583405
"220" -0.000169584243259652 0.000151528799043448 -3.1391895599813e-05 8.53508593073611e-05 -3.22598814998159e-05 0.000170389441564741 -0.00026149625793792 0.000183521391866525 -0.000385077307654909 -0.00248294396243499 -0.000356000041636925 0.00170188650908138 0.00100296020219424 6.99058163103551e-05 -0.00127341579337443 -0.00126059115545584
"221" -0.000174968702704498 0.000148639702944789 -3.14963505149066e-05 8.47440180759469e-05 -2.66062929685692e-05 0.000180133890617318 -0.000261826281987536 0.000188707461465273 -0.000416721021658776 -0.00267135281988161 -0.000371176326061931 0.00135548437264024 0.000856075508703161 6.77308048854405e-05 -0.00131695714931022 -0.00116455534479435
"222" -0.000180612396605666 0.000146601358337042 -3.10991287713744e-05 8.44560793403725e-05 -2.07745072876485e-05 0.000189833534321492 -0.000262052061330638 0.000194535753248757 -0.00044795329794506 -0.00283775659144033 -0.000384584105252941 0.00100292999095696 0.000709328711538636 6.58489038427712e-05 -0.00135329437593809 -0.00106935494358971
"223" -0.00018648697468719 0.000145400528011925 -3.0256403205382e-05 8.44798482925959e-05 -1.48086023564218e-05 0.000199454880013979 -0.000262131777186666 0.000200928342867515 -0.000478340940828816 -0.00298172888543294 -0.000396086629106809 0.000648220069535571 0.000563680408748535 6.42708786918777e-05 -0.00138229855471007 -0.000974829551521216
"224" -0.000192571768672134 0.000145012999907134 -2.90249552031525e-05 8.48112243075141e-05 -8.76500163471234e-06 0.000208967081756962 -0.000262031524619847 0.000207798051010173 -0.000507451155673198 -0.00310299407621433 -0.000405573692199254 0.000295183833004111 0.000420064145121695 6.30060032697538e-05 -0.00140392772231646 -0.00088076770886833
"225" -0.000198828332468651 0.000145407761996003 -2.74655212411379e-05 8.5437368324963e-05 -2.69734287337002e-06 0.000218335102011016 -0.000261719208358844 0.000215055259328981 -0.00053486058756055 -0.00320141677735125 -0.000412949889765644 -5.25631789124729e-05 0.000279399497556025 6.20558735363293e-05 -0.00141822452209456 -0.000786904834054616
"226" -0.00020523058791148 0.00014654956958102 -2.56352988267967e-05 8.63504217746969e-05 3.33228288772121e-06 0.000227526687534726 -0.000261173875186634 0.000222599701382758 -0.000560155108977282 -0.00327700396545954 -0.000418132909335002 -0.000391654154933235 0.000142579104892619 6.14269045565751e-05 -0.00142531065900384 -0.000692932361824104
"227" -0.000211740841967616 0.000148393137152976 -2.36011340303553e-05 8.75380756518833e-05 9.26794866324118e-06 0.000236505449553943 -0.000260379005691161 0.000230333170780042 -0.000582943887799516 -0.00332988376604239 -0.000421065006072106 -0.000719005858713176 1.0455350577909e-05 6.11177444127431e-05 -0.00142537934886422 -0.000598500431608773
"228" -0.000218325327479266 0.00015088695481749 -2.14236411683871e-05 8.89804377099561e-05 1.50397071170631e-05 0.0002452355476099 -0.00025932487467063 0.000238149595076113 -0.000602851013823386 -0.00336032538800859 -0.000421702919418007 -0.00103182074386727 -0.000116154748723518 6.11213339679084e-05 -0.00141869421336128 -0.000503237845019644
"229" -0.000224945757807764 0.000153972413444473 -1.91658743408301e-05 9.06648049187495e-05 2.05919575101456e-05 0.000253682278548026 -0.00025801473708654 0.000245945551788816 -0.000619534507479116 -0.00336871010218993 -0.00042002312921702 -0.00132760679987618 -0.000236472729627733 6.1434851528364e-05 -0.00140557859638757 -0.000406746903125866
"230" -0.000231570065150867 0.00015758676715021 -1.68906827540418e-05 9.2571953868325e-05 2.58545232986564e-05 0.000261804369676192 -0.000256452129826045 0.000253620322141107 -0.0006326774594391 -0.00335554200088567 -0.000416026377854975 -0.001604159394636 -0.000349776478539513 6.20485925926055e-05 -0.00138641509998811 -0.000308626819601353
"231" -0.000238157071262847 0.000161661676237156 -1.46563133283752e-05 9.46812755583653e-05 3.07625133333106e-05 0.000269569078510429 -0.0002546560450581 0.000261065956367203 -0.000642001726723874 -0.00332145101315167 -0.000409725152590509 -0.00185957325851346 -0.000455396557387117 6.2945497090882e-05 -0.00136162937491009 -0.000208471798444534
"232" -0.000244669567622234 0.00016612771673448 -1.25202749310386e-05 9.69717230381938e-05 3.5255714865866e-05 0.00027693828519891 -0.000252647514616569 0.000268184535715598 -0.000647262459358704 -0.00326718833558783 -0.000401155308811277 -0.00209222716687185 -0.000552715771748963 6.41153960292778e-05 -0.0013316893953642 -0.000105879477491523
"233" -0.000251078221158266 0.000170906473395787 -1.05408775696173e-05 9.94166540585461e-05 3.92710589119251e-05 0.000283878258114906 -0.000250455991367344 0.00027487957233359 -0.00064826130281295 -0.00319362965491443 -0.000390367546043722 -0.00230076724731234 -0.000641188902132583 6.55346494509753e-05 -0.00129709597950683 -4.63547837191411e-07
"234" -0.00025733842622005 0.000175921994218963 -8.76905719385345e-06 0.000101997462893102 4.27448301922515e-05 0.000290356565281234 -0.000248123386770503 0.000281060243720503 -0.000644833625511142 -0.00310177662869717 -0.00037743865397686 -0.00248408921993033 -0.000720338376947631 6.7189278598173e-05 -0.00125837140317161 0.000108141784267665
"235" -0.000263423396048397 0.000181092852638994 -7.24672587222003e-06 0.000104682905334206 4.56281305384024e-05 0.000296341756434341 -0.000245691894406913 0.000286639219049809 -0.000636874050795248 -0.0029927637869021 -0.000362450393603763 -0.00264133644986078 -0.000789762145928156 6.9051609749527e-05 -0.00121606285908317 0.000220274601806893
"236" -0.000269297334307352 0.000186338493295863 -6.01824204027601e-06 0.000107455828885984 4.78608097547354e-05 0.000301803891104932 -0.00024321015394476 0.000291537067567972 -0.000624313079283355 -0.00286783729949347 -0.000345511184417617 -0.00277187574173435 -0.000849132339565791 7.10990756081653e-05 -0.00117072414658129 0.000336227313764774
"237" -0.000274927196760321 0.000191579015658971 -5.12197065038269e-06 0.000110285470728578 4.94022891574147e-05 0.000306715078835358 -0.000240733904000464 0.000295686680753179 -0.000607129122573151 -0.00272839141011844 -0.000326738700726717 -0.00287529317275336 -0.000898205399922112 7.33085708982985e-05 -0.00112291581351313 0.000456251672419793
"238" -0.000280279267322148 0.000196733949830141 -4.58530820716171e-06 0.000113149425159533 5.02025936594014e-05 0.000311052460377347 -0.000238318650669575 0.000299022906392028 -0.000585356464882723 -0.00257593461027451 -0.000306270240758907 -0.002951376213208 -0.000936825809492429 7.56527268478894e-05 -0.00107320489126294 0.000580545888079971
"239" -0.000285327731815851 0.000201727062200154 -4.43409371120427e-06 0.000116025895928498 5.02272479745525e-05 0.00031479786125183 -0.000236028240222391 0.000301494434959874 -0.000559071335700445 -0.00241210334904867 -0.000284251901780896 -0.00300009663618996 -0.000964919877923515 7.80989504081409e-05 -0.00102214754586284 0.00070924430772072
"240" -0.000290035007731458 0.00020648408199474 -4.68884352825852e-06 0.00011888886428738 4.94513370575286e-05 0.000317932712407899 -0.000233926500639075 0.000303058130822616 -0.000528402110296365 -0.00223866102869514 -0.000260842678648281 -0.00302161913544681 -0.000982509825855774 8.06252511126873e-05 -0.000970289204017364 0.00084242163323657
"241" -0.000294378977745216 0.000210933075822013 -5.35682678926057e-06 0.000121722937492057 4.7844483956637e-05 0.000320443601660727 -0.000232072611372424 0.000303680947371335 -0.000493524531497089 -0.0020574860232361 -0.000236215412762287 -0.00301628294053258 -0.000989703070201071 8.31985523410038e-05 -0.000918162268793102 0.000980072548197783
"242" -0.000298329119860948 0.000215007062156633 -6.44858937580709e-06 0.00012450594398286 4.53940666350072e-05 0.000322320962128454 -0.000230530506745651 0.000303342249689219 -0.000454662763231504 -0.00187056736704245 -0.00021055295481692 -0.00298460696908177 -0.000986693881992961 8.57896303100323e-05 -0.000866279314441841 0.00112211871629624
"243" -0.000301850643673996 0.000218650182802247 -7.95740334339273e-06 0.000127224785129304 4.20978303895601e-05 0.000323563174941773 -0.00022935809667702 0.000302029138916376 -0.000412084786891224 -0.00167998409154823 -0.000184036806294435 -0.00292727119860851 -0.000973788268584855 8.83753118368817e-05 -0.000815124389082848 0.0012683879097474
"244" -0.000304922865933437 0.000221803592323704 -9.87782830821938e-06 0.000129863927617428 3.79519965024681e-05 0.00032416926484551 -0.000228619076929726 0.000299743930301602 -0.000366103641788216 -0.00148789339032324 -0.000156865521509583 -0.00284512933323593 -0.000951365825818131 9.09262878228236e-05 -0.000765168726013709 0.00141862342655003
"245" -0.000307514152628164 0.000224424136989519 -1.21964022139329e-05 0.000132413443090317 3.29672766038053e-05 0.000324142303804699 -0.000228359900427711 0.000296495459825225 -0.000317069627775539 -0.00129651498306372 -0.000129238001981282 -0.00273920739874096 -0.000919892145838592 9.34198014652827e-05 -0.000716839345840869 0.00157247255587231
"246" -0.000309599387528339 0.000226469189763653 -1.48918899733768e-05 0.000134867136438099 2.71632943184969e-05 0.000323492622554684 -0.000228632902897035 0.000292307802387035 -0.000265373155773559 -0.00110810167358012 -0.000101353378516805 -0.00261069154164813 -0.000879920848070351 9.58295426486657e-05 -0.000670548845727199 0.00172948250289803
"247" -0.000311152261727304 0.000227906684742179 -1.79413273611196e-05 0.000137220324790049 2.05651994110564e-05 0.000322233611096298 -0.0002294829616275 0.000287210027497364 -0.000211444477737642 -0.00092490148072226 -7.34178220246433e-05 -0.00246092487014301 -0.000832097780968612 9.8134944124737e-05 -0.000626654333073805 0.00188909654967774
"248" -0.000312144109646341 0.000228716419923591 -2.13145040798689e-05 0.000139469521684139 1.32118360478836e-05 0.000320383605647185 -0.000230943581449072 0.000281245786801393 -0.000155733898525356 -0.000749142003197408 -4.56313274968915e-05 -0.00229142041863263 -0.000777138907621138 0.0001003142289663 -0.000585488598847556 0.00205065791789947
"249" -0.00031255793098139 0.000228879954015411 -2.49767713348357e-05 0.000141618459902779 5.14472259246177e-06 0.000317962760331634 -0.000233043204138808 0.000274467455044477 -9.87262845151331e-05 -0.000582975417148339 -1.81936105732364e-05 -0.00210384659854001 -0.000715834862745543 0.000102354076058571 -0.000547333289522763 0.00221340099149955
"250" -0.000312365592446219 0.000228390089750677 -2.88897560638406e-05 0.000143670377009775 -3.58732549320349e-06 0.000315001011092003 -0.000235803596693217 0.000266934464802318 -4.09274915081426e-05 -0.000428457825321161 8.70084288455706e-06 -0.00190001788954531 -0.000649040235770468 0.000104236195853777 -0.00051243371171591 0.00237646349946168
"251" -0.000311554192458545 0.000227247394318415 -3.30171439614009e-05 0.00014563278975586 -1.29194216903744e-05 0.000311527186862864 -0.000239245872728067 0.000258716437566434 1.71483768631836e-05 -0.000287499919285292 3.48661632586626e-05 -0.00168190933164246 -0.00057766847080416 0.000105955956233821 -0.000480983314394411 0.00253887681880949
"252" -0.000310099326109521 0.000225464077709006 -3.73142433907734e-05 0.000147515638593531 -2.27951775910469e-05 0.00030757636571013 -0.000243368211275216 0.000249888609455571 7.49694996568784e-05 -0.000161834443554942 6.01222521187639e-05 -0.0014516201536718 -0.000502679035190249 0.000107500054868309 -0.000453116513742158 0.00269958390657346
"253" -0.000307995342929305 0.000223051768481365 -4.17397455807971e-05 0.000149326934668752 -3.31393230190246e-05 0.000303184744440704 -0.000248178488903451 0.000240536403388152 0.000132000241698336 -5.29741584700631e-05 8.42998783540102e-05 -0.00121138574609761 -0.000425069521784315 0.000108866228586089 -0.0004289291605791 0.00285743604212602
"254" -0.000305233288465422 0.000220038109206486 -4.62529964341279e-05 0.000151082445740663 -4.38790271150864e-05 0.000298394630138144 -0.000253660480905149 0.000230750268895319 0.000187706278217189 3.78152427321882e-05 0.000107242965709473 -0.000963551453339293 -0.000345861269027208 0.000110047423380007 -0.000408446496246164 0.00301121385809164
"255" -0.000301807807929839 0.00021645246151355 -5.08074931881471e-05 0.000152790271266339 -5.49342549259314e-05 0.0002932461548668 -0.000259800643386241 0.000220624296575402 0.000241564088848078 0.000109553445202593 0.000128809342185733 -0.000710553741165563 -0.000266102750819081 0.000111051051310476 -0.000391645120851372 0.00315963631042323
"256" -0.000297721606679094 0.000212328284702084 -5.53606535530439e-05 0.000154463777642107 -6.62284296882874e-05 0.000287786702899363 -0.000266580947513732 0.000210257338971212 0.000293057075652626 0.000161551860412469 0.000148869894145374 -0.000454930736195901 -0.000186836278040994 0.000111881222773331 -0.000378435717975985 0.00330137215545297
"257" -0.000292987162310133 0.000207707470923259 -5.98827250885465e-05 0.000156116184739872 -7.76750478281034e-05 0.000282060140356731 -0.000273976367242677 0.000199751281198467 0.000341700111441877 0.000193440197936589 0.0001673151721715 -0.000199264441945688 -0.000109103428780861 0.000112541801679156 -0.000368672504564568 0.00343506562330825
"258" -0.000287618659622016 0.000202638509739131 -6.4331340296334e-05 0.000157758126241131 -8.91941523531657e-05 0.000276119686743365 -0.000281947440691863 0.00018921373517169 0.000387017148587271 0.000205168782560098 0.000184052412038213 5.38335412639188e-05 -3.39237572523615e-05 0.000113044588212701 -0.000362144396411075 0.00355934837037856
"259" -0.000281642575243224 0.000197167361330329 -6.86762028508876e-05 0.000159395030934242 -0.000100698692870231 0.000270008349621851 -0.000290458452040186 0.000178748338510758 0.000428581439339855 0.00019700325791491 0.000199007182564325 0.000301718798933464 3.77107724429371e-05 0.000113401335855388 -0.0003585910639277 0.00367287754718679
"260" -0.00027508908948116 0.000191348356581199 -7.28907837745831e-05 0.000161035781618594 -0.000112111464070284 0.000263777841876895 -0.0002994719274385 0.000168464989643665 0.000465983603149101 0.00016952306974091 0.000212123357184292 0.000541780043859689 0.000104858747874668 0.000113632603700076 -0.00035769076646262 0.00377433959126274
"261" -0.000268000389741875 0.000185234519680252 -7.69518105472773e-05 0.000162684162077399 -0.000123353990191627 0.00025747804724389 -0.000308940059808986 0.000158464780034577 0.000498874374778027 0.000123585433949628 0.000223367603782784 0.000771446930442161 0.000166626201897643 0.000113752373524388 -0.000359074947818058 0.00386249025785137
"262" -0.000260422931338583 0.000178883154640631 -8.08394915095953e-05 0.000164339633308355 -0.000134347370409356 0.000251153415849173 -0.000318818614870149 0.00014885943485514 0.00052693442015645 6.03212997612616e-05 0.000232724770508413 0.000988211314669285 0.000222188045595746 0.000113779330774407 -0.000362328163611364 0.00393616979061504
"263" -0.000252416248623605 0.000172350754917068 -8.45433425642555e-05 0.000166001614817503 -0.000145025447674521 0.00024485414048983 -0.000329058926477714 0.0001397447240235 0.00054989988692929 -1.89148312824607e-05 0.000240195468014035 0.00118969083170641 0.000270791846708869 0.000113737333281869 -0.000366986352048392 0.00399433595229982
"264" -0.000244037381081675 0.000165694422220425 -8.80511741239303e-05 0.000167661961419968 -0.000155315571769161 0.000238625798060342 -0.000339607026602927 0.000131224887322396 0.000567563000714544 -0.000112566004620705 0.000245805254026036 0.00137362965945122 0.000311770698297419 0.000113647943061945 -0.00037256214134566 0.00403607809571738
"265" -0.000235362366933961 0.00015897403205329 -9.13621877016308e-05 0.000169314500651289 -0.00016516006907121 0.000232511440244587 -0.000350416844192639 0.000123389581674344 0.000579765297082718 -0.000218922170439363 0.000249594739146141 0.00153795226307554 0.000344535488660888 0.000113534767178287 -0.000378533993518325 0.00406064924071098
"266" -0.00022646386958867 0.000152240925520073 -9.44760130129185e-05 0.000170945214143766 -0.000174496396683215 0.00022655555453237 -0.000361429870210305 0.000116330552500308 0.000586401519371338 -0.000336149038212456 0.000251623650604604 0.0016807923398197 0.000368598840892276 0.000113420515399986 -0.00038437698318818 0.00406747045565078
"267" -0.000217419242848607 0.000145557411567153 -9.7397968923366e-05 0.000172539772226497 -0.000183279774668687 0.000220795518510544 -0.000372592505844488 0.000110132675218408 0.000587430295807957 -0.000462332695475327 0.000251964743736477 0.00180051273234227 0.000383568038989329 0.00011333709334004 -0.000389551830454507 0.00405616054570111
"268" -0.000208317707406966 0.00013897380557273 -0.000100138594478902 0.000174085720164274 -0.000191461611906478 0.000215271133786304 -0.000383854362005169 0.000104869377513942 0.000582862036918407 -0.000595514121126811 0.000250710477741336 0.00189575481308786 0.000389155637438431 0.000113304310664909 -0.000393529489279226 0.00402652933770706
"269" -0.000199241939846235 0.000132543110248028 -0.000102707989006956 0.000175557613163783 -0.000199002502136778 0.00021001586243046 -0.00039515482145513 0.000100608502167558 0.000572759470548424 -0.000733713160895541 0.000247962279225187 0.00196547391049991 0.00038517522078324 0.000113345507810976 -0.000395797720479741 0.00397860451524948
"270" -0.000190277626482996 0.000126319313926214 -0.000105125784724524 0.000176939787191795 -0.000205871171251751 0.00020505933043649 -0.000406444503848464 9.74122071719036e-05 0.000557247494274749 -0.000874975256255505 0.000243838838216815 0.00200894626328097 0.000371538142655049 0.000113487736629359 -0.000395870979543052 0.00391261724927161
"271" -0.000181511535956562 0.000120349275128614 -0.000107403255769381 0.000178209031061998 -0.000212035591406306 0.000200433994390394 -0.000417663636702926 9.53319888828731e-05 0.000536491300978181 -0.00101738054496813 0.000238462622157112 0.00202581664637562 0.000348250421547776 0.000113752663655741 -0.000393297644066578 0.00382899514943518
"272" -0.00017302933135059 0.000114681755845661 -0.000109566070589286 0.000179344036326868 -0.000217480700888048 0.000196161543721888 -0.000428756564951999 9.44095753620887e-05 0.000510709679455311 -0.00115907532359168 0.000231969486078487 0.00201608545675166 0.00031542276415181 0.000114163308946438 -0.000387677131765675 0.00372837233501458
"273" -0.000164908116279871 0.00010935948022187 -0.000111631446857944 0.000180322965719575 -0.000222184311596749 0.000192266954668216 -0.000439667427621771 9.4675090023097e-05 0.000480170205322795 -0.0012982935721408 0.000224496985402891 0.0019801308770006 0.000273256657287594 0.000114743332392698 -0.000378668969608998 0.00361156149453328
"274" -0.00015723303194002 0.000104427564635244 -0.000113621012295381 0.000181126278496772 -0.000226137562816773 0.000188766497232517 -0.000450336115867636 9.61546317915143e-05 0.000445167424873937 -0.00143334581412815 0.000216189524073392 0.00191871881715817 0.000222038375500636 0.000115504194661084 -0.000365992010953625 0.00347954506263545
"275" -0.000150066585837617 9.99221746609709e-05 -0.000115557145587015 0.000181733732417209 -0.000229333145657606 0.000185676511239829 -0.000460710715923409 9.8859108338866e-05 0.000406044314991772 -0.00156265504887043 0.000207192523201041 0.00183297096701956 0.000162142603745315 0.000116467962899072 -0.000349437732057195 0.00333345467348286
"276" -0.000143485356346682 9.58807053225485e-05 -0.000117463445214232 0.000182125635449257 -0.000231776552882158 0.000183006807788008 -0.000470729951496927 0.000102786514728514 0.000363169495914276 -0.00168474791377893 0.000197652892899662 0.00172436381103652 9.40158468048704e-05 0.000117650718646986 -0.000328886148701113 0.00317454404804172
"277" -0.000137541125664579 9.23387906843558e-05 -0.000119357244571453 0.000182286828550654 -0.000233464870148536 0.000180763852092671 -0.000480340659076003 0.000107932541577973 0.000316930280643209 -0.00179826281032987 0.000187712928112449 0.00159468753661805 1.81876871013867e-05 0.000119058759248018 -0.000304284874764682 0.00300418515480523
"278" -0.000132292307501363 8.93221093145664e-05 -0.00012126401273527 0.000182205539720624 -0.000234410156330528 0.000178956092172266 -0.000489487703734304 0.000114276935427168 0.000267741975659177 -0.00190194843304595 0.00017751608702119 0.00144603117008264 -6.4760415632211e-05 0.000120701299292561 -0.000275680862600384 0.0028238259869799
"279" -0.00012777799551557 8.68601744707528e-05 -0.000123200402884879 0.000181866812400277 -0.000234627777435793 0.000177577409342036 -0.000498114910409047 0.000121790561667184 0.000216033164325447 -0.00199466673913495 0.000167193764773532 0.00128072009314974 -0.000154190157547954 0.000122584927556214 -0.000243194972556045 0.00263497284887637
"280" -0.00012403958779631 8.49755046523031e-05 -0.000125183663041172 0.000181263396027843 -0.000234134959718024 0.000176629009705978 -0.000506172930135523 0.000130432066431047 0.000162235313604991 -0.00207540048692704 0.000156883172745849 0.00110129266871271 -0.000249398617820756 0.000124715080664902 -0.000207047503249352 0.00243917263864905
"281" -0.000121106033528862 8.36847303038707e-05 -0.000127235096564023 0.000180390211623485 -0.000232953916587505 0.000176102727128078 -0.000513610661260735 0.000140158128628806 0.000106787419837716 -0.00214323441121829 0.000146700102340787 0.000910432719957589 -0.000349641966234635 0.000127086528658093 -0.000167532000474313 0.00223798752771198
"282" -0.00011899766641498 8.30028482798153e-05 -0.0001293650390471 0.000179245865535199 -0.00023110884098533 0.000175984934220507 -0.000520383514242186 0.000150909709259523 5.01319853530772e-05 -0.00219737526320629 0.000136759771084966 0.000710926687038223 -0.000454139290655431 0.000129697051538136 -0.00012503101484166 0.00203297458641206
"283" -0.000117724004655021 8.29372636331495e-05 -0.000131592681310414 0.000177826515778348 -0.000228634695832471 0.000176265864803555 -0.000526443887945503 0.000162618012554587 -7.30146434333674e-06 -0.0022371230246062 0.000127168505646015 0.000505604378475812 -0.000562076546891932 0.000132535227627001 -8.00015991085228e-05 0.00182567103335555
"284" -0.000117300130717406 8.3495708870383e-05 -0.000133928372014171 0.000176138426779323 -0.000225562206696114 0.000176924808282822 -0.000531758579378664 0.000175215969512688 -6.50921437055737e-05 -0.00226189315778803 0.000118019942256171 0.000297332135874 -0.000672616098917023 0.000135595628425141 -3.29664714206234e-05 0.0016175751831973
"285" -0.000117716036839307 8.46751917464438e-05 -0.000136383594243138 0.00017418733641581 -0.000221933772533958 0.000177942080567297 -0.000536292262826489 0.00018861859516465 -0.000122825933590492 -0.00227119696810736 0.000109395457203325 8.88964798424364e-05 -0.000784892989206366 0.000138855149544028 1.54847774545827e-05 0.00141014201855268
"286" -0.00011897168488941 8.64720536531129e-05 -0.000138972924994664 0.000171980565943371 -0.000217787081072938 0.000179295430780013 -0.000540014081477105 0.000202741912501874 -0.000180119638632495 -0.00226465246132689 0.000101371701945872 -0.000116945920715736 -0.000898051320428585 0.000142303113379263 6.47114041907449e-05 0.00120475694405112
"287" -0.000121052743854017 8.88737305381052e-05 -0.000141702109738547 0.000169528678553181 -0.000213170490644884 0.000180956593132897 -0.000542903616106444 0.000217496274175648 -0.000236597923100989 -0.00224196734197543 9.40028815612012e-05 -0.000317571628583352 -0.00101121122093949 0.000145914526869351 0.000114029252995895 0.00100273572062693
"288" -0.000123936499854639 9.18651461346088e-05 -0.000144580705446867 0.000166845065404873 -0.000208131735139327 0.000182895934371736 -0.000544942196472668 0.000232780569156617 -0.000291920481501052 -0.00220296059685723 8.73441959552126e-05 -0.000510483301625566 -0.0011235104456619 0.000149659419575621 0.000162719332508634 0.000805315227036692
"289" -0.000127605430354901 9.54252910898282e-05 -0.000147612748216257 0.000163945149955548 -0.000202724348723437 0.000185082685062079 -0.000546125662634052 0.000248496433499311 -0.000345757380237136 -0.00214754301539887 8.14291437686825e-05 -0.000693361120141911 -0.00123408269165032 0.000153518498124839 0.000210035555786789 0.000613657009693147
"290" -0.000132030202394622 9.95276050898274e-05 -0.000150809331615643 0.000160846707098813 -0.000196995860389588 0.000187481591481196 -0.000546446324446555 0.000264543467612444 -0.00039782322711292 -0.0020757242039529 7.62864632632841e-05 -0.000864050028210251 -0.00134208006032136 0.000157458748790055 0.000255219904398248 0.000428822827705961
"291" -0.000137183404293259 0.000104137465493388 -0.000154175018405128 0.000157566139490598 -0.000191009423564368 0.000190058520045344 -0.000545912111529654 0.000280813683805787 -0.000447852539748046 -0.0019876161082547 7.19310633410192e-05 -0.00102060822575044 -0.00144666469207727 0.000161444018816667 0.000297504591998198 0.000251790471082959
"292" -0.000143024883026995 0.000109221461097704 -0.000157709674565402 0.000154126197229689 -0.000184819806667739 0.000192777055186382 -0.000544535184871219 0.000297200878324823 -0.000495611130936632 -0.0018834153428755 6.83686865826806e-05 -0.00116128956420586 -0.00154703680882584 0.000165446983507003 0.000336135340890436 8.34400028531252e-05
"293" -0.000149517625529808 0.000114738316647085 -0.000161417301354088 0.000150548321163155 -0.000178488573818176 0.000195597016043992 -0.000542336676526641 0.0003136014220471 -0.000540897749276895 -0.00176342959584783 6.55917250227161e-05 -0.00128458083321298 -0.00164241090653775 0.000169428259989887 0.000370361202339706 -7.54337964046857e-05
"294" -0.000156627725710663 0.00012064203855093 -0.000165300967423675 0.000146855446941202 -0.000172074255607513 0.000198479469242853 -0.00053933946407113 0.000329906191559101 -0.000583538694297348 -0.00162806260009015 6.35887215831735e-05 -0.00138916838286815 -0.00173205464623662 0.000173353591164733 0.000399474906008029 -0.000224132753796653
"295" -0.000164307925987242 0.000126883492198698 -0.000169363027689819 0.000143070158862041 -0.000165638487621928 0.00020138510342865 -0.000535580247788353 0.000346015533020967 -0.000623390422363908 -0.00147782133545268 6.23368096524045e-05 -0.00147398567360592 -0.00181526851070521 0.000177184985135678 0.000422792576550516 -0.000362043326324002
"296" -0.000172514118961344 0.000133411736081614 -0.000173595215883064 0.000139218864915064 -0.000159239742400745 0.000204272278352036 -0.000531099791159224 0.000361825012772407 -0.000660342409326452 -0.00131331527397986 6.18003287600306e-05 -0.00153818335671133 -0.00189138925972413 0.000180888418894565 0.000439680579056417 -0.000488642912825133
"297" -0.000181202534782609 0.00014017247170788 -0.000177999207785697 0.000135328605178544 -0.000152939541180857 0.000207103601776217 -0.000525940482074284 0.00037723636295777 -0.000694313114329996 -0.00113526171472936 6.19463535481685e-05 -0.00158113522690913 -0.00195980800952198 0.000184426351264141 0.00044955368220449 -0.000603500266781762
"298" -0.000190322909577561 0.000147111641349135 -0.00018257208440378 0.000131424755562409 -0.000146796833292202 0.000209839407876987 -0.000520157620617106 0.000392156176008187 -0.000725252204673126 -0.00094448192395496 6.27229705153133e-05 -0.00160244972915852 -0.00201996801481113 0.000187766226125605 0.000451898412674116 -0.000706263530481897
"299" -0.00019982460097486 0.00015416841873654 -0.000187300480408272 0.000127535574696016 -0.000140866102628325 0.000212441811636855 -0.000513801578725089 0.000406496258173454 -0.000753129145200929 -0.000741896330730219 6.40846436274764e-05 -0.00160193833406058 -0.00207137774634334 0.000190874680691463 0.00044625463834088 -0.000796665614028851
"300" -0.000209659270502797 0.000161286606478836 -0.000192181243590713 0.000123689789348828 -0.000135201462458723 0.000214872753571793 -0.000506937057171751 0.000420170422609179 -0.000777943947827335 -0.000528526506196138 6.59694257766074e-05 -0.00157965136359174 -0.00211359665018322 0.000193719221727547 0.000432249327762337 -0.000874518831765744
"301" -0.00021976791681029 0.000168410083793119 -0.000197197420673638 0.000119917115533752 -0.000129853218359261 0.000217099940627203 -0.000499621390410624 0.00043310126472581 -0.000799720822956779 -0.000305496012609277 6.83152112745354e-05 -0.00153583560837411 -0.00214625634208618 0.000196273773821343 0.000409575576845756 -0.000939706023726041
"302" -0.000230097719279069 0.000175481049811064 -0.000202343373219027 0.000116247567164643 -0.000124864528029029 0.000219089820146327 -0.000491919145250307 0.0004452147730748 -0.000818502673268539 -7.4020836497352e-05 7.10622145100374e-05 -0.00147095465314999 -0.00216905881771194 0.000198511003622131 0.000378017133595248 -0.00099219173242281
"303" -0.000240588221807703 0.000182443969329366 -0.000207593933398161 0.000112713913276166 -0.000120278080043119 0.000220812771305133 -0.000483897015351704 0.000456450196223793 -0.000834358993824375 0.000164596363070964 7.41379533810745e-05 -0.0013856671780446 -0.00218176882352582 0.000200409192564297 0.000337435977110528 -0.00103200878283481
"304" -0.000251179341471643 0.000189250269936684 -0.000212935234743953 0.000109343316286739 -0.000116133549749273 0.000222240520743053 -0.000475616936882191 0.000466746828441497 -0.000847370232651886 0.000408971301728588 7.74724830269009e-05 -0.0012808036021866 -0.0021842480519076 0.000201948543082039 0.00028779234857501 -0.00105926651358245
"305" -0.000261811643611211 0.000195847355036979 -0.000218348665883586 0.00010617415546715 -0.000112458692732508 0.000223350255495324 -0.000467144816628405 0.000476055733843681 -0.00085763448502532 0.000657659432337815 8.09935350858505e-05 -0.00115738996470156 -0.00217641061522757 0.000203118325767233 0.000229129892313727 -0.00107414150691912
"306" -0.000272417271780741 0.000202189596311048 -0.000223803023436091 0.00010323283345749 -0.000109281452957817 0.000224119348718484 -0.000458543252635903 0.000484334151052027 -0.00086526335582351 0.000909168716868619 8.46284635278719e-05 -0.00101658627812438 -0.00215828572936528 0.000203905233421571 0.000161583105948483 -0.00107687442141227
"307" -0.000282929537349393 0.000208239475236984 -0.00022927816794209 0.000100554864375449 -0.000106619292330115 0.000224532690964697 -0.000449866190959906 0.000491546656323699 -0.000870385129904693 0.00116195755347854 8.8304399868523e-05 -0.000859703718858067 -0.00212996081098011 0.000204302411643126 8.53833476957418e-05 -0.0010677820319309
"308" -0.000293281937940188 0.00021395805834715 -0.000234744841522291 9.817447752036e-05 -0.00010448667677917 0.000224575700474242 -0.000441175302274497 0.000497671622247206 -0.000873124936196108 0.00141447564544791 9.19438815793533e-05 -0.00068817081261695 -0.00209164048014076 0.000204307666287483 8.51542552949394e-07 -0.0010472360401805
"309" -0.000303405652806371 0.000219315153269035 -0.00024017108263221 9.61186602826721e-05 -0.000102887044414746 0.000224238462893894 -0.00043251653231581 0.000502688492776166 -0.00087362916433361 0.00166517163888991 9.54749584788505e-05 -0.000503506609155949 -0.00204361486100668 0.000203924053873423 -9.15981573900719e-05 -0.00101567174924971
"310" -0.000313232053120867 0.0002242843501819 -0.000245526057764674 9.44252987007169e-05 -0.000101828374745753 0.000223516179176886 -0.000423940589683341 0.000506589645176193 -0.000872038597138966 0.00191251729998356 9.88283417827557e-05 -0.000307318624474944 -0.00198628414785008 0.000203157289686478 -0.000191465823151818 -0.000973587197053721
"311" -0.000322688544159352 0.000228844186878053 -0.000250781290114676 9.31176765153382e-05 -0.000101301946940641 0.000222403978590129 -0.000415491200578234 0.000509370658634286 -0.000868498897010862 0.00215503847153295 0.000101933312090294 -0.000101267344456997 -0.00192014949483139 0.000202018842135179 -0.000298158689755208 -0.000921529872879099
"312" -0.000331712720338713 0.00023298136945552 -0.000255895470828786 9.22297525558643e-05 -0.000101295323516872 0.000220906366342779 -0.000407205452445654 0.000511044017202019 -0.000863157446246801 0.00239134498813261 0.000104724561705964 0.000112973817362288 -0.0018458272613298 0.000200523404041078 -0.000411007897528089 -0.000860109898385014
"313" -0.000340230539837542 0.000236684353826736 -0.000260842310186477 9.17856170189706e-05 -0.000101794335846358 0.000219027743929147 -0.000399117475510039 0.00051162104783708 -0.000856160115065504 0.00262014624621107 0.000107139512399015 0.000333722353752624 -0.00176404085798191 0.000198686858730527 -0.000529258717680319 -0.000789974867145981
"314" -0.000348184452101198 0.000239950176828339 -0.000265587398996435 9.18073382180966e-05 -0.000102780656368669 0.000216779085450297 -0.000391255597084108 0.000511126614339529 -0.000847643377086549 0.0028402846000754 0.000109119874599906 0.000559309181437265 -0.00167562343416047 0.000196538282800379 -0.000652085179149251 -0.000711822831388936
"315" -0.000355508707248957 0.000242780853051316 -0.00027009614445511 9.2319166820101e-05 -0.000104226528090552 0.000214170526355925 -0.000383646037823418 0.000509590685026965 -0.000837744072858267 0.00305075236128082 0.000110612002476591 0.000788126267285788 -0.00158151798618143 0.000194097309211173 -0.000778585710042747 -0.000626386331266967
"316" -0.000362149027488729 0.000245178835838826 -0.000274344445255746 9.33323870176697e-05 -0.000106105241729038 0.000211221114316348 -0.000376304927457145 0.0005070493622027 -0.000826589107189008 0.00325071230089998 0.00011156528574061 0.00101861252988342 -0.00148278035954552 0.000191393744778343 -0.000907793412852813 -0.00053443288914522
"317" -0.000368054786890525 0.000247156353228822 -0.000278300055390295 9.48619635311026e-05 -0.000108386680518318 0.000207947809285395 -0.000369252972647243 0.000503547692298832 -0.000814297070959183 0.00343952462400135 0.000111940688467415 0.00124931802285065 -0.00138056535452609 0.000188457877206069 -0.00103867659282865 -0.000436751278598135
"318" -0.000373182587279612 0.000248726356462089 -0.000281942885364926 9.6912075217725e-05 -0.000111036242700433 0.00020437511332894 -0.000362502837675744 0.000499136747755286 -0.00080098260150837 0.00361673875644901 0.000111700247443268 0.0014788937079061 -0.00127613567785376 0.000185321919257499 -0.00117015937571442 -0.000334151463071999
"319" -0.000377500903075424 0.000249904888328777 -0.000285248858981337 9.94845946913544e-05 -0.000114021210357374 0.000200524597182203 -0.000356068381597893 0.000493870981177172 -0.000786742886136073 0.0037821182137691 0.000110815113185508 0.0017061100119389 -0.00117082068555877 0.000182022640922093 -0.00130112036880669 -0.000227450472286075
"320" -0.00038097513784572 0.000250713144953918 -0.000288204633208264 0.000102576355815429 -0.000117306705404921 0.000196426997071763 -0.000349952765068549 0.000487814162703162 -0.000771668868111038 0.0039356232452787 0.000109264601099722 0.00192987608515273 -0.00106603780570958 0.000178595429827161 -0.00143040492177103 -0.000117464793708841
"321" -0.000383591202361241 0.00025117368231749 -0.000290796589622713 0.00010617233631455 -0.000120860712275534 0.000192108223561674 -0.000344169034719594 0.000481034594321054 -0.000755836628019767 0.00407741620800019 0.000107029452864855 0.00214923746887791 -0.000963256769983652 0.000175072045113047 -0.00155683414631419 -5.00168004635642e-06
"322" -0.00038534069514548 0.000251308567504936 -0.000293017317009232 0.000110257230331254 -0.000124646621137018 0.000187599235089434 -0.000338724580524123 0.000473595685886603 -0.000739316136133277 0.004207857592027 0.000104109673511801 0.00236337964181558 -0.000863988344921027 0.000171492529292708 -0.00167922894912577 0.000109141721412892
"323" -0.000386221043978693 0.000251143984717132 -0.000294865480407325 0.000114806762440653 -0.000128631040138028 0.000182932211750024 -0.0003336244307304 0.000465580223032738 -0.000722161161130804 0.00432747210984467 0.000100501528150504 0.00257163090156259 -0.000769756035768443 0.000167892746943867 -0.00179640040100079 0.000224205290907714
"324" -0.000386243078430221 0.000250709133331247 -0.00029634381189588 0.000119790663164186 -0.000132787451344212 0.000178140897472079 -0.000328868221710753 0.000457057970395519 -0.000704418105583487 0.00443694839161108 9.6214487823641e-05 0.00277347158345472 -0.000682084828705566 0.000164304914152287 -0.0019071833013864 0.00033945637211111
"325" -0.000385429698348493 0.000250028221881659 -0.00029745963165359 0.000125170786371676 -0.000137080425305767 0.000173256402000706 -0.000324471392002875 0.000448111986185701 -0.000686118761679847 0.00453709418248031 9.12665149055129e-05 0.00296847957802396 -0.000602467699673602 0.000160768488971893 -0.00201044119634949 0.000454210236908559
"326" -0.000383800982682287 0.000249131587211255 -0.000298221769765948 0.000130906364088844 -0.000141491458984632 0.000168312354683105 -0.00032043066205475 0.000438821175035162 -0.000667290157699564 0.00462882045760711 8.56804309462576e-05 0.00315636909367188 -0.000532347090434884 0.000157313279850202 -0.00210507980219712 0.000567828487725136
"327" -0.000381396527061583 0.000248046919715446 -0.000298647943374219 0.000136950817597327 -0.000145988249030819 0.000163344078460848 -0.000316752524924451 0.0004292650164075 -0.000647950936042925 0.00471312537015319 7.94835297256295e-05 0.00333693856568595 -0.000473083313570873 0.000153970664688304 -0.00219007288819993 0.000679729932819061
"328" -0.000378261513841005 0.000246803998997885 -0.000298760969868528 0.000143250975357748 -0.00015055176865535 0.000158384883813367 -0.000313444342187727 0.00041952757235747 -0.000628109377103904 0.00479103583446788 7.27150454607205e-05 0.00351005916720326 -0.00042592733750082 0.000150767593758662 -0.00226444933858467 0.000789397396671279
"329" -0.000374441727943684 0.000245428767535502 -0.000298579183340474 0.000149751267865684 -0.000155164000727173 0.000153468556638852 -0.000310505601352802 0.000409685738228972 -0.000607771920327905 0.00486360681493491 6.54168608644634e-05 0.0036756621289483 -0.00039201914501876 0.000147738267637073 -0.00232734456666739 0.000896376410053336
"330" -0.000369994845844184 0.000243952341501731 -0.000298129619171079 0.000156392023072237 -0.000159805257082626 0.000148625254887335 -0.000307936035969931 0.000399819515862408 -0.000586940988412611 0.00493188335554947 5.76382563410607e-05 0.00383370321458597 -0.00037233629018743 0.000144899368762451 -0.00237797709073215 0.00100027951460106
"331" -0.000364974593205333 0.000242401189465695 -0.000297439182592871 0.000163114101154763 -0.000164460206086714 0.000143886451725506 -0.000305744585483211 0.000390003331466456 -0.000565615257524218 0.0049968715065575 4.94302640452916e-05 0.00398415731727357 -0.000367705850752773 0.000142275829570226 -0.00241567442252789 0.00110079410465012
"332" -0.000359447579254116 0.000240803242002047 -0.000296537252188192 0.000169853000682139 -0.000169117107270239 0.000139287734275258 -0.000303921731928092 0.000380311131992246 -0.000543790713010775 0.00505951153501017 4.08529291105366e-05 0.00412698267252051 -0.000378768537798767 0.000139882290958479 -0.0024398828006092 0.00119767345110034
"333" -0.00035347372149413 0.000239188006009598 -0.000295457588314156 0.000176546468768933 -0.000173759422046013 0.000134852801642867 -0.000302474467513538 0.00037081442607726 -0.000521469843502724 0.00512066949672438 3.19680337900561e-05 0.0042621124367977 -0.000405995426378836 0.000137741281352043 -0.00245016625836176 0.00129073405164791
"334" -0.000347124786391214 0.000237579432937949 -0.000294226872367885 0.00018313060854765 -0.000178381539914088 0.00013061248422364 -0.000301396005054778 0.000361575743957656 -0.000498652659832008 0.00518109200280352 2.28406668563781e-05 0.00438943606468253 -0.000449655285400345 0.000135861385276817 -0.00244621138353892 0.00137985803683492
"335" -0.000340461486398541 0.000236001777618119 -0.000292878235302376 0.000189543521851093 -0.00018297227130987 0.000126591025529494 -0.000300682761390723 0.000352660867577352 -0.000475347710897546 0.0052414194584054 1.35366607968949e-05 0.00450877351921732 -0.00050983180454354 0.000134248542670231 -0.00242784048806791 0.00146499114691353
"336" -0.000333551599315915 0.00023448285300354 -0.000291439768430521 0.000195722370035814 -0.000187525333279982 0.000122815098355449 -0.000300326782178835 0.000344121808893309 -0.000451568468251944 0.00530214609866811 4.12479430815074e-06 0.00461987856828872 -0.000586419131028285 0.00013291073088234 -0.00239499640382276 0.00154613152049167
"337" -0.000326456173012372 0.000233044393554569 -0.00028994502562569 0.000201607763271556 -0.000192032621854648 0.000119308572168895 -0.000300321954111715 0.000336016077031965 -0.000427332109715284 0.00536360540579786 -5.3211581209248e-06 0.00472243150085584 -0.000679133943524005 0.000131849515983279 -0.00234776329538731 0.00162332044411841
"338" -0.000319245230324994 0.000231709057741859 -0.000288417894829097 0.000207145863589286 -0.00019648682485416 0.000116088275082076 -0.000300657664920275 0.000328385134890121 -0.000402669715317562 0.00542597761464446 -1.47310484158724e-05 0.00481601902746538 -0.000787512628162416 0.000131062514770043 -0.00228634053674734 0.0016966504713314
"339" -0.00031197116413274 0.000230498449418714 -0.000286884672621366 0.000212281356994698 -0.000200885876752777 0.000113176185514143 -0.00030132051775456 0.000321271157459057 -0.000377618331399131 0.00548926251030804 -2.40344158046156e-05 0.0049001497030185 -0.000910933686518719 0.000130540385510326 -0.00221105556285068 0.00176623946954208
"340" -0.00030469714251767 0.00022942826071427 -0.000285374374269556 0.000216965417868481 -0.000205223752969749 0.000110586503393865 -0.000302302314189322 0.000314709986256743 -0.000352228938040357 0.00555328461632128 -3.31613088268318e-05 0.00497425907746222 -0.00104863271399397 0.000130280244389726 -0.00212234945320881 0.00183223519473383
"341" -0.000297478327976478 0.000228519839576323 -0.00028390375632623 0.000221154361198677 -0.000209494245640323 0.000108336363041673 -0.000303583414399586 0.000308729248049538 -0.000326556565684293 0.00561767603637924 -4.20371412913782e-05 0.00503770211704176 -0.00119970099787846 0.00013026194792237 -0.00202077364723165 0.00189480340917926
"342" -0.000290364687498099 0.000227785825269926 -0.000282498345337312 0.000224807019939588 -0.000213694855370288 0.00010643422456536 -0.000305153156204162 0.00030335541196624 -0.000300677780737812 0.00568188951622548 -5.05972888895276e-05 0.00508977853604808 -0.00136311658812434 0.00013047598466733 -0.00190698280999393 0.00195411861492721
"343" -0.000283401960315378 0.000227240520988494 -0.000281170898153963 0.00022788656521844 -0.00021781999297014 0.000104894692813205 -0.000306991536906921 0.000298604270879864 -0.000274675267188838 0.0057451851558307 -5.87733542271712e-05 0.00512974829329726 -0.00153774955819087 0.00013089881344081 -0.0017817282124757 0.0020103544140387
"344" -0.000276642349687024 0.000226892208748035 -0.000279941429599505 0.000230364944697876 -0.000221869349585009 0.000103721445351653 -0.000309082780023157 0.000294488958977921 -0.000248643057175098 0.00580663250955871 -6.65014594044098e-05 0.00515683703720455 -0.00172237677487819 0.000131509914737071 -0.00164585297221701 0.00206368440721525
"345" -0.000270123223352834 0.000226748624779439 -0.000278825986378486 0.000232216136960381 -0.000225837327467204 0.000102922895257203 -0.00031140961972269 0.000291015520257479 -0.000222687268089675 0.00586511788837559 -7.3723672623507e-05 0.00517026715054281 -0.00191569647785787 0.000132282253167246 -0.00150027795466509 0.00211426784164419
"346" -0.000263883518531551 0.000226819966936771 -0.000277827277301586 0.000233424610104107 -0.000229717377600717 0.000102500180580934 -0.000313952666845483 0.00028818608260653 -0.000196930309711707 0.00591935808622345 -8.03800411409338e-05 0.00516928862277965 -0.00211634354871968 0.000133187709894187 -0.00134600038093055 0.00216223825557364
"347" -0.00025795944045475 0.000227101935575097 -0.000276959032375376 0.000233972721378706 -0.000233507360800116 0.000102454518342067 -0.000316696558024684 0.000285993350820921 -0.000171492730816798 0.00596789450079506 -8.64164208969733e-05 0.00515316580205465 -0.00232290528617807 0.000134199875658644 -0.00118407572619893 0.00220770950313914
