"V1" "V2" "V4" "V5" "V7" "V8" "V10" "V11" "V13" "V14" "V15" "V17" "V18" "V20" "V21" "V23"
"1" -1.19122465649336e-05 -7.03268156379286e-05 -3.59123448007004e-05 -1.2326373896577e-05 3.083348451399e-06 1.21214842622758e-05 -2.15936023939767e-05 3.19139649405965e-06 -2.15334772071531e-05 -2.65258409433563e-05 2.2453299892774e-05 7.47958249211261e-08 -1.33776900742455e-05 -2.00350625019217e-05 -1.87926290071666e-05 -4.89999694354498e-05
"2" -9.74650012411269e-05 -6.18785418980733e-05 -3.16920096262017e-05 -2.37600268800835e-05 1.71676780478113e-05 4.01246773597258e-05 4.01504125631737e-05 9.92619142280706e-06 -2.02119613837039e-05 2.31864131762722e-05 4.4312708720422e-05 1.71187806284614e-05 2.29494861015935e-05 -7.1598181083135e-07 -3.75228506038545e-05 1.25617800759206e-05
"3" -0.000184014687227114 -5.19894479092767e-05 -2.74243231615595e-05 -3.47760704896572e-05 3.06853000679076e-05 6.74862233804718e-05 0.000102262249137368 1.60162666334962e-05 -1.92268002984077e-05 7.22447393166059e-05 6.56539953368681e-05 3.41910417816386e-05 5.90784362881212e-05 1.83281024153902e-05 -5.62030155329478e-05 7.44532925697349e-05
"4" -0.000272105074770042 -4.108677218667e-05 -2.39803124678177e-05 -4.53722558320749e-05 4.31866520521236e-05 9.39579071458472e-05 0.00016398628321854 2.12487934546343e-05 -1.89707524909427e-05 0.000120203687647439 8.63857854073705e-05 5.15340996111715e-05 9.50018130293015e-05 3.73268060988075e-05 -7.45914363985596e-05 0.000136366262837658
"5" -0.000362203749878925 -2.96316929107471e-05 -2.22386034579439e-05 -5.55529785376548e-05 5.42459677321921e-05 0.000119307762278609 0.000224555071089577 2.54263110485833e-05 -1.98333642048884e-05 0.000166612598563808 0.00010642567319449 6.93826127329453e-05 0.000130708236746839 5.65143502375581e-05 -9.24384450485056e-05 0.000197990934925994
"6" -0.000454708814582788 -1.80989662057814e-05 -2.30654627447705e-05 -6.53298580197069e-05 6.34615826092379e-05 0.000143312910259302 0.000283185673650815 2.83766015264986e-05 -2.21751890196604e-05 0.000211055373744736 0.000125698960111276 8.79692486702278e-05 0.000166190190506061 7.61244772913244e-05 -0.000109502120977076 0.00025901596950866
"7" -0.000549909278588756 -6.97680731109298e-06 -2.73016663994965e-05 -7.47132902959829e-05 7.04615440152137e-05 0.000165772980773132 0.000339103630085553 2.99516275870814e-05 -2.63322429219658e-05 0.000253134519920448 0.000144143789095586 0.000107513639279538 0.000201434092025365 9.63862415573394e-05 -0.000125535731770419 0.000319124971403418
"8" -0.000648008569782234 3.24716471864803e-06 -3.57398142435434e-05 -8.37162723359837e-05 7.49045643236594e-05 0.000186498703488024 0.000391544044084773 3.00306699929469e-05 -3.26037799527549e-05 0.000292481803461455 0.000161701749591483 0.000128223171493571 0.000236418845112761 0.000117521717265296 -0.000140307273488691 0.000378010224713228
"9" -0.000749097061168684 1.21071883398319e-05 -4.9115719579057e-05 -9.23487849790936e-05 7.64949170350933e-05 0.000205318898406668 0.0004397782378206 2.85163925906542e-05 -4.12498587093151e-05 0.000328770511866586 0.000178326355778454 0.000150281178507238 0.000271118777975559 0.000139736439222163 -0.000153590594128288 0.000435366357078399
"10" -0.00085315347797472 1.91644654902001e-05 -6.80818889717205e-05 -0.0001006205956232 7.49743628319621e-05 0.000222083972318609 0.000483112894884834 2.53408110315493e-05 -5.24818546438841e-05 0.000361703656241369 0.000193973260274105 0.000173854543712074 0.000305497709183603 0.000163219658249614 -0.00016517329658691 0.00049089647263854
"11" -0.000960050604943993 2.40172477445587e-05 -9.3205833103859e-05 -0.000108531904933333 7.01289034091489e-05 0.000236658069344401 0.00052090755828521 2.04597938415319e-05 -6.64668089575114e-05 0.000391045433362558 0.000208602155722486 0.00019908092029073 0.000339510066059512 0.000188143079548977 -0.000174853586105733 0.000544316382490327
"12" -0.00106956402766555 2.63067038038653e-05 -0.000124939329523882 -0.000116083306827523 6.17861540992575e-05 0.000248924574704257 0.000552588438691291 1.38484891749501e-05 -8.33279109551301e-05 0.000416589073041617 0.000222174253400727 0.000226072320929308 0.000373101491956594 0.000214653371432876 -0.000182448353972795 0.000595358628210029
"13" -0.00118135789830986 2.57350250012713e-05 -0.000163623552508207 -0.000123262922303502 4.98308449249072e-05 0.000258782971470128 0.000577654025383728 5.51277634318489e-06 -0.00010312348436833 0.000438198596445615 0.00023465952195915 0.000254907243776503 0.000406207949645456 0.000242871063695703 -0.000187798481347332 0.000643770472774675
"14" -0.00129503389904904 2.20548001218935e-05 -0.000209476946512257 -0.00013005155139111 3.41838727408366e-05 0.000266156544152011 0.000595686832008302 -4.53026285428449e-06 -0.000125866760152522 0.000455782038727746 0.000246018035933995 0.000285636080691055 0.000438755136795579 0.000272888784824993 -0.000190760506970536 0.000689321900102241
"15" -0.00141009879732594 1.509498476893e-05 -0.000262581224089519 -0.000136422744365899 1.48098230994736e-05 0.000270979124149144 0.000606367241834457 -1.62454605368815e-05 -0.000151519456401169 0.000469308498650245 0.000256215619904463 0.000318267894838808 0.000470657657800041 0.000304768684671397 -0.000191215517500601 0.000731804539632291
"16" -0.00152601396704719 4.74604451609577e-06 -0.000322888668265559 -0.000142342419910524 -8.27391009967263e-06 0.000273202899191655 0.000609467868510076 -2.95772579529092e-05 -0.00017999045206327 0.000478798669612127 0.000265215104861639 0.000352780774135017 0.000501825676533957 0.000338535846638051 -0.000189076597875987 0.000771037448958614
"17" -0.00164219192207545 -9.02846709174898e-06 -0.000390223902616225 -0.000147766353128784 -3.50169378152348e-05 0.000272802124084117 0.000604870564320014 -4.44643716556134e-05 -0.000211139286434687 0.000484338458122947 0.000272972511896421 0.000389115712117347 0.000532155081980144 0.000374191144085555 -0.000184269801522194 0.000806863085469098
"18" -0.00175801023537655 -2.61916970344396e-05 -0.000464274765427741 -0.000152641830750802 -6.53226363133489e-05 0.000269764150538151 0.000592562239308259 -6.08290582595257e-05 -0.000244776176220668 0.000486070383739317 0.000279450109992684 0.000427175709802768 0.000561542648047327 0.000411693956115755 -0.000176759525689866 0.000839155458390581
"19" -0.00187283606336879 -4.66393983888787e-05 -0.000544607896445535 -0.000156908589326707 -9.90575666407139e-05 0.00026409066614605 0.000572632468519275 -7.85852801914476e-05 -0.000280668395458346 0.000484183464752179 0.000284598894531011 0.000466829934080982 0.000589869241238755 0.000450973670169543 -0.000166533991865118 0.000867817204056862
"20" -0.00198602138782309 -7.0191314063766e-05 -0.000630673528119665 -0.000160500535786284 -0.000136048726581165 0.000255806111735212 0.000545287154712563 -9.76379992064852e-05 -0.000318538880793933 0.000478927000993126 0.000288370464697307 0.000507910559886032 0.000617018921826042 0.000491923690563357 -0.000153605997063578 0.000892779214328393
"21" -0.00209692007488472 -9.65962632719047e-05 -0.000721825618173165 -0.000163341658358099 -0.000176090584065012 0.00024494559705071 0.000510819699168439 -0.000117882575551217 -0.000358074475354891 0.000470594167549309 0.000290717344196654 0.000550217095779776 0.000642865513335163 0.000534402475433693 -0.000138021489215586 0.000914004969213444
"22" -0.00220489896483166 -0.000125541578557583 -0.000817311464050779 -0.00016535454353239 -0.0002189448065214 0.000231564682861341 0.00046963660391415 -0.000139204743735821 -0.000398915433153525 0.000459527482420854 0.000291591946024941 0.000593519834795606 0.000667283551745996 0.000578238472483033 -0.000119847259593297 0.000931478434313031
"23" -0.00230934288413352 -0.000156647823607917 -0.000916308551859398 -0.000166451919478694 -0.000264332841179987 0.000215735562894589 0.000422221065371613 -0.000161478357376998 -0.000440682334829469 0.000446099431917544 0.000290940454989986 0.000637556721139557 0.000690139500147118 0.000623228830146314 -9.91795136240554e-05 0.000945223261839159
"24" -0.00240964729386537 -0.000189479397655353 -0.0010179293556486 -0.000166549993875716 -0.000311951119418583 0.000197543967599212 0.000369139553505155 -0.000184568125110583 -0.000482955374328637 0.000430727477888358 0.000288720878071101 0.000682046125027582 0.000711304185246931 0.000669138183989793 -7.61382797999311e-05 0.000955273413492508
"25" -0.00250522875314833 -0.000223546579373957 -0.00112123090575428 -0.00016555864095076 -0.000361468856959958 0.000177095359377483 0.000311039175211333 -0.0002083249716319 -0.00052529334345367 0.000413844114012188 0.000284890758136303 0.000726676882020446 0.000730647195264587 0.000715708235531671 -5.08684518167257e-05 0.000961703922954772
"26" -0.0025955280669607 -0.000258312234065576 -0.0012252395095864 -0.000163391302723136 -0.00041252186909931 0.000154508852511058 0.000248613757414259 -0.000232588538157297 -0.000567234110927098 0.000395910281663502 0.000279408355617793 0.000771125973620659 0.000748038498282089 0.000762651887315462 -2.35328049107489e-05 0.000964601738861997
"27" -0.00268000456495023 -0.000293201360930059 -0.00132895982869239 -0.000159956853662223 -0.000464723602318444 0.000129920822653952 0.000182616621248376 -0.000257184007624374 -0.000608295998189205 0.000377402511582763 0.000272247489065507 0.000815050130561975 0.000763349484173988 0.000809662400199355 5.68595983452521e-06 0.000964076064960094
"28" -0.00275814535916545 -0.000327603853072858 -0.00143139273743578 -0.000155169954987278 -0.000517664690873626 0.000103480668462161 0.000113834462027856 -0.000281921618341443 -0.00064798807819364 0.000358797536543395 0.000263384309525999 0.000858100400939247 0.000776458706432614 0.000856414578806879 3.65837003568128e-05 0.000960263767004365
"29" -0.00282945210761026 -0.000360887127935647 -0.00153153987474079 -0.000148947004461564 -0.00057091336697211 7.53521791941419e-05 4.30818143176945e-05 -0.000306600904232838 -0.000685817649217339 0.000340576593622704 0.000252804629586445 0.000899917215206253 0.000787246261848985 0.000902569663638986 6.89466718419465e-05 0.000953313117746673
"30" -0.00289345090732125 -0.000392407709363534 -0.00162843206785597 -0.000141208851805884 -0.000624027226764518 4.57142991035734e-05 -2.88195192599133e-05 -0.000331007833889433 -0.000721278000059181 0.000323222251819977 0.000240506311502151 0.000940142351876059 0.000795603572949453 0.000947771473781154 0.000102547875279315 0.000943392237802242
"31" -0.00294969426154035 -0.000421506052062594 -0.00172112809046013 -0.000131881179879271 -0.000676544146545482 1.47512986568761e-05 -0.000101033435868446 -0.000354917600191498 -0.000753882151665546 0.000307195335036827 0.000226491985728798 0.000978412809341431 0.000801426812459469 0.000991663462242429 0.000137152699521906 0.000930686917820824
"32" -0.00299775313264309 -0.000447537548750258 -0.00180872425535702 -0.00012089739422538 -0.00072799503481098 -1.73388315869146e-05 -0.000172744061719881 -0.000378095020067866 -0.000783142690270276 0.00029295163086529 0.000210784566891184 0.00101438149237504 0.00080462943418856 0.00103388484563804 0.000172514778116569 0.00091539895257061
"33" -0.00303723222987035 -0.000469870455961668 -0.00189037698710539 -0.000108197590690313 -0.000777910308812152 -5.03467410149476e-05 -0.000243146376306109 -0.000400295139874852 -0.000808596281314849 0.000280914764630305 0.000193414148262423 0.00104770394176583 0.000805133490171459 0.00107407499432507 0.000208388664057342 0.000897737563151358
"34" -0.00306775446069434 -0.000487888368241826 -0.00196529321345723 -9.37318438137623e-05 -0.000825813408264387 -8.40651569456927e-05 -0.000311461375394395 -0.000421269069773459 -0.000829800412590355 0.000271488660761879 0.000174418038569659 0.00107805475039863 0.000802877462844432 0.00111187921797472 0.00024452634628438 0.000877935639974234
"35" -0.00308897922946166 -0.000501017454714397 -0.00203275193184925 -7.74591280334112e-05 -0.000871233233038239 -0.000118275780995789 -0.00037695183175663 -0.000440769128276654 -0.00084634169151426 0.000265044053931405 0.00015385496104473 0.001105124010246 0.000797814173928828 0.00114695928605906 0.00028068210879238 0.000856227502352361
"36" -0.00310060268238725 -0.000508731051027607 -0.00209210500672371 -5.93500335670028e-05 -0.00091371160726232 -0.000152756402842349 -0.000438919943313675 -0.000458539492853719 -0.000857841328482873 0.000261917474587969 0.000131788015698349 0.00112863141148359 0.000789922794635772 0.00117898804725962 0.000316615368895718 0.000832862222481438
"37" -0.00310235835626325 -0.00051055426370707 -0.00214277816025981 -3.93872603195897e-05 -0.000952798021456378 -0.000187290448547884 -0.000496714382310684 -0.000474334617996881 -0.000863960187971312 0.000262409181764737 0.000108296820265336 0.00114831658892233 0.000779190953208045 0.00120766197748368 0.000352092784800311 0.000808092987637713
"38" -0.003094029379478 -0.000506081184167148 -0.00218428356557517 -1.7571846465269e-05 -0.000988065895425824 -0.00022165305487943 -0.000549752737270223 -0.000487910971302154 -0.000864404749094932 0.000266777482366262 8.34712383043544e-05 0.00116395521300768 0.000765639297545673 0.00123270232484414 0.000386888051965699 0.00078217970203697
"39" -0.00307543292927184 -0.000494977757519739 -0.00221621637231524 6.08984716929948e-06 -0.00101910771535117 -0.000255627081830496 -0.000597498742559124 -0.000499038123311653 -0.000858931440281342 0.000275244920220883 5.74141200549306e-05 0.00117535528599542 0.000749306305911515 0.00125386725906133 0.000420791787150095 0.000755377585368507
"40" -0.0030464515842484 -0.000477000896461933 -0.00223826238048911 3.1563663529744e-05 -0.001045550899402 -0.000288993023224146 -0.000639488916758098 -0.000507493194670464 -0.000847346201987178 0.000287983299327793 3.02407077514394e-05 0.00118236440010901 0.000730259164734159 0.00127094095537346 0.000453604496315938 0.000727945726132402
"41" -0.00300702125179461 -0.000451994341512069 -0.00225019389854495 5.88040532529048e-05 -0.00106704949773438 -0.000321541491968376 -0.000675330567141113 -0.000513074562226793 -0.000829520712682395 0.000305128952894102 2.07800605385201e-06 0.00118486865214991 0.000708586550643969 0.00128375537718285 0.000485143041939678 0.000700132571698225
"42" -0.00295713357283399 -0.000419905005551334 -0.00225187654908536 8.7741820178401e-05 -0.0010833005027394 -0.000353061324797075 -0.000704694353117051 -0.000515594935169156 -0.00080537349595216 0.000326766982228512 -2.69360045697423e-05 0.00118279769479447 0.00068440229006758 0.00129218565805745 0.000515248247525462 0.000672176123025451
"43" -0.00289685217516312 -0.000380788051434722 -0.00224327139725529 0.000118293066196643 -0.0010940358214288 -0.000383353275038773 -0.000727328063952245 -0.000514887669406133 -0.000774898072055139 0.00035293897792823 -5.66508240270652e-05 0.0011761238125653 0.000657852716507485 0.00129614798867401 0.000543774030963632 0.000644299813795291
"44" -0.0028263083077935 -0.000334806606858038 -0.00222442627600133 0.000150346929362477 -0.00109904271210952 -0.000412222146418745 -0.00074305777384759 -0.000510811655174979 -0.000738138631924412 0.000383647633626378 -8.69106295097567e-05 0.00116486943189577 0.000629099432652221 0.00129561422490505 0.000570595922936638 0.00061670952305449
"45" -0.00274570019857718 -0.000282231611057982 -0.00219548176349871 0.000183776276989803 -0.00109815157365983 -0.000439480432030914 -0.000751770982422829 -0.000503250617322986 -0.000695211402270538 0.00041884117472821 -0.000117544777846586 0.00114909402919602 0.000598337974192436 0.00129060322443652 0.000595611073323919 0.000589585383701426
"46" -0.00265530719970406 -0.00022345035248709 -0.00215666757244843 0.000218428451667161 -0.0010912490271801 -0.000464953010447638 -0.000753439716612306 -0.000492120091817999 -0.000646289566708938 0.000458439634572585 -0.000148371719359248 0.00112891201260898 0.000565782764950083 0.00128119078574003 0.000618744155554295 0.00056307852212962
"47" -0.00255547731281847 -0.000158956556367385 -0.0021083039813842 0.000254130337895724 -0.00107827966063206 -0.000488469457677445 -0.000748095110730159 -0.000477356343459235 -0.000591611231986646 0.000502300073024469 -0.000179209101043024 0.00110447560596339 0.000531667445306469 0.00126749770409055 0.000639935521223299 0.00053732145341117
"48" -0.00244663777274371 -8.93370948967041e-05 -0.00205078021124922 0.000290695212968386 -0.00105923814190007 -0.000509880788522076 -0.000735846829630893 -0.000458939327900697 -0.000531475591759492 0.000550254284523372 -0.000209869738511162 0.00107597964057144 0.000496246861046653 0.00124970202711526 0.000659145683606334 0.000512404012193179
"49" -0.00232928540789143 -1.52734513090079e-05 -0.00198457273489325 0.000327913811762863 -0.00103418210658144 -0.000529042366037351 -0.000716859287533741 -0.000436873887705227 -0.000466230130372025 0.000602089840426054 -0.000240155736002076 0.00104366220332231 0.000459793954177585 0.00122802539486769 0.00067636257341822 0.000488392659579634
"50" -0.0022039860737368 6.2489758943726e-05 -0.00191021735016968 0.000365564359013149 -0.00100322550901745 -0.00054582999077751 -0.000691356588223772 -0.000411202253150892 -0.000396286146149052 0.00065755211069722 -0.000269876224737517 0.00100779360542171 0.00042258826880266 0.00120273671518652 0.00069158966801456 0.000465320986107929
"51" -0.00207137366906594 0.000143139352284444 -0.00182831719518522 0.000403412813998477 -0.000966537543861124 -0.000560135839666845 -0.000659617583025886 -0.00038199845697922 -0.000322095530652656 0.000716352172453274 -0.000298836510226895 0.000968679278247312 0.000384921246075849 0.00117414047495233 0.000704850677692145 0.000443188370568804
"52" -0.00193214379225259 0.000225831733054245 -0.00173951902772862 0.000441222776826663 -0.000924340259828384 -0.000571874289265227 -0.00062196314163121 -0.000349377781386986 -0.000244155407212457 0.000778159235811074 -0.0003268503984052 0.000926653833666182 0.00034709030810767 0.00114257713695526 0.000716190298908942 0.000421978371675778
"53" -0.00178704482226121 0.00030971117969789 -0.00164451622143693 0.000478753354195221 -0.000876916134862041 -0.000580978783516054 -0.000578758224334532 -0.000313486538656585 -0.000162999845777924 0.000842614345137786 -0.000353742485212645 0.000882072653097731 0.000309389143614761 0.00110841247719129 0.000725659383359445 0.000401642567385261
"54" -0.00163687579983371 0.000393917639986371 -0.00154403533858658 0.000515763539753879 -0.000824580318040551 -0.000587407649420862 -0.00053039551778421 -0.0002745050737866 -7.91947445181238e-05 0.000909322004648289 -0.000379342171598531 0.000835310699590975 0.000272109797969662 0.00107203282357178 0.000733329803881017 0.000382118463359484
"55" -0.00148247486540452 0.000477630114649668 -0.00143881291916695 0.000552025144041503 -0.000767705965841913 -0.000591146630993688 -0.000477295142307626 -0.000232650034079277 6.67175173645607e-06 0.000977860484253333 -0.000403499794304006 0.000786760192817138 0.00023553487298105 0.00103383532986032 0.000739280610752026 0.00036333162187354
"56" -0.00132470696606998 0.00056007792774276 -0.00132960885710315 0.000587317780008591 -0.000706699161029403 -0.000592208584275561 -0.000419893679038394 -0.000188169104662338 9.39936797861513e-05 0.00104777567133185 -0.000426080470662243 0.000736813405839785 0.000199935349620442 0.000994220284599714 0.000743607827158542 0.000345201645237656
"57" -0.00116446640543543 0.000640550355598482 -0.00121717967828416 0.00062144078190114 -0.00064199781548564 -0.000590635683838068 -0.000358645156422084 -0.000141340054952034 0.000182153623256695 0.00111859204845842 -0.000446972512468417 0.00068587263748369 0.000165563085750046 0.000953590855765883 0.000746406037763655 0.000327639372787582
"58" -0.00100266028036907 0.000718428165232058 -0.0011022773704735 0.00065421012388367 -0.000574068280509156 -0.000586498554601051 -0.000294003999615606 -9.24682736843339e-05 0.000270535170265736 0.00118981287261843 -0.000466083837365656 0.000634338188596079 0.000132654262838244 0.000912335463917641 0.000747782934582915 0.000310566799647719
"59" -0.000840203462409804 0.000793184528299274 -0.000985641222686291 0.000685466147027436 -0.000503407039102506 -0.000579896923025853 -0.000226432819943644 -4.18789278912794e-05 0.000358523618373076 0.00126093193392983 -0.000483344029091181 0.000582599563589184 0.000101417981044821 0.00087082858823501 0.000747844625185132 0.000293903879379869
"60" -0.000678012380143007 0.000864393036864168 -0.000867988841072793 0.000715073713987339 -0.000430519978239424 -0.000570958359744541 -0.000156391141190058 1.00756181429538e-05 0.000445511405498503 0.00133142227728453 -0.000498710387263001 0.000531040512849223 7.20432289161277e-05 0.000829427202818778 0.000746706886846135 0.000277593896411551
"61" -0.000516995865606038 0.000931729950327366 -0.000750025095074389 0.000742919824036218 -0.000355928764013438 -0.000559837463443647 -8.43393583853171e-05 6.30332718423107e-05 0.000530911427207903 0.00140076322535204 -0.000512159621408336 0.000480027367325113 4.46920385427314e-05 0.000788464889942201 0.00074448515432428 0.000261581591145765
"62" -0.000358046729661649 0.000994973202509481 -0.000632429110592114 0.000768921722538398 -0.000280161010245879 -0.000546711001126493 -1.07323757733176e-05 0.000116618277426282 0.000614159669361594 0.0014684368846054 -0.000523698151609851 0.000429912290437302 1.94957470389838e-05 0.000748251400455109 0.000741292759071409 0.000245834153953473
"63" -0.000202045535568599 0.00105399359467075 -0.000515852068750542 0.00079301407628073 -0.000203752888118265 -0.000531775059764594 6.39763467077434e-05 0.000170446818343072 0.000694721589599784 0.00153393030411087 -0.000533346808552274 0.000381022358532738 -3.4344126318372e-06 0.000709065423046888 0.000737249397583446 0.000230329771495186
"64" -4.98367302344027e-05 0.00110874825506112 -0.000400922607535919 0.000815156312220894 -0.000127229600733656 -0.000515247784017845 0.000139340258919259 0.000224141108647391 0.000772089503817269 0.00159675368287224 -0.000541145853963714 0.000333665658793286 -2.40183113551159e-05 0.000671163141999343 0.000732474876456058 0.000215064436214763
"65" 9.77632844803565e-05 0.00115926753414462 -0.000288240822208794 0.000835332446433604 -5.1114612080917e-05 -0.000497355741273649 0.000214918993290736 0.000277316623323438 0.000845795858432379 0.00165643209289849 -0.000547159999276523 0.000288125053080948 -4.21990152578131e-05 0.00063477050465357 0.000727083350031977 0.000200050352703571
"66" 0.000239981428596713 0.00120564358829564 -0.000178385811430852 0.000853536304007608 2.40828658175174e-05 -0.000478336702669824 0.000290264982455635 0.000329607763191666 0.00091541836802347 0.00171253274892982 -0.000551459746796854 0.000244656785662226 -5.79491275193081e-05 0.000600087096305831 0.000721194256632472 0.000185311242341557
"67" 0.000376091051794113 0.0012480177945708 -7.19107884183507e-05 0.000869782205375658 9.78616152408475e-05 -0.00045843059165889 0.00036494997189343 0.00038065648820286 0.0009805769851957 0.00176465390273647 -0.000554131088010894 0.000203486212508179 -7.12623222015873e-05 0.000567287457609574 0.00071492238298309 0.000170880369149635
"68" 0.000505419405382456 0.0012865625131567 3.06651575214336e-05 0.000884096816157691 0.00016975262443521 -0.000437881928130109 0.000438535510737149 0.000430128446292709 0.00104094160092899 0.00181244119513715 -0.000555272045481866 0.000164815139482345 -8.21550213338095e-05 0.000536520340578115 0.000708385641608411 0.000156805012064841
"69" 0.000627360966185372 0.00132147754906964 0.000128841044685078 0.0008965142060399 0.000239296291792346 -0.000416933334066869 0.000510597331280603 0.000477706185147973 0.00109622859493305 0.00185558200136837 -0.000554983657731532 0.000128809468744334 -9.06650231397818e-05 0.000507912733955653 0.000701693461977968 0.000143138088262966
"70" 0.000741383605816597 0.00135298287518575 0.000222160867661719 0.000907080273287139 0.000306072959562744 -0.000395815320606266 0.000580718772003377 0.000523102974959357 0.00114621515408355 0.00189382496845502 -0.000553373312961587 9.56126777523595e-05 -9.68511116495588e-05 0.000481565571898537 0.00069495413000829 0.000129937973595428
"71" 0.0008470317139979 0.00138129564361332 0.000310193782981732 0.000915847771359576 0.000369683975808657 -0.000374759029559761 0.000648489118691334 0.000566058752022531 0.00119072896154998 0.00192696745388655 -0.000550555340587001 6.53295031440059e-05 -0.00010079447406177 0.000457561087457411 0.000688271889631311 0.000117265866188031
"72" 0.000943942005487151 0.00140664592410867 0.000392549363974294 0.000922871952780153 0.000429774788175675 -0.000353976871518301 0.00071351487841375 0.000606346436806845 0.00122965650503936 0.00195486601649906 -0.000546641374317124 3.80400017510988e-05 -0.000102589663409877 0.000435959797266712 0.000681754192984711 0.000105187685399644
"73" 0.00103183710727676 0.00142924701737327 0.000468890841868328 0.000928213341441242 0.000486024078812732 -0.000333668693725512 0.000775421509221099 0.000643773192065429 0.00126294076213495 0.00197743577761022 -0.000541741781392507 1.37885252605487e-05 -0.000102350406864826 0.000416801887826814 0.000675488272799485 9.37647722481089e-05
"74" 0.00111054955266122 0.00144932022582141 0.000538920244704839 0.000931938331173972 0.000538151965761147 -0.000314019648005159 0.000833852063494707 0.000678183616802122 0.00129057897505833 0.0019946596993049 -0.000535971185138263 -7.40658780491774e-06 -0.000100205667315867 0.000400104905066564 0.000669563469699079 8.30607723323033e-05
"75" 0.00118000593460252 0.0014670748297076 0.000602396716200095 0.000934113512561415 0.000585926861779298 -0.000295199849344883 0.000888483477157517 0.000709452417540881 0.00131263256392138 0.0020065641628977 -0.000529440987207334 -2.55590861551724e-05 -9.63028116008451e-05 0.000385869720657099 0.000664060875246806 7.31333594712849e-05
"76" 0.00124024413504853 0.00148271064122988 0.000659142962778888 0.000934810059091836 0.000629151594016944 -0.000277361642096162 0.000939020333542681 0.000737497641286022 0.00132920872898546 0.00201324576216356 -0.000522256097043979 -4.07126803589625e-05 -9.07982017490129e-05 0.000374075954797858 0.00065905207123469 6.40430844072053e-05
"77" 0.0012914018974627 0.00149642214128131 0.000709040810952447 0.000934104091352125 0.000667691690379402 -0.000260634122990305 0.000985199718316697 0.000762268071355612 0.00134047444310453 0.00201484697554719 -0.000514526372349269 -5.29374404537184e-05 -8.3863537611328e-05 0.000364687191479994 0.000654593586554865 5.58376131931577e-05
"78" 0.00133371797814125 0.00150840056191273 0.000752034044734306 0.000932066737798559 0.000701447062899503 -0.000245133676254178 0.00102680704976502 0.000783750751463815 0.0013466492460193 0.00201157600010228 -0.000506348655601441 -6.23330109626865e-05 -7.56772882639709e-05 0.000357645805267848 0.000650740446866903 4.85618854364629e-05
"79" 0.00136752890736035 0.00151883134231696 0.000788142586490113 0.00092878052236498 0.000730375547207859 -0.000230954129719793 0.00106366863822325 0.000801963417411171 0.00134799698271928 0.00200367319233001 -0.00049782129737232 -6.90232179391841e-05 -6.64335640563059e-05 0.00035287736932723 0.000647529579665866 4.22556903067854e-05
"80" 0.00139326144437937 0.00152789749850167 0.000817451144947178 0.000924323880801733 0.000754475383861474 -0.000218167373451288 0.00109565076173706 0.000816955998650081 0.00134482595117858 0.00199143441449362 -0.000489039960689333 -7.31552713634759e-05 -5.63278270353988e-05 0.000350290665230493 0.000644988483727086 3.69535676503608e-05
"81" 0.00141142003378582 0.00153577726029021 0.000840111901716543 0.000918781123299225 0.000773797915812844 -0.000206831700679943 0.00112268169878948 0.000828813264204637 0.00133748610119708 0.0019751913022268 -0.000480092025074193 -7.49024235397457e-05 -4.55651485519405e-05 0.000349776589294088 0.000643129985529607 3.26780662404808e-05
"82" 0.00142258426802177 0.0015426499939936 0.000856345464704497 0.000912236056794584 0.000788433216439517 -0.000196984825458514 0.00114473183170948 0.000837642804366072 0.00132636296864356 0.00195530877093954 -0.000471063134629086 -7.4451949651746e-05 -3.43571774351082e-05 0.00035121097465826 0.000641958029789395 2.94449687771497e-05
"83" 0.00142738474378266 0.00154869276703882 0.000866436882902838 0.000904777853445149 0.00079852160557117 -0.000188644780649117 0.00116182623128614 0.000843574421494029 0.00131187229227808 0.00193218637133193 -0.000462027013672242 -7.20131870246098e-05 -2.29113174196926e-05 0.000354457547861532 0.0006414609621861 2.72621919423193e-05
"84" 0.00142649732971719 0.00155407803548571 0.000870727654346141 0.000896489705884675 0.000804235795186134 -0.000181814239518064 0.00117404131830313 0.000846768232437184 0.00129445215922906 0.00190624183358619 -0.000453062859160954 -6.78110911839968e-05 -1.14368202337874e-05 0.000359364330299672 0.000641614106723891 2.61301123836842e-05
"85" 0.00142063620741721 0.00155897661695441 0.000869613531368773 0.000887464479365948 0.000805783171527364 -0.000176477395264722 0.00118150122898133 0.000847394332925138 0.00127456397100324 0.00187791510710039 -0.000444234381552275 -6.20799390763029e-05 -1.44973133792431e-07 0.000365770651577913 0.000642389342663415 2.60361649331905e-05
"86" 0.00141052577876608 0.00156355412039752 0.000863541993976971 0.000877786566754181 0.000803417263599219 -0.000172605699356572 0.00118437586610131 0.000845644875878141 0.00125268195688473 0.00184765939489206 -0.000435606924502831 -5.50678167154798e-05 1.07602738426834e-05 0.000373502910288109 0.000643735680371971 2.69608134322013e-05
"87" 0.00139689771092743 0.00156796740740831 0.000852987843652857 0.000867545485110584 0.000797401804274879 -0.000170152583779931 0.00118288418268005 0.000841722974240298 0.00122928628253613 0.00181593893522879 -0.000427232451276239 -4.70265175201655e-05 2.10809612878911e-05 0.000382381814163276 0.000645597727375137 2.88736736999837e-05
"88" 0.00138048057845654 0.00157236942717823 0.000838472674814227 0.000856828104925766 0.000788039530225273 -0.000169057976674555 0.00117728527032017 0.000835842775150821 0.00120485704857264 0.00178320965887025 -0.000419165514574168 -3.82148937397057e-05 3.06306588862699e-05 0.000392224616150582 0.000647914099570513 3.17370845846002e-05
"89" 0.00136197824024238 0.00157688834645124 0.00082052978682867 0.000845715863317526 0.000775643370996281 -0.000169251930546259 0.00116786556883522 0.000828222352035124 0.00117987483351414 0.00174992999382864 -0.000411446777147278 -2.88907590175269e-05 3.92309918158373e-05 0.000402838120292973 0.00065060696682485 3.55000033064815e-05
"90" 0.00134207130719756 0.00158165397604742 0.000799709724068746 0.000834289741321743 0.000760541442839955 -0.000170652380784218 0.00115495332117543 0.000819089140934072 0.00115480181957293 0.0017165492007569 -0.000404112547293342 -1.93096761955659e-05 4.6720342436066e-05 0.000414036198504364 0.000653600228138917 4.01038520215078e-05
"91" 0.00132139154793508 0.00158675885336214 0.000776569808752518 0.000822625487590482 0.000743078885158459 -0.000173162427490361 0.00113889621801398 0.000808667187799323 0.00113009349335584 0.00168350895825386 -0.000397196374458194 -9.72270310232025e-06 5.29464783650774e-05 0.000425627890942477 0.000656804727390731 4.54789087362843e-05
"92" 0.00130053795163938 0.00159229115077842 0.000751662761263495 0.00081079344292724 0.000723595794603258 -0.000176683956736455 0.00112006075891105 0.000797182832508125 0.00110617224787106 0.00165121618110577 -0.000390723737084875 -3.74746011915329e-07 5.777890231899e-05 0.000437425655629037 0.00066013186713979 5.1547727857464e-05
"93" 0.00128004347381399 0.00159830609467589 0.000725531859443637 0.000798858975312009 0.000702446650734552 -0.000181106171834222 0.00109882768831388 0.000784857325275821 0.00108344405082116 0.00162007052557416 -0.000384710603002942 8.50072238365024e-06 6.11073863477943e-05 0.000449248678187399 0.000663491229001784 5.82228915894531e-05
"94" 0.00126039383228069 0.0016048293342404 0.000698701746929593 0.000786876039131711 0.000679966936328684 -0.00018631314445361 0.00107559075489633 0.000771906921269828 0.0010622759391388 0.00159043990779969 -0.00037916959941549 1.66865591009697e-05 6.28348296808865e-05 0.000460924334911323 0.000666787661045602 6.54101910324354e-05
"95" 0.00124200473951971 0.00161186694251012 0.000671672111684448 0.000774900077163763 0.000656500721181509 -0.000192185190485407 0.00105073888977199 0.000758543699808435 0.00104300145620267 0.00156265466159035 -0.000374106771678186 2.39757063263225e-05 6.28909596247253e-05 0.000472284498997743 0.000669929365061005 7.30060288424483e-05
"96" 0.00122523746898929 0.00161938482915388 0.000644919546453481 0.000762970171461441 0.000632366714387573 -0.000198599200964967 0.00102466349264048 0.000744961613238783 0.0010259126725879 0.00153702222643871 -0.000369526696737582 3.0180628441632e-05 6.12265110576764e-05 0.000483177828928216 0.000672826294442134 8.08986318961879e-05
"97" 0.00121038626478857 0.00162732816640945 0.000618876408522419 0.000751119371686522 0.00060788454354064 -0.000205430746028293 0.000997749540371943 0.000731355460505557 0.00101125956635861 0.00151379817955267 -0.00036542233723815 3.51354272984126e-05 5.78140020161966e-05 0.000493460570282599 0.000675392985278773 8.89754275425579e-05
"98" 0.00119767949322699 0.00163560769030751 0.000593941153149282 0.000739373595825131 0.00058334464088571 -0.000212552903198204 0.000970361453298863 0.000717895236459919 0.000999245227879102 0.00149321346112453 -0.000361789920815998 3.86927232567242e-05 5.26501428511068e-05 0.000503004541404063 0.000677545509066916 9.71129890968539e-05
"99" 0.00118728947312664 0.0016441064095986 0.00057047092461777 0.000727749456241426 0.000559024060599152 -0.000219844702070937 0.000942855646881692 0.000704751062682306 0.000990025945646553 0.00147544670426509 -0.000358615085781119 4.07281481349277e-05 4.57522895995743e-05 0.000511696306676901 0.000679206995243458 0.000105187969909156
"100" 0.00117932438619869 0.00165267895363794 0.000548781404185065 0.000716254387563473 0.00053517681426418 -0.000227182702127285 0.000915567485631902 0.000692064443393743 0.000983708855587055 0.00146063896525164 -0.000355881378402064 4.11423841318384e-05 3.7160433737503e-05 0.000519440705273642 0.000680312897146439 0.000113073644718233
"101" 0.00117383972625837 0.00166115592613291 0.000529138721121006 0.000704888658521801 0.000512037739697946 -0.000234454177238685 0.000888805648869359 0.000679972864796317 0.000980351860573349 0.00144888411931513 -0.000353575619142506 3.98577904691256e-05 2.69378753962305e-05 0.000526151687551648 0.000680801688974062 0.000120641656168781
"102" 0.00117084054988005 0.00166934933647377 0.000511771712161148 0.000693641823392034 0.000489815434369653 -0.000241545666371131 0.000862859875285156 0.000668592499122327 0.000979957233646223 0.00144022933206958 -0.000351677825096496 3.68203239799602e-05 1.51657705761099e-05 0.000531765023934783 0.000680624097146253 0.000127765955528796
"103" 0.00117028257285544 0.0016770545882722 0.000496860843669978 0.000682502589091139 0.000468690070817685 -0.000248355058329299 0.000837992584108145 0.000658025172693422 0.000982487748700146 0.00143468250580009 -0.00035016585679099 3.20046247599933e-05 1.94693255687911e-06 0.00053622942529592 0.00067973299320376 0.000134322293471796
"104" 0.00117208199170679 0.00168406331533167 0.000484543423414628 0.00067145161732756 0.000448827802112115 -0.000254788485132576 0.000814436702025682 0.000648351115787531 0.000987854256116232 0.00143219835976342 -0.000349024210287586 2.54025748291325e-05 -1.26000354834307e-05 0.000539508076267782 0.000678104115848733 0.000140194697587581
"105" 0.00117611491673601 0.00169014694885915 0.000474917180830402 0.0006604586197846 0.00043035503344922 -0.000260759594645201 0.000792396262016383 0.000639641492411184 0.000995920407980331 0.00143269396410886 -0.000348229425885733 1.70327366799349e-05 -2.83432305278617e-05 0.000541582179819444 0.000675712297447161 0.000145264352841136
"106" 0.00118223553064064 0.00169510048471047 0.000468048757577008 0.000649500608422328 0.000413386931590022 -0.000266194316310771 0.000772052105050351 0.000631946500875524 0.00100651569241707 0.00143604454185603 -0.000347762944073158 6.93554442809569e-06 -4.5134512754147e-05 0.000542445028568974 0.000672548753651066 0.000149428765225557
"107" 0.00119026142144071 0.00169870524852269 0.000463955831215402 0.000638542921189198 0.000398005897672663 -0.000271031874462595 0.000753548675702551 0.000625300767872719 0.00101941636589483 0.00144208242492346 -0.000347612006740239 -4.82911039026536e-06 -6.28161140317681e-05 0.000542097784125954 0.000668612005733464 0.000152593848481271
"108" 0.0011999983742918 0.00170077137053541 0.000462633215656334 0.000627552237016244 0.000384274803353278 -0.000275221336567292 0.00073701472509118 0.000619724699018341 0.00103437855274366 0.00145060602053862 -0.000347759144138487 -1.8182756998968e-05 -8.1223131585189e-05 0.000540557576302674 0.00066391169921548 0.000154672303745676
"109" 0.00121124144604246 0.00170112432816382 0.000464040314889836 0.000616498903730652 0.000372236859268519 -0.000278724196631313 0.000722541166031752 0.000615222133032235 0.00105111839883536 0.0014613727845355 -0.000348194477739046 -3.30265257433426e-05 -0.000100178045386138 0.0005378489917327 0.000658466003603844 0.000155595866446814
"110" 0.00122377550014836 0.0016996171793826 0.000468114846998705 0.000605349872870841 0.000361912218765811 -0.000281519283269268 0.000710200971027616 0.000611784438895883 0.0010693274892765 0.00147411187528891 -0.000348910774972763 -4.92493643765028e-05 -0.000119511429963226 0.000534002376349686 0.000652304265244447 0.00015530515991275
"111" 0.00123737886026628 0.0016961300599197 0.000474765349675598 0.000594076522651944 0.000353298079345315 -0.000283593102182217 0.000700034669368922 0.000609387864129626 0.00108867606114932 0.00148853009204591 -0.000349901229697282 -6.67273826468052e-05 -0.000139041339406056 0.000529059552998264 0.000645465521009464 0.000153758396087336
"112" 0.00125183267645497 0.0016905722753489 0.000483874767926609 0.000582650160699019 0.000346385487786119 -0.000284948081390671 0.00069206463541542 0.000607996655199232 0.00110882124867654 0.00150430710261056 -0.000351164906276802 -8.5322812556573e-05 -0.00015859546530975 0.00052306436482991 0.000637988653241465 0.000150926681420924
"113" 0.00126693721401467 0.00168290163384674 0.000495316645211593 0.000571049900654641 0.000341136161098785 -0.000285601463579704 0.000686287418989166 0.000607569542217705 0.00112940445067483 0.00152110150117046 -0.000352701501417897 -0.000104893223285382 -0.000177997426341595 0.000516063322181626 0.00062992857709574 0.000146802726951248
"114" 0.00128248857961186 0.00167310592708969 0.000508939021872233 0.000559255000948753 0.000337509480117031 -0.000285575996277222 0.000682681561443193 0.000608049249130522 0.00115006149523131 0.00153856540290217 -0.000354516253013015 -0.000125283226049169 -0.000197083165040301 0.000508107852620714 0.000621337227137103 0.000141393041671131
"115" 0.00129830623687718 0.00166121623002153 0.000524581197641422 0.000547251635638229 0.000335448949900168 -0.00028491396431723 0.000681198238292251 0.000609375213050733 0.00117042947961367 0.00155634146794237 -0.000356614344197865 -0.000146339212602038 -0.000215692227888589 0.000499249247907789 0.000612283019817363 0.00013472072964897
"116" 0.00131421907020518 0.00164729020369062 0.000542056877704201 0.000535029938196504 0.000334884131087931 -0.000283660558490197 0.000681775583207632 0.000611477513188567 0.00119014779984265 0.0015740630908599 -0.000359003067445114 -0.000167902515391874 -0.00023367366379435 0.000489545664875137 0.000602827468154002 0.000126825728196223
"117" 0.00133008812543927 0.00163144111438808 0.000561182605337372 0.000522585850057191 0.000335738795194861 -0.000281872520544594 0.000684328864945265 0.000614282266976584 0.00120886576982142 0.00159137730118428 -0.000361693527707151 -0.000189813848744494 -0.000250891367429551 0.000479045399245696 0.000593041149625101 0.000117766750149777
"118" 0.00134578461133005 0.00161380172973026 0.000581750373858123 0.000509915292597148 0.000337934323883548 -0.000279613136943428 0.000688757748475575 0.000617710599652883 0.00122624957390609 0.00160793384563433 -0.000364694642203249 -0.000211916001765235 -0.000267217586392253 0.000467807306532932 0.000582994925973161 0.000107610008633069
"119" 0.00136121139171313 0.0015945494348143 0.000603553697626495 0.000497025996635688 0.000341377657129981 -0.00027695413589271 0.000694946350926732 0.000621683860690662 0.0012419756215215 0.001623394701917 -0.000368013673807273 -0.000234058327156736 -0.000282537771125727 0.00045588236240349 0.000572758732352137 9.64466901002721e-05
"120" 0.00137629135362952 0.00157387718931575 0.00062636768296121 0.000483922275891647 0.000345978456821598 -0.000273966961980383 0.000702760857699821 0.000626120989909857 0.00125575189568255 0.0016374433629992 -0.000371659848121663 -0.000256093090294889 -0.000296757307054417 0.000443322367149525 0.000562408445994541 8.43722987079232e-05
"121" 0.00139096727061981 0.00155200791503254 0.000649968060992557 0.000470617199793064 0.000351648231970245 -0.000270731677361325 0.000712058849463073 0.000630941946728599 0.00126730579020472 0.00164978517402492 -0.000375642201063204 -0.000277880821092066 -0.000309789583073661 0.000430181538417345 0.000552014229926763 7.15019208314015e-05
"122" 0.00140521549147849 0.0015291852409653 0.000674123471346909 0.00045712384764068 0.000358286776407631 -0.000267324238331315 0.00072268099669324 0.000636064339161717 0.00127639664896514 0.0016601566548326 -0.000379965036339105 -0.000299289645756907 -0.00032156793632634 0.0004165083341821 0.00054164561842824 5.79566149587602e-05
"123" 0.00141903283611788 0.00150567218389197 0.000698597075001374 0.000443462008472658 0.000365804388853066 -0.000263824863301042 0.000734462176383175 0.000641411208388404 0.00128281783602242 0.00166832413246218 -0.000384626433425402 -0.000320201907399188 -0.000332044810020425 0.000402354058497 0.000531366332213189 4.3869314555019e-05
"124" 0.00143243780802917 0.00148173784611265 0.000723149347522754 0.000429648789039376 0.000374107716504175 -0.000260307875480346 0.000747228340295322 0.000646906371931582 0.0012863943370798 0.00167409102658311 -0.000389630749639026 -0.000340508084857876 -0.000341187099047381 0.000387763878123472 0.000521239210635059 2.93809548416225e-05
"125" 0.00144546788116063 0.00145765510765907 0.000747544006122935 0.00041570648477422 0.000383111494509701 -0.000256848864880682 0.000760794656682534 0.000652477268829793 0.0012869933880409 0.00167729866670944 -0.000394966681773185 -0.000360111026652028 -0.000348977769419246 0.00037278909139296 0.000511324311905502 1.46344804692259e-05
"126" 0.00145818086779078 0.00143370468628216 0.000771546361270346 0.000401660595529139 0.000392731375719218 -0.000253517665188538 0.000774979300458577 0.000658054232689977 0.0012845169367343 0.00167782705313268 -0.0004006302775961 -0.000378929669840944 -0.000355419361648995 0.000357469967178732 0.000501667885787008 -2.16085417878581e-07
"127" 0.00147065108145001 0.00141016711107373 0.000794920933687986 0.000387533627122508 0.000402888221342609 -0.000250378278110646 0.000789597840691036 0.000663569088134856 0.00127890830942684 0.00167560337644134 -0.000406605420058744 -0.000396895881266796 -0.000360533786482512 0.000341850822886859 0.000492315260861955 -1.501412117564e-05
"128" 0.00148296764167458 0.0013873114425509 0.000817448073313432 0.000373352440095346 0.00041350940791644 -0.000247491988436953 0.000804463328596388 0.000668960773963722 0.00127015481894774 0.00167060224628642 -0.000412876177571974 -0.000413954446892201 -0.000364351916576424 0.000325976464896144 0.000483300164297894 -2.960679750594e-05
"129" 0.00149522059155865 0.00136540159607522 0.000838907670722106 0.000359144373722193 0.000424526915667893 -0.00024490774870054 0.000819394944466739 0.000674171336328134 0.0012582844652805 0.00166282954490731 -0.000419417156157282 -0.000430070696154355 -0.000366930314818301 0.000309884142186397 0.000474651202806357 -4.38354662316234e-05
"130" 0.00150751133022092 0.00134468702980941 0.000859094817252083 0.000344932237339991 0.000435876339780685 -0.000242673962627477 0.00083422047574517 0.000679139597045074 0.00124335985477855 0.00165235037901389 -0.000426204084784109 -0.000445217134906474 -0.000368334472595915 0.000293612049674737 0.000466380658843767 -5.7546665044195e-05
"131" 0.00151994545442512 0.00132540097152016 0.000877817653283657 0.00033074490766207 0.000447505663859444 -0.000240823787537589 0.000848771131548871 0.000683813853210143 0.00122550010201242 0.00163926993012096 -0.00043320081634025 -0.000459388175006299 -0.000368652176675097 0.000277199969001515 0.000458497145124615 -7.05907482064968e-05
"132" 0.00153261409356771 0.00130775814011056 0.000894902442329266 0.000316606786428936 0.000459362304463402 -0.000239388687513503 0.000862888646244599 0.000688139775460323 0.00120485330665168 0.00162373536729553 -0.000440374665579817 -0.000472589017193888 -0.000367977972368035 0.000260678446479239 0.000450996972080478 -8.28256087573527e-05
"133" 0.0015456104395078 0.00129194685986945 0.000910182123403351 0.000302543618519375 0.000471404762288151 -0.000238384380806654 0.000876431966103029 0.000692068739991822 0.00118160912835531 0.00160594030046063 -0.000447682356424965 -0.000484840868788861 -0.00036642903499717 0.000244081625508088 0.000443859528596195 -9.41102407356998e-05
"134" 0.00155900669363363 0.00127813843530443 0.000923516942498714 0.000288577763952268 0.00048359212215887 -0.00023782303014712 0.00088926733769683 0.00069554956266299 0.00115600365345868 0.00158611486159091 -0.000455077195485362 -0.000496175225872068 -0.000364124835200311 0.00022743871963665 0.000437055777870706 -0.000104322196552254
"135" 0.00157286316029521 0.00126646541933732 0.000934780745232215 0.000274727726655298 0.000495890489224515 -0.0002377025792413 0.000901282059158381 0.000698532715111957 0.00112830166185521 0.00156452716502887 -0.000462503912329255 -0.000506642072951215 -0.000361202013420338 0.00021078337859075 0.000430547234816767 -0.000113349852919207
"136" 0.00158720561510167 0.00125703279739183 0.000943865637821027 0.000261014943661568 0.000508263951838974 -0.000238013598398134 0.000912376237252773 0.000700965896836642 0.00109880790561513 0.00154148697272277 -0.000469908319441105 -0.000516297751532949 -0.000357809405258534 0.000194140161306643 0.000424278018428264 -0.000121093816122795
"137" 0.00160205325532431 0.00124991989178993 0.000950685731122887 0.00024745295140193 0.000520690375316094 -0.000238735484257149 0.000922466423113782 0.000702802177370261 0.0010678611696835 0.0015173333099059 -0.000477224599155691 -0.000525209414841233 -0.000354099350030433 0.000177536992191114 0.00041818458833824 -0.000127473067913704
"138" 0.00161737401860738 0.00124515447290219 0.000955167713280891 0.000234054725095372 0.000533137528940676 -0.000239838539482487 0.000931483735177117 0.000703990876807003 0.00103582627779886 0.00149243159464377 -0.000484385616087122 -0.000533455705949698 -0.000350232410426221 0.000161000854020061 0.000412189218533263 -0.00013242539894869
"139" 0.00163311262499173 0.00124274494580053 0.000957256379801443 0.000220825487894674 0.000545575561184741 -0.00024128183575704 0.000939380682280245 0.000704477086139099 0.00100310497501909 0.0014671817646494 -0.000491314392353075 -0.000541119002609772 -0.000346373919218946 0.000144559008942207 0.000406208767525375 -0.000135912847950148
"140" 0.0016491731615144 0.00124264059894605 0.000956917185424175 0.000207769923866383 0.000557982822158502 -0.000243014525878124 0.000946121358904234 0.000704206735042415 0.000970116794349751 0.00144200017321601 -0.000497928576203059 -0.000548289499119029 -0.000342690550754427 0.000128239954639887 0.000400138431085134 -0.000137919334425952
"141" 0.00166541392394029 0.00124476006881729 0.000954118571931485 0.00019488308715669 0.000570325050772987 -0.000244974550488337 0.000951685620523869 0.000703128150416658 0.000937311987174154 0.00141733111871392 -0.000504142142880839 -0.000555059371108364 -0.00033935540695539 0.000112070497013137 0.000393877267630295 -0.000138457176139183
"142" 0.00168165930613552 0.00124897353227417 0.000948849816159692 0.00018215716412818 0.000582570294236216 -0.000247094368253302 0.000956066047264401 0.000701181320335505 0.000905148518665666 0.00139362212005473 -0.000509860245606763 -0.000561529730306564 -0.000336536341391373 9.60844765662235e-05 0.000387305450340271 -0.000137561278187103
"143" 0.00169769173354411 0.00125510954846712 0.000941104265249523 0.000169577913231738 0.000594683940156764 -0.00024929159789742 0.000959270792230463 0.000698310019716523 0.000874100448216054 0.00137133762432667 -0.000514984766945338 -0.000567792076112171 -0.000334398412067544 8.03178885743921e-05 0.000380308459576379 -0.00013529565121366
"144" 0.00171324348571543 0.00126294696545646 0.000930883050737089 0.000157122912274846 0.000606622865234641 -0.000251477802126205 0.000961311698757719 0.000694455965442853 0.000844658169374932 0.00135095317335833 -0.000519407514380947 -0.000573947194773309 -0.000333104681667693 6.48071692926828e-05 0.000372755528363206 -0.000131754392444056
"145" 0.00172801114333386 0.00127221617747688 0.000918189067541705 0.000144765820439588 0.000618342483020542 -0.000253557784237537 0.000962214580548105 0.000689557514027742 0.000817309323320916 0.00133293375302041 -0.000523022548029423 -0.000580084610228639 -0.000332806804349871 4.95946699572547e-05 0.000364521310071475 -0.000127057834714698
"146" 0.00174164787989321 0.00128260341469195 0.000903033795117056 0.00013247017223312 0.000629793660835267 -0.000255425556236935 0.000962007816971072 0.000683560366389223 0.000792538437120543 0.00131774427106937 -0.000525714065681911 -0.000586294997086305 -0.000333650045629461 3.47333290437514e-05 0.000355476714998451 -0.000121358252369066
"147" 0.00175377246559215 0.00129374833070206 0.000885426004911128 0.000120196062823885 0.000640919702832106 -0.000256972784271929 0.00096073154937215 0.000676399276396383 0.000770817754137567 0.00130584667718279 -0.000527364833996866 -0.000592662449890944 -0.000335769496747728 2.02771659282358e-05 0.000345493851961294 -0.000114826031856718
"148" 0.00176396804716012 0.00130524599614312 0.000865374449412264 0.00010789801290954 0.000651664956978011 -0.000258086626001564 0.000958425079838841 0.000668022127586747 0.000752608407040907 0.00129767431433109 -0.000527863235269984 -0.000599264911953018 -0.000339283864930497 6.28883551758387e-06 0.000334452050913944 -0.0001076618156634
"149" 0.00177178392359982 0.00131664983309898 0.000842889005733263 9.55191521665384e-05 0.000661959061834193 -0.000258649012077737 0.000955129587443627 0.000658365888320757 0.00073834418248019 0.00129364210407929 -0.00052708786723847 -0.000606170300591703 -0.000344296377074816 -7.16256705760613e-06 0.000322233664256789 -0.000100084126407885
"150" 0.00177674690468214 0.00132747024099337 0.000817981872646168 8.30049972068302e-05 0.000671741661950805 -0.000258544606142513 0.000950890467133968 0.000647380609092937 0.000728423509830786 0.00129414277229004 -0.000524936790386953 -0.000613441819245172 -0.000350896949175803 -1.99970497445345e-05 0.00030873161304808 -9.23273042816148e-05
"151" 0.00177836699168812 0.00133719067826002 0.000790661293274667 7.02933521543652e-05 0.000680938241418436 -0.000257655578201337 0.000945756267407518 0.00063501341888716 0.000723202335466368 0.00129951402750516 -0.00052130035577868 -0.000621129382115006 -0.000359154091129003 -3.21315255036433e-05 0.000293853956676957 -8.46373525253866e-05
"152" 0.00177613255622712 0.0013452585312683 0.00076093743910953 5.73227198048096e-05 0.000689481045002434 -0.00025587110354733 0.000939769323143668 0.000621215407923908 0.000722991617867867 0.00131006900815778 -0.00051608663654252 -0.000629275662790032 -0.000369113930942019 -4.34767166360391e-05 0.00027751730582527 -7.72678261049669e-05
"153" 0.00176953465953407 0.00135111175554512 0.000728831277134055 4.40293462007085e-05 0.000697302438716485 -0.000253088832313496 0.00093298622882563 0.000605942441774576 0.000728039203998484 0.00132605538341189 -0.000509215121716225 -0.000637914746161088 -0.000380807364513363 -5.39308683663942e-05 0.000259653564755652 -7.04731439399899e-05
"154" 0.00175806048146071 0.00135416582767383 0.000694367814548769 3.03495368978237e-05 0.000704331788379443 -0.000249207389201134 0.000925453221488073 0.000589157267483343 0.000738529813210896 0.00134767197773953 -0.000500622118633425 -0.000647068360102659 -0.000394239073867083 -6.33943062573693e-05 0.000240221109509895 -6.45017289914635e-05
"155" 0.00174120613559567 0.00135383429005257 0.000657580961582394 1.62246615111039e-05 0.000710510437459405 -0.000244148906673562 0.000917227785863114 0.000570822998716476 0.000754569766434974 0.00137504311198186 -0.000490266769269847 -0.000656747855189367 -0.000409394087836871 -7.17632000386842e-05 0.000219186428652411 -5.95889748427768e-05
"156" 0.00171848732174694 0.00134954815860976 0.000618528000705319 1.602157524682e-06 0.000715779494433458 -0.000237841138943987 0.000908371850314287 0.00055091203794918 0.000776195125813575 0.00140823642239634 -0.000478126118973626 -0.000666960099819988 -0.000426233051340037 -7.89264666114593e-05 0.000196549381427598 -5.59560997520613e-05
"157" 0.00168944067304153 0.00134075181636618 0.00057727566051175 -1.3563931024209e-05 0.000720088802481798 -0.000230234671384256 0.00089894914931716 0.000529402386243759 0.000803357742325085 0.00144723293723555 -0.000464206179129082 -0.000677696092286624 -0.000444699266707979 -8.47838188606757e-05 0.000172320385661148 -5.37973474319736e-05
"158" 0.00165363730024221 0.00132692308684386 0.000533919359431046 -2.93086541316456e-05 0.000723399211452176 -0.000221295120290424 0.000889035843489119 0.000506278786625157 0.00083591386755947 0.00149193710314736 -0.000448544273762597 -0.000688944672896188 -0.000464709297241331 -8.92328510942678e-05 0.000146537723446503 -5.32782214430512e-05
"159" 0.00161068592911289 0.00130758203330138 0.000488582691208067 -4.56579611717407e-05 0.000725677564314973 -0.000211015126473612 0.000878714702579773 0.000481533211733225 0.000873644552619787 0.00154217353104717 -0.000431203170148834 -0.000700682718794211 -0.000486163202008251 -9.21789863919004e-05 0.000119259868811214 -5.45297058809729e-05
"160" 0.00156025039548989 0.00128231334736267 0.000441417119905854 -6.26204304882841e-05 0.000726908564458296 -0.000199410176140769 0.000868082955480821 0.000455162822848565 0.000916235969344831 0.0015976761734774 -0.000412281690429004 -0.000712883271732146 -0.000508943062796033 -9.35335904979801e-05 9.05715126846657e-05 -5.76445904187726e-05
"161" 0.00150204075525708 0.00125076696906546 0.000392612810144011 -8.01889740137107e-05 0.000727076112259667 -0.000186516912279691 0.000857242141487704 0.000427174740907977 0.000963297625484942 0.00165810124043158 -0.000391910770681012 -0.000725511525054243 -0.000532914358765133 -9.32284327985629e-05 6.05682707459515e-05 -6.2677780970816e-05
"162" 0.00143583268839449 0.0012126660860876 0.000342394494552709 -9.83452911099654e-05 0.000726190213730037 -0.000172401950266931 0.000846314169431116 0.00039758213469615 0.00101435623681324 0.00172301992705019 -0.00037025456559492 -0.000738524522657194 -0.0005579266416754 -9.1203346101752e-05 2.93763985669027e-05 -6.96379001342146e-05
"163" 0.00136146527249309 0.00116783056805737 0.000291016297777867 -0.000117046206507441 0.000724258825906188 -0.000157155725299636 0.000835421576955148 0.000366411897835714 0.00106885841036306 0.00179191784202325 -0.000347510366723447 -0.000751878595006985 -0.000583818629657037 -8.74168280181533e-05 -2.86830363659603e-06 -7.84880197196481e-05
"164" 0.00127884238544149 0.00111615932129474 0.000238778709972542 -0.000136238520421412 0.000721306868398256 -0.000140894422811392 0.00082470926077464 0.000333690275527685 0.00112620144680672 0.00186421425660515 -0.000323899858304443 -0.000765521888990394 -0.00061041782748571 -8.18446234649474e-05 -3.60099566040071e-05 -8.91538992989957e-05
"165" 0.00118794312190236 0.00105766214999671 0.00018601154909513 -0.000155845898185576 0.000717366960536909 -0.000123758555477499 0.00081431971670229 0.000299463781769808 0.0011857066377973 0.00193924691291521 -0.000299674687388426 -0.000779398235476063 -0.000637544768166399 -7.44903670539198e-05 -6.98794228059622e-05 -0.0001015142953835
"166" 0.00108882515414873 0.00099243850574445 0.000133076633198319 -0.000175780715980662 0.000712474645025743 -0.000105908431627339 0.000804410917595238 0.000263780345053792 0.00124666381141403 0.00201629616985814 -0.00027511169505955 -0.000793450749286046 -0.00066501334609661 -6.53678839001853e-05 -0.000104294161726809 -0.000115416578415843
"167" 0.000981607280934963 0.000920683973877975 8.03657073633881e-05 -0.000195938397884784 0.00070667723744993 -8.75270947679877e-05 0.000795135759300763 0.000226704563711885 0.00130831265314575 0.0020945907639444 -0.000250503704249496 -0.000807614021754977 -0.000692632747464565 -5.45203501751452e-05 -0.000139065705947334 -0.00013066621252955
"168" 0.000866495878607315 0.000842691720507913 2.82883117591791e-05 -0.000216204570682788 0.000700024502503256 -6.88116529674965e-05 0.000786648493116204 0.000188309289786188 0.00136987441417018 0.00217330789789472 -0.000226162764245306 -0.000821822134489825 -0.000720208140722245 -4.20102504903065e-05 -0.000173996651265364 -0.00014704858447112
"169" 0.00074375417342962 0.000758829807540647 -2.27293836290438e-05 -0.000236455499345567 0.000692563752744409 -4.99749862193675e-05 0.000779100143464536 0.000148680156888675 0.00143055246592792 0.00225159674068852 -0.000202402925496173 -0.000836003728046308 -0.000747547560256899 -2.79189525997429e-05 -0.000208884039616924 -0.000164313394663322
"170" 0.000613727869724398 0.000669552706906036 -7.22479075278531e-05 -0.000256558362150562 0.000684346227988614 -3.12384444725697e-05 0.000772634349267422 0.000107913998503375 0.00148954146914492 0.00232857357736553 -0.000179548364451482 -0.000850081721533168 -0.000774458858963511 -1.23461098814743e-05 -0.000243516387432635 -0.00018219720032797
"171" 0.000476819783290764 0.000575370326227429 -0.000119834749994786 -0.000276381269294398 0.000675422618127342 -1.28255819541739e-05 0.000767369248405189 6.61247934739354e-05 0.00154605065079249 0.00240335251231636 -0.000157920474478962 -0.000863980869859474 -0.000800750132727962 4.5899125942014e-06 -0.000277688162910958 -0.000200428265305996
"172" 0.000333500209500323 0.000476852942121393 -0.000165052434292883 -0.000295789950898108 0.000665833794520615 5.03334406787123e-06 0.000763414906946888 2.34373712637693e-05 0.00159929416387034 0.00247503400405859 -0.000137831148172214 -0.000877614692708534 -0.000826229184290246 2.27605331086822e-05 -0.000311187628039577 -0.000218717512512042
"173" 0.000184294996892779 0.000374613107427739 -0.000207489960630347 -0.000314653164773154 0.00065562517912019 2.21123539928637e-05 0.000760852012894298 -2.00071966118345e-05 0.00164851789460883 0.00254273920092499 -0.000119583121065254 -0.000890898507814103 -0.000850717144923933 4.20194029929037e-05 -0.000343812522981106 -0.000236781464455973
"174" 2.97940661201631e-05 0.000269299415362374 -0.000246745779151466 -0.000332848835634174 0.000644824825198235 3.81931352537366e-05 0.000759737789298998 -6.40532113559177e-05 0.00169299692307963 0.00260560122005015 -0.000103461846511184 -0.000903741668287911 -0.000874030587629971 6.22159639234167e-05 -0.000375354573320223 -0.000254339247250941
"175" -0.000129371742088861 0.000161571251628753 -0.00028245447470281 -0.000350259400649482 0.000633469319583903 5.30661022566614e-05 0.000760095290060535 -0.000108530936124239 0.00173204958638399 0.00266279277232558 -8.97281942653391e-05 -0.000916049863143916 -0.00089599602664795 8.31932529638961e-05 -0.00040561764754368 -0.000271114145403277
"176" -0.00029252017295404 5.21085004432374e-05 -0.000314280298020629 -0.00036678151203374 0.00062157801897634 6.65367087642379e-05 0.00076191974029439 -0.000153259549464825 0.00176504557111787 0.00271352549944159 -7.86242221672587e-05 -0.000927727330531191 -0.000916446104809318 0.000104784784727687 -0.000434409138491392 -0.000286848487779865
"177" -0.000458920877841203 -5.84193006414199e-05 -0.000341922747474115 -0.000382324567260898 0.000609169793607602 7.84220332800238e-05 0.000765163480267023 -0.00019803629306707 0.00179139963007394 0.00275705706774966 -7.03541271725107e-05 -0.000938673575006695 -0.00093521815024512 0.000126827105692273 -0.000461546581540471 -0.000301293587959644
"178" -0.000627811673120686 -0.000169342549621083 -0.000365130458530122 -0.000396810830960939 0.000596255701336537 8.85636243229451e-05 0.000769753687619261 -0.000242648636462386 0.00181059455297367 0.00279271065261591 -6.50992162883992e-05 -0.000948789897761105 -0.000952162538566407 0.000149157290172498 -0.00048684787160768 -0.000314227171102235
"179" -0.000798383060738457 -0.000280001480028607 -0.000383690889487007 -0.000410178778819043 0.000582842282467307 9.6818249662922e-05 0.000775578937203663 -0.000286876484825902 0.00182218158298353 0.00281987389779983 -6.30041914370324e-05 -0.000957973073032662 -0.000967134624932862 0.000171611385972124 -0.0005101521141 -0.000325446019363143
"180" -0.000969803587363208 -0.000389756338663853 -0.000397444616989558 -0.000422379040336047 0.000568943394858685 0.000103070662337758 0.000782492548026106 -0.000330480282199489 0.0018257755489132 0.00283801082102404 -6.41787455475388e-05 -0.000966120405728237 -0.000980001237345398 0.000194029094638448 -0.00053130553889475 -0.000334768034860265
"181" -0.00114121212074153 -0.000497993757338636 -0.000406280579556825 -0.000433382327544482 0.000554556337572577 0.000107226068044457 0.000790318633203703 -0.000373216517297749 0.00182106394945388 0.0028466662318256 -6.86916819673848e-05 -0.000973131882970607 -0.000990642786616821 0.00021625833015339 -0.0005501645653736 -0.000342040459955749
"182" -0.00131171692978575 -0.000604115968295611 -0.000410128676437543 -0.000443170879421846 0.000539692511480558 0.000109215251584931 0.000798852802097471 -0.000414829965083227 0.00180781759068463 0.00284546306938741 -7.65847698294864e-05 -0.00097890614033714 -0.000998948090199722 0.000238150188666526 -0.0005666039924647 -0.000347133687608264
"183" -0.00148041577839311 -0.000707559413054492 -0.000408983128150615 -0.000451740159925759 0.000524358442045028 0.000108993194772086 0.000807869362908941 -0.000455064140424915 0.00178588518672543 0.00283412217707728 -8.78546469272953e-05 -0.000983351017859932 -0.00100482347981531 0.00025956546470389 -0.00058050856437455 -0.000349948132354589
"184" -0.00164638484935097 -0.00080778340561729 -0.000402869689259676 -0.000459098234933975 0.000508569293802556 0.000106541911953589 0.000817119374173255 -0.00049365458046553 0.00175519594875682 0.0028124571475471 -0.000102462787251799 -0.000986371239707307 -0.00100818701586924 0.000280372627964709 -0.000591781222701471 -0.000350411977407704
"185" -0.00180869836347389 -0.000904276890803617 -0.00039187522655021 -0.00046526438665638 0.000492346364375466 0.000101867051900515 0.000826340016293999 -0.00053033378492951 0.00171576083044568 0.0027803681329941 -0.000120337274330836 -0.000987881504024972 -0.00100896958548748 0.000300449943581613 -0.000600346320786074 -0.000348474055930052
"186" -0.00196642025064558 -0.000996551178498232 -0.000376118666474516 -0.000470266878150159 0.000475715216253688 9.49988945696177e-05 0.00083525861472465 -0.000564844390455771 0.00166768107597791 0.00273785943450453 -0.00014136448157129 -0.000987804861508846 -0.00100712375129229 0.000319680686739852 -0.0006061351380465 -0.000344117839731708
"187" -0.00211863064600791 -0.00108415560432649 -0.000355769512671938 -0.000474139317191253 0.000458715694530746 8.59945166829334e-05 0.000843597113947747 -0.000596924533728708 0.00161113500791347 0.00268502207997642 -0.000165409357986721 -0.00098606856191795 -0.00100261791900763 0.000337965935946443 -0.000609105420805222 -0.000337348880903061
"188" -0.0022644081606377 -0.0011666577851436 -0.000331027929385188 -0.000476923730059433 0.000441399396654151 7.49287602643173e-05 0.000851086190538175 -0.00062632340009909 0.00154639065763666 0.00262205502558699 -0.000192290084426763 -0.000982609973080288 -0.000995435805147657 0.000355210207276058 -0.000609233261954681 -0.000328200301202067
"189" -0.00240286481219749 -0.00124366089039726 -0.000302135414005145 -0.000478657982092412 0.000423823446001213 6.19011104336349e-05 0.00085745478756116 -0.000652798785101726 0.00147379721409222 0.0025492397937573 -0.000221808119295824 -0.000977381617994425 -0.00098558211072543 0.00037133329943577 -0.000606506266400725 -0.0003167253240085
"190" -0.00253313390404347 -0.00131479885533415 -0.000269354672171502 -0.000479388332231424 0.000406066206522263 4.7032009711846e-05 0.000862455544061857 -0.000676122644758019 0.00139378292158231 0.00246695138163579 -0.000253727056781984 -0.000970342032137781 -0.000973078274932381 0.000386268153152722 -0.000600940882842397 -0.000303004983697978
"191" -0.00265439376831086 -0.00137972961462847 -0.000232987747818384 -0.000479154673431181 0.000388209790584507 3.04545173348133e-05 0.000865857434814864 -0.000696084376688682 0.00130685430330617 0.00237565532309987 -0.000287794657718417 -0.000961467615621962 -0.000957969754118128 0.000399953356217516 -0.000592563062778515 -0.000287135893292931
"192" -0.00276586478331661 -0.00143815258158879 -0.000193348424365583 -0.000477995930952821 0.000370354460403555 1.23223871856224e-05 0.000867448604582678 -0.0007124888969541 0.00121359051830915 0.00227589648658965 -0.00032372943994427 -0.000950745501595531 -0.000940315124519056 0.000412342415712081 -0.000581426802467384 -0.000269241502532614
"193" -0.00286682868256886 -0.00148979685128248 -0.000150766217361678 -0.000475946436593072 0.000352612058736529 -7.20156229975667e-06 0.000867056997296336 -0.000725166032444425 0.00111463914686307 0.0021682932758491 -0.000361237625578226 -0.00093817832203378 -0.000920197584986234 0.000423402306376568 -0.000567597481578302 -0.000249457380705778
"194" -0.00295663824818282 -0.00153443038601911 -0.000105594815256047 -0.000473034952618729 0.000335101799577783 -2.79375300368979e-05 0.000864532641536533 -0.000733969051941468 0.00101071094255566 0.00205353792788058 -0.000400004456914047 -0.000923785214220201 -0.000897717612945341 0.000433109967087543 -0.000551160770422817 -0.000227934506466805
"195" -0.00303472273517314 -0.00157186690288467 -5.81918385476275e-05 -0.000469286521932564 0.000317953179071681 -4.97026453103796e-05 0.000859772109989161 -0.000738779258464139 0.000902568089691529 0.00193238455340545 -0.000439707615830385 -0.000907601379582695 -0.000872991320474902 0.000441457463773314 -0.000532218200064425 -0.000204838793022619
"196" -0.00310059391920516 -0.00160195595268255 -8.91263562436784e-06 -0.000464714983004055 0.000301302001549335 -7.23036426548144e-05 0.000852700988988877 -0.000739505151265561 0.000791016400674985 0.00180563353505643 -0.00048001728452623 -0.000889673695397512 -0.000846156056100363 0.000448444028014618 -0.000510892605688364 -0.000180347586691774
"197" -0.00315386379714734 -0.00162459657814639 4.18781749975218e-05 -0.00045932833928092 0.000285289060359404 -9.55477930143849e-05 0.000843287856853974 -0.000736087897789013 0.000676900259094678 0.0016741370710412 -0.000520598579236885 -0.000870067010989432 -0.000817365660242132 0.000454084697105317 -0.000487311255360393 -0.000154639972755312
"198" -0.00319424542522006 -0.00163973883913833 9.38246705518712e-05 -0.000453130627437239 0.000270054615509667 -0.00011923670597725 0.000831548154041994 -0.000728503024891844 0.000561080262118921 0.00153876780449011 -0.000561117946341025 -0.000848861129580016 -0.000786783181110079 0.000458401049633292 -0.000461624728882121 -0.000127904907563898
"199" -0.00322155866582227 -0.00164738322517963 0.000146577669765313 -0.000446120788645297 0.000255741005385724 -0.000143179845010802 0.000817525305228618 -0.000716754601297721 0.000444432636389977 0.00140043163742392 -0.000601251375638144 -0.000826146425261082 -0.000754589742821707 0.000461431177040335 -0.000433987483344997 -0.000100328246740711
"200" -0.00323573167407022 -0.00164757516723995 0.000199792435809231 -0.000438287231602246 0.000242484193094047 -0.000167185366928474 0.000801304384342944 -0.000700883827868641 0.000327827858869235 0.00126003160128775 -0.000640676681434761 -0.000802027091048079 -0.000720970488962112 0.00046321690552627 -0.000404572050402574 -7.20936748152344e-05
"201" -0.00323681568098633 -0.00164042227476452 0.000253150858132733 -0.000429622118878265 0.0002304103590482 -0.000191069611208482 0.000783003713434985 -0.000680965839527179 0.000212119579724535 0.00111847126336488 -0.000679091199482581 -0.000776618515775956 -0.000686127017248708 0.000463814655371651 -0.000373549919428286 -4.33781028499218e-05
"202" -0.00322496382329291 -0.0016260781677029 0.000306341528711321 -0.000420110695409806 0.000219643785427834 -0.000214656331180352 0.000762774473627055 -0.000657107761851369 9.81296101435831e-05 0.000976640836363128 -0.000716209555316951 -0.000750041908657799 -0.000650256942043937 0.000463286451754904 -0.000341106177988693 -1.43470207327333e-05
"203" -0.0032004406140301 -0.0016047449841314 0.000359076385930285 -0.000409738083502299 0.000210290199117903 -0.000237783720896178 0.00074079420229256 -0.000629450324435326 -1.33581433459791e-05 0.000835396223565602 -0.000751762877707352 -0.000722426144200738 -0.000613564021910417 0.000461701824817588 -0.000307425551722936 1.48405463990063e-05
"204" -0.00316362638653597 -0.00157667720021831 0.00041108489763518 -0.000398492276391647 0.000202437387986158 -0.000260295866581038 0.00071725566484718 -0.000598163963207438 -0.000121624938916151 0.000695557043070458 -0.000785514434135186 -0.000693903925765863 -0.000576253774592111 0.000459134312625561 -0.000272698532726906 4.40497660134717e-05
"205" -0.00311499816632988 -0.00154217346277612 0.000462117930080706 -0.00038636499661568 0.000196162470957846 -0.000282054871558648 0.000692376641185871 -0.000563447500060245 -0.000226018010072294 0.000557892107323331 -0.000817244041894105 -0.000664606029522262 -0.000538524761003644 0.000455665816624587 -0.000237109114258678 7.31554820486157e-05
"206" -0.00305512843119716 -0.00150157123346249 0.000511956539708486 -0.000373348730318908 0.000191521306926923 -0.00030293428143988 0.000666381418743379 -0.000525531284145306 -0.000325955435470189 0.000423113811062845 -0.000846770430834425 -0.000634666006185844 -0.000500573316243242 0.000451379693356436 -0.000200848765944034 0.000102054483159698
"207" -0.00298467678452841 -0.00145524936217062 0.000560396442704904 -0.000359446178407114 0.000188547483055215 -0.000322824452145179 0.000639501459032341 -0.000484662698215441 -0.000420944694829908 0.000291862559752837 -0.000873935694031248 -0.000604213863602396 -0.00046258185799952 0.000446361658849005 -0.000164102570967791 0.000130663463764048
"208" -0.00290437695770163 -0.00140361037125898 0.000607266415189891 -0.00034466200999779 0.000187253279478598 -0.0003416286869877 0.000611973191754188 -0.000441117108734859 -0.000510580384044841 0.000164714422826561 -0.000898617836822105 -0.00057337221494556 -0.000424733321253537 0.000440702524562302 -0.000127043748057102 0.000158916449644566
"209" -0.00281502640491196 -0.00134708819470381 0.000652413568408475 -0.000329010482259062 0.000187633683447884 -0.000359267792616054 0.000584028716254518 -0.000395185039623164 -0.000594552473921234 4.21688556991814e-05 -0.000920723197499665 -0.000542260991160902 -0.000387186226614465 0.00043449091247066 -8.98498903108268e-05 0.000186767696458719
"210" -0.00271748491606448 -0.0012861414404881 0.000695713643331842 -0.000312509594250359 0.00018966160973292 -0.000375673187915673 0.000555895349867878 -0.000347173860775111 -0.00067263457991834 -7.53502087313615e-05 -0.000940186540454746 -0.000510990523436011 -0.000350098990572368 0.000427816319320029 -5.26867417044348e-05 0.000214190012808227
"211" -0.00261264188207153 -0.00122123357637449 0.00073706223576085 -0.000295188729833066 0.000193288337334052 -0.000390794876357801 0.000527789711206737 -0.000297405497321665 -0.000744691297901628 -0.000187494253749531 -0.000956976267181186 -0.000479661329745927 -0.000313609855732381 0.000420767651060893 -1.5706411206168e-05 0.000241164969371024
"212" -0.00250142823502912 -0.00115284317339916 0.000776387899363 -0.000277076576346597 0.000198452465492616 -0.000404596856683477 0.000499919850540293 -0.000246208740316446 -0.000810673070872629 -0.000293984124117574 -0.000971087516181508 -0.000448370851924156 -0.000277844788071311 0.000413434480718741 2.09409942504195e-05 0.000267697775162857
"213" -0.00238479308369786 -0.00108145917876603 0.000813629177304848 -0.000258213411546766 0.000205066997441723 -0.000417051478005681 0.000472482343645241 -0.00019392012662046 -0.000870603918565483 -0.000394613538736789 -0.000982540451300781 -0.000417203223005856 -0.000242920226779031 0.000405905047923543 5.71210226863197e-05 0.000293792158475878
"214" -0.00226369124257463 -0.00100756234772973 0.000848761175832773 -0.000238640847302493 0.000213039053747775 -0.000428145437433388 0.00044565850857302 -0.000140880840637196 -0.000924573316607454 -0.000489232232831278 -0.000991376917694514 -0.000386233249694877 -0.00020893508605641 0.000398260419035585 9.2704399591175e-05 0.000319463589500969
"215" -0.00213907984988444 -0.000931643639937625 0.000881772654067862 -0.000218403912861587 0.000222258782992055 -0.000437878109497821 0.000419609297412621 -8.74256099723505e-05 -0.000972734269943314 -0.000577753847727853 -0.000997658248207973 -0.000355532172245592 -0.000175976510043916 0.000390591449528619 0.00012758131062271 0.000344730960031537
"216" -0.00201189853552298 -0.000854172282810784 0.000912671270754433 -0.000197551094252011 0.000232605080716472 -0.000446255344675998 0.000394488658433224 -3.38974833481613e-05 -0.00101528403255867 -0.000660138881264166 -0.00100147079357381 -0.000325162167812462 -0.000144125733965602 0.000382974501766383 0.000161648608982809 0.000369613282797385
"217" -0.00188306865477839 -0.000775621084437793 0.000941493051314314 -0.000176128581829543 0.000243952517994311 -0.000453291349848672 0.000370427635104418 1.93784054445228e-05 -0.00105246344722067 -0.000736394229830234 -0.00100290569583637 -0.000295174380344223 -0.000113445699770087 0.000375491292737781 0.000194811716373793 0.000394123117935908
"218" -0.0017534888144884 -0.000696443966660314 0.000968278329715409 -0.000154186424848603 0.000256166369083256 -0.000459008695033513 0.00034754842190999 7.20762907168062e-05 -0.00108454278357009 -0.000806561775805558 -0.0010020776691533 -0.000265619613916157 -8.39937432579338e-05 0.000368220047089669 0.000226997654427188 0.000418270656716226
"219" -0.00162401108842687 -0.000617079444842677 0.000993095101103619 -0.000131774823697209 0.000269111415306473 -0.00046343803903772 0.00032595200064705 0.000123890236911207 -0.00111181540991498 -0.000870725697729217 -0.000999104039573392 -0.000236539133775437 -5.58133163823894e-05 0.000361235506158213 0.000258138788471911 0.000442055599687565
"220" -0.00149544754113015 -0.000537954310727468 0.0010160140396753 -0.000108936862286304 0.00028264969409062 -0.00046661215987425 0.000305723156097988 0.000174524816902961 -0.00113458375962281 -0.000928983105787707 -0.00099411273159489 -0.000207968620152053 -2.89427965128395e-05 0.000354606724254265 0.000288179362591451 0.00046546990921974
"221" -0.00136856317404742 -0.000459471775485427 0.0010371359207049 -8.57219008719146e-05 0.000296642151159089 -0.000468570244904242 0.000286942153506626 0.00022370218231419 -0.00115316592198112 -0.000981467382928018 -0.000987238699556764 -0.000179940153812164 -3.40597513676982e-06 0.000348402427500113 0.000317075144474402 0.000488493504117804
"222" -0.00124406708609612 -0.00038201992182551 0.00105655123540504 -6.21717404443355e-05 0.000310955163662777 -0.000469357061860591 0.000269663410889436 0.000271166016956834 -0.00116787961204321 -0.00102832603917952 -0.00097862185880073 -0.000152483814763538 2.07739561778368e-05 0.000342684018204371 0.000344797689121688 0.000511099825760627
"223" -0.00112260259193507 -0.000305948765351808 0.0010743721487602 -3.83272617681242e-05 0.00032545989265038 -0.000469017523390378 0.000253935179519933 0.000316682630666371 -0.00117903650210884 -0.00106972096089105 -0.000968404762783146 -0.000125619770414049 4.35878715174097e-05 0.000337507863426526 0.000371324533082956 0.000533239537070111
"224" -0.00100475778183458 -0.000231598290552435 0.00109071606006493 -1.42278501552115e-05 0.000340024811327973 -0.000467599809425981 0.000239791814284704 0.000360043827072489 -0.00118694576628572 -0.00110582816911946 -0.000956730525468747 -9.93692501253971e-05 6.50309073716293e-05 0.000332928456763951 0.000396645648993062 0.000554865397018785
"225" -0.000891050017554933 -0.000159278112421079 0.00110570900799805 1.00874465350841e-05 0.000354537846093019 -0.000465159122699443 0.00022725321613885 0.000401065080315663 -0.00119190520241344 -0.00113683957015931 -0.000943745132943393 -7.37473297331621e-05 8.51071723271799e-05 0.000328986223758985 0.000420760875264607 0.000575911165033427
"226" -0.000781931157551814 -8.9265088881597e-05 0.00111947564012696 3.45844457549584e-05 0.000368886839136834 -0.000461745495272956 0.000216331558576499 0.00043958771969996 -0.0011942076345947 -0.00116295222587835 -0.000929591531882474 -4.87697428860507e-05 0.000103826387601097 0.000325720516890437 0.000443675532448557 0.000596304203046064
"227" -0.000677780311723538 -2.180022681998e-05 0.00113214825887594 5.92278391609269e-05 0.000382967329791372 -0.000457418603148704 0.000207025862648593 0.00047548564517958 -0.00119413101325666 -0.00118437450009964 -0.000914419936181942 -2.44422151273747e-05 0.000121205118320574 0.000323158534375517 0.000465409582490264 0.000615969879830074
"228" -0.000578903988549594 4.28978958958313e-05 0.00114385942896366 8.39895436139916e-05 0.00039668963130888 -0.000452234903214919 0.000199332072525606 0.000508661966635504 -0.00119193716465233 -0.00120131844643653 -0.000898370637200137 -7.75708294613357e-07 0.00013726808966272 0.000321324722621093 0.00048598549169897 0.000634818166161428
"229" -0.000485542034591713 0.00010464597501758 0.00115474489835059 0.000108837835691393 0.000409973666048162 -0.00044625290750099 0.000193228305346954 0.000539042378213795 -0.00118788232877652 -0.00121401347803565 -0.000881586867307726 2.2226757053998e-05 0.000152042010562837 0.000320228274138013 0.000505434371946947 0.000652764697881457
"230" -0.00039787270113547 0.000163298355323184 0.00116493923236854 0.000133741769313999 0.000422743300029238 -0.000439534709266425 0.000188691969726667 0.000566592954027137 -0.0011822026735856 -0.00122268675253709 -0.000864210365557544 4.45624060557649e-05 0.000165561230023671 0.000319871247780372 0.000523794771462886 0.000669716014127458
"231" -0.00031598681993783 0.000218740478330428 0.00117457837726377 0.000158673117220831 0.000434941973576543 -0.00043214197904516 0.000185691276545107 0.000591299146951624 -0.00117512751375034 -0.00122757728603654 -0.000846376524949539 6.62318821381698e-05 0.0001778639821856 0.000320246178992863 0.000541106627129345 0.000685586167913904
"232" -0.000239922508876057 0.000270894724407674 0.00118379259106058 0.000183602994637145 0.000446521972109616 -0.000424138703922222 0.000184188013646703 0.00061318155275319 -0.00116686546946163 -0.00122892336467196 -0.000828222228786538 8.72348372053626e-05 0.000188994412408886 0.000321336994744102 0.000557415210883206 0.000700283135876387
"233" -0.000169648296359217 0.00031972132680454 0.00119271600895279 0.000208506581667408 0.000457442254586395 -0.000415587369006616 0.000184135240899953 0.000632281791405544 -0.00115761749289948 -0.00122697520176873 -0.000809876863353879 0.00010757471201329 0.000198995535018563 0.000323114331394488 0.000572774097726223 0.000713724192453941
"234" -0.000105082976954015 0.000365200186394243 0.00120147573740036 0.000233351065245211 0.000467678668899528 -0.000406555701925926 0.000185486921723334 0.00064867378066907 -0.0011475735960091 -0.00122198544828939 -0.000791467454301136 0.000127252024286385 0.000207917500898174 0.0003255418417357 0.000587229992652796 0.000725833944154545
"235" -4.60690152977892e-05 0.000407363163596599 0.00121019098543137 0.000258113916948808 0.000477215222884887 -0.000397104872462941 0.000188191773051484 0.000662453243678446 -0.00113690244107293 -0.00121420398721414 -0.000773116965258863 0.000146274848523044 0.000215807785101806 0.000328577751918729 0.000600839169513761 0.000736536591587027
"236" 7.58165508349565e-06 0.000446250941700742 0.00121897939542194 0.000282760960775547 0.00048604716329282 -0.000387303442110728 0.000192190961132073 0.000673734193215205 -0.0011257615862771 -0.0012038859721961 -0.000754941537222733 0.000164642984705268 0.000222717868594489 0.000332162076104255 0.000613654379600312 0.000745767626105412
"237" 5.61168895281005e-05 0.00048194849507539 0.00122795172289302 0.000307263595584058 0.000494176982534145 -0.000377212307159909 0.000197426819079249 0.000682659292844233 -0.001114299979991 -0.00119128743622957 -0.00073704926054404 0.000182361427008057 0.000228701104969416 0.000336234278911974 0.000625724793588814 0.000753469128577121
"238" 9.98268804592255e-05 0.000514562132279305 0.00123721176981903 0.000331589707673448 0.000501624769767707 -0.000366895823828309 0.000203834523261363 0.000689380522462557 -0.00110264117839643 -0.00117665549124169 -0.000719543445127568 0.000199433868152187 0.000233802906704248 0.000340724530775007 0.000637104088366258 0.000759596056503363
"239" 0.000139031795092132 0.000544215061834918 0.00124685114450509 0.000355706592049755 0.000508412556657716 -0.000356415296056505 0.000211348947125158 0.000694070620769122 -0.00109090422047145 -0.00116024145912206 -0.000702518173686585 0.000215860577592792 0.000238078889371997 0.000345556245770448 0.000647837818168963 0.000764111983707568
"240" 0.00017408577314214 0.00057105299813371 0.00125695309503546 0.000379578858250695 0.000514571029961769 -0.000345832146774516 0.000219904795671258 0.000696911094633784 -0.00107918702931961 -0.00114228624463016 -0.000686058612431769 0.00023164465444649 0.000241570814595074 0.000350649903133498 0.000657973041893532 0.000766991071363321
"241" 0.000205364227466643 0.000595234517427489 0.00126759273190099 0.000403168653592962 0.000520143791778202 -0.000335199151932158 0.000229432882016869 0.000698096313601937 -0.001067574162959 -0.00112302371098817 -0.000670244060683135 0.000246782206995257 0.000244325349632646 0.000355919437570169 0.000667555921087809 0.000768212827848498
"242" 0.000233271630234539 0.000616938282847538 0.00127882787747053 0.000426435876195145 0.00052517387706251 -0.000324571550918264 0.000239857821177906 0.000697829196736224 -0.00105613387658191 -0.00110267992894666 -0.000655135371704369 0.000261273484394871 0.000246388453884941 0.000361276812315024 0.000676615778884157 0.000767775933698671
"243" 0.000258213898354273 0.000636338158461953 0.00129070281726729 0.000449335606263593 0.000529715296826895 -0.000314001298599904 0.000251110587737174 0.000696309594369684 -0.001044914257475 -0.00108146855753534 -0.000640788447673618 0.000275112976997674 0.000247794879680737 0.000366631328543665 0.000685189588543903 0.000765679468687685
"244" 0.000280605842792506 0.000653621060949103 0.00130325329492492 0.000471822209385391 0.000533831894904987 -0.000303533011230775 0.000263117238807408 0.000693748363340459 -0.00103395106357893 -0.00105958401723686 -0.000627247572826959 0.000288295900383457 0.00024858237341582 0.000371896238981002 0.000693301558320386 0.000761939084226534
"245" 0.000300862521219638 0.000668970155754563 0.00131649325872706 0.000493849388501661 0.000537574909053116 -0.000293207500621685 0.000275800922866628 0.000690348060613561 -0.00102326227801302 -0.00103721679911849 -0.000614543998908097 0.00030081229438464 0.00024877980539651 0.000376979293780943 0.000700977692263638 0.000756579917042704
"246" 0.000319396968614224 0.000682572154054022 0.00133042450437184 0.000515365199956246 0.000541015410946744 -0.000283064741759476 0.000289084278026326 0.000686311040888733 -0.00101284978331854 -0.00101453766732723 -0.000602701372610731 0.000312653351968386 0.000248415651488582 0.000381793490992585 0.000708224373895117 0.00074963397242217
"247" 0.00033660698306991 0.000694598191456875 0.00134503327797819 0.000536311866954405 0.000544217276430445 -0.000273134290842429 0.000302887756810853 0.000681834242536021 -0.00100270339509379 -0.000991695595954433 -0.0005917249001549 0.00032380503430204 0.000247515243073487 0.000386254588875131 0.000715059279909571 0.000741143265202358
"248" 0.000352874107369877 0.000705216894160614 0.00136029129155553 0.000556633645658581 0.000547247509885293 -0.000263446995757218 0.000317135408130408 0.000677100754183567 -0.000992791520233282 -0.000968832844983373 -0.000581611052197101 0.000334254608448189 0.000246096293549711 0.000390284454174665 0.000721478349315796 0.000731157253803155
"249" 0.000368562503177798 0.00071458895154727 0.0013761458359125 0.00057627269252907 0.000550172999588434 -0.000254022915232701 0.000331748133797184 0.000672289711005953 -0.000983072190773288 -0.000946060069382016 -0.000572346865799805 0.000343984395830085 0.000244170894804336 0.000393803366417187 0.000727479072771277 0.000719735175102179
"250" 0.000384006576687009 0.000722853770699827 0.00139254153184872 0.000595165635990972 0.000553058222340777 -0.000244880017391371 0.000346646611832344 0.000667561753014727 -0.000973499624796308 -0.000923487196524886 -0.000563909217670312 0.000352978461655298 0.000241752046853288 0.000396743762029075 0.00073305401867376 0.000706944228827004
"251" 0.000399510976599594 0.000730138182870585 0.0014093928312052 0.000613248226859567 0.000555966685114407 -0.000236031360299977 0.000361746796940245 0.000663067664450233 -0.00096400018411098 -0.00090118966311808 -0.000556257549589672 0.00036121937557916 0.000238848319941818 0.00039904410998607 0.000738182799657008 0.000692854155929771
"252" 0.000415349980032247 0.000736558610957305 0.00142661527834646 0.00063045527783369 0.000558955527687048 -0.000227486351391578 0.000376971561143182 0.000658938496657094 -0.000954506245881512 -0.000879236249083684 -0.000549352593768516 0.000368685280997557 0.000235461688113451 0.00040064268101721 0.000742847211342294 0.000677542405147129
"253" 0.000431762302291813 0.000742209261771952 0.00144410062515918 0.000646719772763637 0.000562075139676178 -0.000219249065764352 0.000392242427714631 0.000655290660037848 -0.000944936112579101 -0.00085768057517662 -0.000543135071126888 0.000375355398485502 0.000231592650491462 0.000401493883972972 0.000747017344249745 0.000661096591466446
"254" 0.00044894432452063 0.000747165213688425 0.00146173420136286 0.000661976666149182 0.000565381333698044 -0.000211318659755421 0.000407479421501136 0.000652221720552615 -0.000935204682663391 -0.000836553470680637 -0.000537550105283374 0.000381209676836614 0.000227240290159404 0.000401553730926499 0.000750659389249632 0.000643606685037468
"255" 0.000467062802949472 0.000751492084128296 0.00147938412813415 0.000676158773905734 0.000568914831863621 -0.000203692798429696 0.000422604795420709 0.000649807335602931 -0.000925225030593817 -0.00081588095939236 -0.000532528643681407 0.000386229211404284 0.000222397416667379 0.00040078958692225 0.000753741411372488 0.000625167150968749
"256" 0.000486231251377951 0.000755233166306374 0.0014969196835402 0.000689198178942036 0.000572710480205992 -0.000196366221155159 0.000437542876753666 0.00064810412839316 -0.00091491175045176 -0.000795670741460679 -0.000527996995558175 0.000390392756211586 0.000217061936575671 0.000399175410509408 0.000756225569516545 0.000605878332289963
"257" 0.000506530153195001 0.000758410904476035 0.00151419240064665 0.000701033030263852 0.000576792332268544 -0.000189329057823273 0.000452214066216882 0.00064715530794797 -0.000904176012545029 -0.000775925072356392 -0.0005238822154307 0.000393681138695936 0.000211224687150463 0.000396694408195227 0.000758062876619686 0.000585841563744615
"258" 0.000527999521638675 0.000761039665459593 0.001531057332937 0.000711600398630239 0.000581186169629804 -0.000182573134129596 0.000466551607424848 0.000646973058116199 -0.000892935966220102 -0.000756631810385752 -0.000520104778857865 0.000396076156149846 0.00020487866771971 0.000393335030372616 0.000759211440045536 0.00056516149712078
"259" 0.000550634996032287 0.000763119860546201 0.00154736018764958 0.000720838932621385 0.000585904025301708 -0.000176083075030974 0.000480479030744792 0.000647556207435519 -0.000881116218723451 -0.000737779538221744 -0.000516584529637632 0.000397561592431975 0.000198012407138435 0.000389095313620719 0.000759623920958202 0.000543949875800543
"260" 0.000574398115945185 0.000764634577890018 0.00156295177457547 0.000728694490103011 0.000590946384725115 -0.000169851881397754 0.000493929302443257 0.000648884121686091 -0.000868645916248857 -0.000719341637796172 -0.000513244995535331 0.000398121959575101 0.000190619282327338 0.000383981030722451 0.00075925604648643 0.000522312642273149
"261" 0.00059921292852752 0.000765559360195707 0.00157767863870602 0.00073511537828458 0.000596304476759341 -0.000163861645923837 0.000506836696985444 0.000650913095046453 -0.000855462791392463 -0.000701296626397203 -0.000510002829281468 0.000397747661871811 0.00018269117811048 0.000378004416963214 0.000758058890914154 0.000500362419741183
"262" 0.000624960930826528 0.000765855879567986 0.00159139268171479 0.000740049912297785 0.00060196867540067 -0.000158102147257857 0.000519138137477049 0.000653586354990795 -0.000841521701660594 -0.000683616850124518 -0.00050678261525104 0.000396425293395055 0.000174219061612985 0.000371186017462924 0.000755987680625738 0.000478209672763235
"263" 0.000651510821738949 0.000765484009335305 0.00160395326922163 0.000743462297836294 0.000607910831292377 -0.000152562067045917 0.000530773706644117 0.000656826067728278 -0.000826781203424555 -0.000666275174380375 -0.000503516399337026 0.000394149585587028 0.000165195033876575 0.000363548871419837 0.000752998478199002 0.000455963110935775
"264" 0.000678678843525697 0.000764389888202462 0.00161522186267165 0.000745312597672203 0.000614099942977487 -0.000147227384557251 0.000541690580392651 0.000660541201953717 -0.000811211014376946 -0.000649240334772659 -0.000500128456266963 0.00039091680131553 0.000155616880677338 0.000355127956744716 0.000749049206054926 0.000433731684141218
"265" 0.000706274338217168 0.000762518479148968 0.00162507117643004 0.000745570656612625 0.00062049516543085 -0.000142091614431021 0.000551834144406882 0.000664623575315695 -0.000794799818215722 -0.000632487261136681 -0.000496558311772526 0.000386722850547259 0.000145478705577781 0.000345959332355767 0.000744098703822844 0.000411617531161402
"266" 0.000734072995882857 0.000759812850503126 0.00163338043489716 0.000744213326409202 0.000627048496888485 -0.000137143772935921 0.000561158684421296 0.000668955648344772 -0.000777544546273108 -0.000615988410312658 -0.000492743803586624 0.000381571320329643 0.000134777853706085 0.000336084474541065 0.000738113566586012 0.000389723033341198
"267" 0.000761841122933999 0.000756216864024624 0.00164004889245534 0.000741229607156352 0.000633702274629871 -0.00013237988318484 0.000569622629612937 0.000673407108497883 -0.000759452736804584 -0.000599724959328941 -0.000488635509769638 0.000375464551277176 0.000123516347881824 0.000325550133819189 0.000731065066892988 0.0003681445531809
"268" 0.000789327987393783 0.000751663008476496 0.00164497915143968 0.00073660388706153 0.00064039493747451 -0.000127794535725753 0.000577185186488948 0.000677837067703322 -0.000740548620795834 -0.000583679335630541 -0.000484186633789986 0.000368414334991583 0.000111697209939029 0.000314408573571408 0.000722921941815513 0.00034697425759145
"269" 0.000816270044151857 0.000746098725080166 0.00164809521506008 0.000730341094786797 0.000647056961935547 -0.000123386829293306 0.000583812785190803 0.00068210171772168 -0.000720860707612828 -0.000567830252750125 -0.000479358252406013 0.000360427404777256 9.93207467949709e-05 0.000302713439154165 0.000713670098057333 0.000326291748960215
"270" 0.000842401354353287 0.000739464598375365 0.00164932634622008 0.000722444737965308 0.000653613727904654 -0.000119154888967803 0.000589481886312023 0.000686048148406158 -0.000700437300228795 -0.000552171121018354 -0.000474116849659705 0.000351520127332183 8.63965861007171e-05 0.000290521067111411 0.000703290825258109 0.00030617727880486
"271" 0.000867450973278191 0.0007317036597584 0.00164862421006288 0.00071293042181308 0.000659993437407322 -0.000115100206175013 0.000594167253354476 0.000689521608259688 -0.000679326984760029 -0.000536692502790115 -0.000468438813541063 0.000341710649389697 7.29338984687229e-05 0.000277890979853943 0.00069177505569183 0.000286696110934793
"272" 0.000891152371577177 0.000722769635852634 0.00164595151983669 0.00070181879376642 0.000666107916424644 -0.000111227818424979 0.000597848505194007 0.000692369724863547 -0.000657594489435879 -0.000521390967537842 -0.000462306443724521 0.00033101735173183 5.89462343633747e-05 0.000264884600633988 0.000679121402032672 0.000267910407054141
"273" 0.000913244277833224 0.000712618812113468 0.0016412923384755 0.00068913900245286 0.000671882672417137 -0.000107542168589535 0.000600514588606255 0.000694437133390977 -0.000635305055707117 -0.00050626558023703 -0.000455706993022347 0.000319467278949889 4.44466007192568e-05 0.000251560577882596 0.00066533109142384 0.000249867515272482
"274" 0.000933476503412539 0.000701207666098216 0.00163463576927473 0.000674927939975835 0.000677229349323143 -0.000104050696831117 0.000602158867499694 0.000695576894726541 -0.000612533138805593 -0.000491320940234777 -0.000448640532738842 0.000307084777355519 2.9457246575314e-05 0.000237984061147644 0.000650412337258243 0.000232608246360363
"275" 0.000951608050382223 0.000688507499508058 0.0016259905515922 0.000659227392662936 0.000682064556133858 -0.000100763663711357 0.000602778437777097 0.000695644645951677 -0.000589364379837732 -0.000476563310550045 -0.000441111757029327 0.000293901327838249 1.39927411097327e-05 0.000224215408725009 0.000634382215895415 0.000216164953916515
"276" 0.000967415781572105 0.000674493545816645 0.0016153838887083 0.0006420865540823 0.00068630635985275 -9.7685670985768e-05 0.00060237626448707 0.000694502988664912 -0.000565877062282166 -0.000462005208402149 -0.000433125259675268 0.0002799505727831 -1.91443788826428e-06 0.000210316258124252 0.000617261457679172 0.000200552593978576
"277" 0.000980699750018378 0.000659144547801254 0.00160284648696553 0.000623559809227263 0.000689875947311951 -9.48325434753628e-05 0.000600956746335633 0.000692029879180397 -0.000542162115562021 -0.000447656407251503 -0.000424699512747739 0.000265269319784567 -1.82458546297973e-05 0.000196346446311583 0.00059907496639264 0.000185783572074306
"278" 0.000991278675643015 0.00064245497448875 0.00158843064995617 0.000603707699598999 0.000692693074055353 -9.22142932347424e-05 0.000598534561370571 0.000688109430011241 -0.000518304413505771 -0.000433534494314748 -0.000415856789499696 0.00024989395969848 -3.49664450363771e-05 0.000182363325948126 0.000579860499230563 0.000171859129867497
"279" 0.000998991947497452 0.000624418783321495 0.00157219733467226 0.000582594304531046 0.000694688081168418 -8.9840817085749e-05 0.000595125950515149 0.000682644249375126 -0.000494402401444871 -0.000419660161704954 -0.000406627836992655 0.000233869391464116 -5.20459316590342e-05 0.0001684235634022 0.000559654241004243 0.000158767540628281
"280" 0.00100371191895934 0.000605049011182818 0.00155421986827082 0.000560292114692079 0.000695790540679712 -8.77248863809624e-05 0.00059074919655849 0.00067554372880518 -0.000470544046095027 -0.000406052676720574 -0.000397043164394341 0.000217240118015458 -6.94468856812858e-05 0.000154581913943537 0.000538499889521885 0.000146493634222332
"281" 0.00100533701614767 0.000584363865413601 0.0015345769057028 0.000536869709298079 0.000695939200582514 -8.58763833732937e-05 0.000585434084927274 0.000666743847343324 -0.000446816426627359 -0.000392735065193974 -0.000387140409564842 0.000200053027122459 -8.7131975356042e-05 0.000140884335390105 0.00051644546644096 0.000135005285407774
"282" 0.00100378803407066 0.000562384773938798 0.0015133672992124 0.000512408009425047 0.000695074538809386 -8.43099496924287e-05 0.000579204120892364 0.000656185876109868 -0.000423311784983937 -0.000379729340960539 -0.000376964768624878 0.000182355106099523 -0.000105063387214501 0.000127377361224015 0.000493540873647261 0.000124270761742561
"283" 0.000999021400955792 0.000539149895005077 0.00149068133334398 0.000486984976507201 0.000693151443600508 -8.30351290015907e-05 0.000572097621240946 0.000643836930388683 -0.000400117273338917 -0.000367061553558412 -0.000366558400850171 0.0001641991986691 -0.000123197108088202 0.000114106725938472 0.000469844853943232 0.000114243765142463
"284" 0.000991027141356181 0.000514709513127395 0.00146663615776258 0.000460683305432457 0.000690126025143677 -8.20603138936286e-05 0.000564146013308659 0.000629680568772847 -0.000377317991349097 -0.000354762491156221 -0.000355977388330667 0.000145637346429823 -0.000141488256472245 0.000101108405471815 0.000445413576906332 0.000104880336190568
"285" 0.000979818132886195 0.000489118001081936 0.00144134133740897 0.000433589108179056 0.000685963072567501 -8.13961383060358e-05 0.00055539510816216 0.000613715751718218 -0.000354992567854599 -0.000342857437940566 -0.000345269481881163 0.000126724387162385 -0.000159891415153083 8.84146864482571e-05 0.000420313290143739 9.6123427464279e-05
"286" 0.000965440863345738 0.000462443451726712 0.00141491131973685 0.000405785156161874 0.000680641597821988 -8.10506230975255e-05 0.000545882412596523 0.000595963724135783 -0.000333220901981402 -0.000331370848845748 -0.000334492150422546 0.000107518357353339 -0.000178363420389255 7.60555558610665e-05 0.000394606159670489 8.79160764192928e-05
"287" 0.000947974528049869 0.000434767774207285 0.00138747401011636 0.000377361988742199 0.000674143284858894 -8.10282728911721e-05 0.000535657031017002 0.000576461897497594 -0.000312069279195591 -0.000320331954659911 -0.000323703332161072 8.8070980329959e-05 -0.000196853996377052 6.405393678473e-05 0.0003683564940068 8.0194284759057e-05
"288" 0.000927520541884925 0.000406172430945292 0.00135915890461042 0.000348409443029201 0.00066646414294814 -8.13373712307755e-05 0.000524771127262527 0.000555261546913206 -0.000291613498899706 -0.000309768945396706 -0.000312962844933296 6.84412519489549e-05 -0.000215317498473868 5.24315761628874e-05 0.000341636597112218 7.28967964585068e-05
"289" 0.000904205184686226 0.000376756734371493 0.00133008740129107 0.000319013371047224 0.000657599811812798 -8.19813348589732e-05 0.00051327262449657 0.000532438337558947 -0.000271910645407317 -0.000299708311423242 -0.000302331937772044 4.8686772042991e-05 -0.000233705595297019 4.11985336490729e-05 0.000314510467450638 6.59599522356774e-05
"290" 0.000878193170049048 0.000346629628967998 0.00130039523048115 0.000289266461404518 0.000647565498958976 -8.29608858928895e-05 0.000501215028411592 0.000508078410802817 -0.000253014474733541 -0.000290167476627735 -0.000291869318973356 2.88648104336697e-05 -0.000251972115520032 3.03670117121073e-05 0.000287049205455867 5.93117588187674e-05
"291" 0.000849662773972576 0.000315902006524961 0.00127021468142805 0.000259256557595551 0.000636385314801662 -8.42771955720945e-05 0.000488656213038735 0.000482284049203606 -0.000234979657475521 -0.000281180773836729 -0.000281637918232987 9.0280027802e-06 -0.000270073720060287 1.99409544763644e-05 0.000259323640765497 5.28929268044872e-05
"292" 0.000818812093885491 0.000284698301200341 0.0012396756485153 0.000229074356512849 0.000624081167690775 -8.59287067173941e-05 0.000475657146184016 0.000455174203459331 -0.000217846444512483 -0.000272759290029867 -0.000271697380138894 -1.07648072296673e-05 -0.000287964281224942 9.91936858384745e-06 0.000231399147052311 4.66383969004839e-05
"293" 0.000785863640743984 0.00025314317023077 0.00120890455794396 0.00019880816926502 0.000610697761615403 -8.79135384526098e-05 0.000462271124671893 0.000426873752198324 -0.000201649630398565 -0.000264925119848933 -0.000262110683576961 -3.04620253466737e-05 -0.000305604746849886 2.98427270266122e-07 0.000203344537393728 4.04865572948832e-05
"294" 0.000751053149437336 0.000221373979780033 0.0011780384286997 0.000168545291930779 0.000596277313062458 -9.02254331379744e-05 0.00044856426324541 0.000397522651438324 -0.000186420288495324 -0.000257694232837036 -0.000252932871838175 -5.00092694882799e-05 -0.000322952446042554 -8.92796458238353e-06 0.000175227705464706 3.438241328896e-05
"295" 0.000714629570697665 0.000189527559046955 0.00114719595991458 0.000138373909988807 0.000580877273178254 -9.2858706860013e-05 0.00043459869549669 0.000367269725122433 -0.000172183870861568 -0.000251074156374656 -0.000244222391112544 -6.9359213518102e-05 -0.000339972640055071 -1.77730661779291e-05 0.000147111577134055 2.82713726557899e-05
"296" 0.000676862471596246 0.000157744823817368 0.00111650581322791 0.000108376175979862 0.000564557243355883 -9.58046166854669e-05 0.000420432257717284 0.000336269719042194 -0.000158950726954876 -0.000245076740154299 -0.000236030187605044 -8.84608919520587e-05 -0.000356632860301536 -2.62499853003104e-05 0.000119062308534445 2.21053844072312e-05
"297" 0.000638010007053511 0.000126167927814984 0.00108607953862189 7.86407400343304e-05 0.000547383863547192 -9.90524875602982e-05 0.000406132409086192 0.000304680818284303 -0.000146730770470087 -0.000239704864859489 -0.000228408269624697 -0.000107270929862947 -0.000372900889923005 -3.43797397436794e-05 9.11392393201476e-05 1.58393872435753e-05
"298" 0.000598354986388813 9.49404448683199e-05 0.00105603690931291 4.92453481531091e-05 0.000529437608181198 -0.000102592198047984 0.000391759186918293 0.000272671002903785 -0.000135522981184868 -0.00023495727719492 -0.000221406793245043 -0.000125746736748418 -0.000388750298593215 -4.21769518700256e-05 6.34069794915156e-05 9.44220160668687e-06
"299" 0.000558168465521365 6.42054927305441e-05 0.0010264833635166 2.02705030158329e-05 0.000510792474097896 -0.000106406833039145 0.00037737473266365 0.000240403673835023 -0.000125319772415971 -0.000230827786973693 -0.000215066383780538 -0.000143846039948945 -0.000404158361956526 -4.96658817034819e-05 3.59158894814473e-05 2.87633526242073e-06
"300" 0.000517731934796955 3.41017971183118e-05 0.000997521594379065 -8.20850682734124e-06 0.000491537090836854 -0.00011048242150537 0.000363039276140045 0.000208044635570899 -0.00011610991665857 -0.000227313145753587 -0.000209425925421097 -0.00016153550932633 -0.000419106561006938 -5.68701818156529e-05 8.7270224458096e-06 -3.87532641263021e-06
"301" 0.000477317195694605 4.76155906335213e-06 0.000969246286227719 -3.61144702335143e-05 0.000471759464787552 -0.000114801913880306 0.000348812784669181 0.000175762513353023 -0.00010787207845711 -0.000224394071776641 -0.000204520274015377 -0.000178779787656284 -0.000433578936443776 -6.38126754224045e-05 -1.81101162953996e-05 -1.08348567523626e-05
"302" 0.000437188010014339 -2.36842769905541e-05 0.000941748903211256 -6.33807345395781e-05 0.000451546801022561 -0.000119344864110613 0.000334751817553702 0.00014371533184535 -0.000100579718242547 -0.000222059315122617 -0.000200379120210876 -0.00019554950779876 -0.000447565629672323 -7.05187394101588e-05 -4.45430036541807e-05 -1.80102453064682e-05
"303" 0.000397609409135339 -5.11152023222753e-05 0.000915110113405459 -8.99386892665338e-05 0.000430994336950007 -0.000124095060440044 0.000320912257926833 0.000112065012345794 -9.42043062978938e-05 -0.000220290184873291 -0.00019702873265744 -0.000211817107470468 -0.000461057346965928 -7.70110742027862e-05 -7.05255901904324e-05 -2.54018251954778e-05
"304" 0.000358826596930056 -7.74194902223538e-05 0.000889399932899681 -0.000115724536605181 0.000410198182993583 -0.000129027127714927 0.000307344313351984 8.09632978571386e-05 -8.87037881094801e-05 -0.000219060322994298 -0.000194488016102502 -0.000227559001147606 -0.000474049475613334 -8.33130663166273e-05 -9.60160664673916e-05 -3.30077409989482e-05
"305" 0.000321073076587362 -0.00010248817265182 0.000864686797618741 -0.00014067965872936 0.000389250440324911 -0.000134121456623171 0.000294099858402888 5.05499110795961e-05 -8.40490460690977e-05 -0.000218345305744697 -0.000192769746157787 -0.000242758867246908 -0.0004865452075633 -8.94493775151244e-05 -0.000120963584477123 -4.08085763273908e-05
"306" 0.000284571278098652 -0.000126234956425099 0.000841022775105718 -0.000164748879514224 0.000368248366179048 -0.000139353022815243 0.000281221042442733 2.09647316965213e-05 -8.01888885950794e-05 -0.000218116662956797 -0.000191882600720125 -0.000257397540822482 -0.000498543989262537 -9.54404312203422e-05 -0.000145336877590733 -4.87901664068233e-05
"307" 0.0002495258977093 -0.000148570238451518 0.000818460344511511 -0.000187879953568522 0.00034728005148842 -0.000144699614993468 0.000268749881127201 -7.66456126707743e-06 -7.70831347216071e-05 -0.000218348153316722 -0.000191831524777755 -0.000271462622739367 -0.000510053902315781 -0.000101305827686245 -0.000169092896734935 -5.6920344905929e-05
"308" 0.000216117257492353 -0.000169431374766204 0.000797035783410292 -0.000210029765167677 0.000326438049024343 -0.000150134688996212 0.000256730050604355 -3.52259598645755e-05 -7.46837813732003e-05 -0.000219000804847656 -0.000192612481123439 -0.000284944755679691 -0.000521083786736169 -0.000107063388543814 -0.000192197546275948 -6.51683557278764e-05
"309" 0.000184510677230146 -0.000188756897545333 0.000776780784531104 -0.000231153528268112 0.000305810717293264 -0.000155635386726472 0.000245188602705061 -6.16126706021672e-05 -7.29441839071369e-05 -0.000220049368978102 -0.000194216470124853 -0.00029783740160023 -0.000531644373406424 -0.000112732700564379 -0.000214618818431707 -7.34886505659346e-05
"310" 0.000154856699744821 -0.00020649883917237 0.000757713776477166 -0.000251216239446232 0.000285478810888148 -0.00016117377775949 0.000234156584999667 -8.67317728724316e-05 -7.1815286636724e-05 -0.000221457464377742 -0.000196632655232627 -0.000310135689325832 -0.000541749011891256 -0.000118325461821265 -0.000236328092660305 -8.18394016614921e-05
"311" 0.00012727650912591 -0.000222630812659578 0.000739853641987064 -0.000270186424510989 0.000265524476689564 -0.000166726162750894 0.000223661067823885 -0.0001105021000074 -7.125747010688e-05 -0.000223197673672375 -0.000199840623545851 -0.000321842597787724 -0.000551415501745613 -0.000123852583211232 -0.000257295995990561 -9.0164202001549e-05
"312" 0.000101868945920318 -0.000237130999729746 0.000723199445649557 -0.000288035934910866 0.000246021684605505 -0.000172267239396172 0.000213722727457663 -0.00013285819435617 -7.12219346228923e-05 -0.000225237959853689 -0.000203817764484873 -0.000332957626947577 -0.000560657838462946 -0.00012932453493301 -0.000277494269608968 -9.84040823094866e-05
"313" 7.87157932961449e-05 -0.000249989257280514 0.000707755324632586 -0.000304742118598849 0.000227035654260879 -0.000177775130179195 0.000204355950433857 -0.000153746446710125 -7.16754772786525e-05 -0.000227554425987801 -0.000208537846840455 -0.000343486483416052 -0.000569495316789066 -0.000134750716327055 -0.000296899779813103 -0.000106497735443225
"314" 5.78665148591508e-05 -0.000261220443581131 0.000693502604515922 -0.000320291146647319 0.000208632226071554 -0.000183223100467806 0.000195571030799878 -0.000173124203712031 -7.25808192944878e-05 -0.000230120391021358 -0.000213966460352383 -0.000353434169465783 -0.000577945014337664 -0.000140131812237676 -0.000315493363104668 -0.000114376936697179
"315" 3.93636612406477e-05 -0.000270833156866523 0.000680430488485809 -0.000334670184124878 0.000190869384223363 -0.000188588393995475 0.000187375561302947 -0.000190962623641275 -7.3901072670396e-05 -0.000232915603831088 -0.000220068322097135 -0.000362813447984864 -0.000586028276391217 -0.000145469627130145 -0.000333250240092087 -0.000121975360116981
"316" 2.32109743324921e-05 -0.000278861899277906 0.000668506142190247 -0.00034787196177689 0.000173788775417949 -0.000193852626968485 0.000179770604652001 -0.000207248907031453 -7.56158317306215e-05 -0.000235920608108449 -0.000226804547581743 -0.000371631680804104 -0.00059376102870441 -0.0001507648088172 -0.000350151663214059 -0.000129219078026899
"317" 9.40938338861664e-06 -0.000285344838513434 0.00065770699563284 -0.000359891620926404 0.000157438815309476 -0.00019898948938203 0.000172752191182168 -0.000221980485397839 -7.7698144231711e-05 -0.000239126035289728 -0.000234128570030946 -0.000379903076291944 -0.000601159974399668 -0.000156013156930324 -0.000366180349649039 -0.000136036673647041
"318" -2.08137933942998e-06 -0.0002903363293503 0.00064798944571205 -0.000370735619175023 0.000141850706371441 -0.000203983512538431 0.000166318742180602 -0.000235165633829032 -8.01358593214511e-05 -0.0002425214216579 -0.000241999819755516 -0.000387639244077631 -0.000608245586215094 -0.00016120906422843 -0.000381324048786397 -0.000142352389342177
"319" -1.13061920957405e-05 -0.000293888227744113 0.000639311891269349 -0.00038041007151035 0.000127049584250295 -0.000208815239210815 0.000160454840702855 -0.000246828941093822 -8.29175691968251e-05 -0.000246101627077451 -0.000250362441837921 -0.000394858718928037 -0.00061503037509691 -0.00016634385256289 -0.000395563769189448 -0.0001480949723309
"320" -1.83285822737523e-05 -0.000296072714534349 0.000631625049077491 -0.000388925175613998 0.000113060338928001 -0.0002134673032923 0.000155146816059407 -0.000257000968678808 -8.60361020320105e-05 -0.000249867840811823 -0.000259169813381423 -0.000401573645598933 -0.000621529421967478 -0.000171406456925667 -0.000408889371630531 -0.000153193023274423
"321" -2.32403933964858e-05 -0.000296963929711264 0.000624876655350272 -0.000396299412171075 9.98906335271076e-05 -0.000217924552084823 0.00015037478251997 -0.000265728126654465 -8.94946486582347e-05 -0.000253822354761056 -0.000268366787533922 -0.000407801881014484 -0.000627753348036418 -0.000176386175457467 -0.000421289410917576 -0.000157580314823487
"322" -2.61325311652298e-05 -0.00029663998411108 0.000619014517876023 -0.00040254776145442 8.75482783847666e-05 -0.000222173888576054 0.000146121903194978 -0.00027305986208885 -9.32985079220844e-05 -0.000257979431206903 -0.000277897318418466 -0.000413559519578937 -0.000633713965974334 -0.000181266393142367 -0.000432748317967313 -0.000161186379213949
"323" -2.71258846225204e-05 -0.000295188908749356 0.000613976871232685 -0.000407699513101708 7.60251613211233e-05 -0.000226202333424231 0.000142357269505009 -0.000279058011125713 -9.74579007572672e-05 -0.00026235126138852 -0.000287703672907194 -0.000418865309058031 -0.000639416135105522 -0.000186031266916746 -0.000443263073598464 -0.000163952138682681
"324" -2.63443796207888e-05 -0.000292699663038126 0.00060969645775252 -0.000411778227043744 6.53193156507079e-05 -0.000230000403972519 0.000139058689645816 -0.000283794764155124 -0.00010198416628112 -0.00026695128833084 -0.000297729254683555 -0.000423735019113553 -0.000644865417209348 -0.000190660531018904 -0.000452823384459232 -0.000165821928895953
"325" -2.39235415316282e-05 -0.000289266210477951 0.000606114914196691 -0.000414815574122922 5.54100065658709e-05 -0.00023355517585479 0.000136196089701691 -0.000287347410692525 -0.000106901287062186 -0.000271802788074927 -0.000307913245148144 -0.000428185154546477 -0.000650063795227099 -0.000195137970102543 -0.000461423564673558 -0.000166750211912192
"326" -2.00081321893511e-05 -0.000284981706104577 0.000603164155822165 -0.000416845200763793 4.62753741963774e-05 -0.000236863632035783 0.00013373684377127 -0.000289796247978263 -0.000112226715085586 -0.000276928176563348 -0.000318197923713761 -0.000432234914539934 -0.000655010937642325 -0.000199438031775236 -0.000469057045113166 -0.000166687863288484
"327" -1.47482604664624e-05 -0.000279944118750294 0.000600776595556448 -0.000417902998895696 3.7891033103784e-05 -0.00023991407727035 0.000131646861567136 -0.000291229698463769 -0.000117986771500196 -0.000282352886947826 -0.000328523288118015 -0.000435896097337779 -0.000659698459180503 -0.000203543680529209 -0.000475719365616174 -0.000165601325197503
"328" -8.30822004962986e-06 -0.000274247749725363 0.000598885810398707 -0.000418028853028554 3.02237627603793e-05 -0.000242705810105724 0.000129892162360103 -0.000291738691244852 -0.000124202182523553 -0.000288101659365979 -0.000338828056997044 -0.000439186462723433 -0.000664125089050528 -0.000207427909438989 -0.000481407427720057 -0.00016346502629938
"329" -8.38392808207184e-07 -0.000267988232166485 0.000597419316546069 -0.000417261628803269 2.32318205840457e-05 -0.000245230544541485 0.00012844186109948 -0.000291418251878765 -0.000130901226092666 -0.00029420216743906 -0.00034905084602181 -0.000442120143806329 -0.000668275865758657 -0.000211067372662923 -0.000486123220091776 -0.000160257895866809
"330" 7.49126912787782e-06 -0.000261258476027682 0.000596312616880507 -0.000415647085942072 1.68782379922112e-05 -0.000247486898970181 0.000127257542124126 -0.000290360783242539 -0.000138104552078786 -0.000300678957483897 -0.000359135391785542 -0.000444711012110581 -0.000672140463644769 -0.000214437379339557 -0.000489864472175838 -0.000155972544015883
"331" 1.65255226059401e-05 -0.000254150176279185 0.000595499672292374 -0.000413228769069027 1.11137629529235e-05 -0.000249471703393381 0.000126306458254411 -0.000288665375924177 -0.000145837234797211 -0.000307559346332501 -0.000369018005346888 -0.000446971702032095 -0.000675703552058037 -0.00021751602184657 -0.000492634493934567 -0.000150609087491873
"332" 2.61029239554441e-05 -0.000246745710462298 0.000594917848602254 -0.000410050591406835 5.89726273309814e-06 -0.000251183555841758 0.000125550230642604 -0.000286428265203337 -0.000154120152796196 -0.000314863403629003 -0.000378642836449031 -0.00044891262203326 -0.000678945367196175 -0.000220274413159591 -0.00049443542353152 -0.000144175659707399
"333" 3.60703763254132e-05 -0.000239134496619613 0.00059449835783806 -0.000406163514357963 1.17391619717792e-06 -0.000252621148187292 0.000124954954990757 -0.000283741577513749 -0.000162959799374381 -0.00032261210479206 -0.000387952071622132 -0.000450543898171486 -0.000681845941614702 -0.000222693408042383 -0.000495274718165406 -0.000136695885876113
"334" 4.62803569100541e-05 -0.000231388905413319 0.000594184245471363 -0.000401609954500416 -3.10889722528046e-06 -0.00025378549361583 0.000124493787257182 -0.000280699587422368 -0.000172377190205936 -0.00033081981644139 -0.000396889979153328 -0.000451876947295823 -0.00068438280164807 -0.00022474322146856 -0.000495156239163218 -0.00012819582686214
"335" 5.65904471929611e-05 -0.000223581240975382 0.000593919787315995 -0.000396441277744398 -7.00110737919981e-06 -0.00025467503893129 0.00012412699843804 -0.000277387812462335 -0.000182375319901228 -0.00033950041436859 -0.000405402500017778 -0.000452916475162234 -0.000686531124358941 -0.000226404846072464 -0.000494088176363983 -0.000118712696220969
"336" 6.6865751109991e-05 -0.000215778600495884 0.000593643023308588 -0.000390701958680848 -1.05576401485715e-05 -0.000255290985610991 0.000123831200772924 -0.000273892984917631 -0.000192948038171678 -0.000348654721686285 -0.000413432050431775 -0.000453672184760648 -0.00068826443663984 -0.000227651596625814 -0.000492084899969303 -0.000108298745320143
"337" 7.69832960731399e-05 -0.000208041602213887 0.000593311641151434 -0.00038444339787888 -1.38303621294394e-05 -0.00025563291300554 0.000123574061357332 -0.000270293784787241 -0.000204092125002607 -0.000358287644397342 -0.000420934561454031 -0.000454148732395548 -0.000689558795945412 -0.00022846547789716 -0.000489154084878148 -9.70075430549488e-05
"338" 8.68278341861733e-05 -0.000200420950545182 0.000592874402011872 -0.000377710808082937 -1.68702353182424e-05 -0.000255702523033344 0.000123333499769013 -0.00026666626230954 -0.000215790253271947 -0.000368389013791199 -0.000427855657457195 -0.000454348772480333 -0.000690379476585908 -0.000228824164287329 -0.000485311842324283 -8.49032280524987e-05
"339" 9.63024841551697e-05 -0.000192964587191462 0.00059228757305694 -0.000370550903807708 -1.9729476518462e-05 -0.000255500559102403 0.000123082023021148 -0.000263076833780613 -0.000228017678263415 -0.000378944400376175 -0.000434149517570022 -0.000454278342905975 -0.000690702884614165 -0.000228708400740819 -0.000480570311351931 -7.20641260464814e-05
"340" 0.000105316771677085 -0.000185709262100065 0.000591517874878946 -0.000363006372490225 -2.24558051267959e-05 -0.000255027653538583 0.000122800286500913 -0.000259590217178701 -0.000240742391680923 -0.000389933628290398 -0.000439775207632045 -0.000453937655561124 -0.000690502198636021 -0.000228100444335029 -0.000474952056405945 -5.85612309819901e-05
"341" 0.000113794251518044 -0.000178689599968399 0.000590528802017084 -0.000355122167196927 -2.50945016282559e-05 -0.00025428678514147 0.000122468663687868 -0.000256256900454006 -0.000253919431905287 -0.0004013256273467 -0.000444688982934952 -0.000453331134348373 -0.000689744667180439 -0.000226986871577976 -0.000468470927674439 -4.4485050114508e-05
"342" 0.00012167232697133 -0.000171929985771665 0.000589295598995483 -0.000346939317169446 -2.76950785319313e-05 -0.000253276748519192 0.000122075936270495 -0.000253127892199727 -0.000267500657656287 -0.000413079723021449 -0.000448854175393127 -0.000452458331876516 -0.000688405643685848 -0.00022534961517991 -0.000461152700089203 -2.99259026807966e-05
"343" 0.000128903380182383 -0.000165447366059881 0.000587791375940572 -0.000338498667588437 -3.02890790003597e-05 -0.000252001355666323 0.000121605217254541 -0.000250243009278933 -0.000281426666974241 -0.000425155367624911 -0.000452236383814295 -0.000451318389105814 -0.000686460590488795 -0.000223180187594022 -0.000453015878204319 -1.49762291838295e-05
"344" 0.000135450393503417 -0.000159252200179212 0.000586004648289984 -0.000329834761563029 -3.29217366599701e-05 -0.000250461274320319 0.00012104740150622 -0.000247631938276345 -0.000295627374264113 -0.000437490733656714 -0.000454803530323533 -0.000449914745374291 -0.000683884624139992 -0.000220467906513921 -0.000444081584220013 2.65456779828273e-07
"345" 0.000141295230814377 -0.000153354190706551 0.000583922779297892 -0.000320986373221402 -3.56189624344604e-05 -0.000248655909697091 0.000120397496796029 -0.000245319595751511 -0.000310024752284989 -0.000450030451072114 -0.000456528434653196 -0.000448242914214034 -0.000680654380595022 -0.000217202399686955 -0.000434381459524174 1.56981273920054e-05
"346" 0.000146424939530058 -0.000147750129025409 0.000581538481356733 -0.000311984772553579 -3.84126949127126e-05 -0.000246590176196178 0.000119651898985562 -0.000243326184067669 -0.000324535855959768 -0.000462701953018187 -0.000457390973947259 -0.000446305296658803 -0.000676752132889387 -0.000213381736044567 -0.000423938323306103 3.12238460784482e-05
"347" 0.000150849673690721 -0.000142435579849891 0.000578854561964441 -0.000302857956541059 -4.13293149961911e-05 -0.000244262419940758 0.000118805910886195 -0.000241656448998614 -0.000339066610010678 -0.000475427332013491 -0.000457367999124171 -0.000444101203296959 -0.00067215948404288 -0.000209002482553953 -0.000412779677967511 4.67379790410464e-05
"348" 0.000154584100095775 -0.000137399334373701 0.000575872850556265 -0.000293634494985535 -4.43842489035388e-05 -0.00024167688875937 0.00011786280848378 -0.000240315714376785 -0.000353518140945076 -0.000488122320298001 -0.00045644942678001 -0.000441627966019477 -0.000666863503356775 -0.000204062677787359 -0.000400934814000074 6.21438458666395e-05
