"V1" "V2" "V4" "V5" "V7" "V8" "V10" "V11" "V13" "V14" "V15" "V17" "V18" "V20" "V21" "V23"
"1" 0.000178703381104052 -5.41578883520385e-05 1.19771511090558e-05 -0.00088794122206575 0.000448749851058936 -0.000216866769057348 3.87251932407753e-05 -0.00020916364414122 0.000605206441917406 0.00038542341001777 -0.000210633480819364 -0.00023790172498579 0.000218068024898246 0.000462873504985094 -0.000332648828144876 -0.000569114211281833
"2" 0.000153182875613638 -6.02852571102693e-05 1.11048413851334e-05 -0.000903996454639244 0.000444910362728498 -0.000216603515030579 4.71803762341416e-05 -0.00023085972123962 0.000589709410452096 0.000382409508359963 -0.000212840500101846 -0.00023857587657182 0.000212923726721647 0.000433692939073068 -0.000319223458871531 -0.000557639195800514
"3" 0.000128793571118052 -6.20859239436935e-05 1.07775614417643e-05 -0.000913726110780362 0.000445831778422145 -0.000215070328520065 5.69695136070627e-05 -0.000249729843773213 0.000573181742401099 0.000380043427789187 -0.00021473580834889 -0.000237961918071814 0.000207688711693299 0.000402506454339766 -0.000306695598564588 -0.000545031271550047
"4" 0.000105604052517405 -5.95026464308623e-05 1.1145419377398e-05 -0.000916994004337212 0.000451901532139807 -0.000212210150337111 6.80690681704438e-05 -0.000265597914741981 0.000555831253135308 0.000378298333443 -0.000216382462424557 -0.00023604243394296 0.000202405567538132 0.000369789252346985 -0.000295431152033851 -0.000531395014204907
"5" 8.36874330991307e-05 -5.25134823048754e-05 1.23428562995759e-05 -0.00091371488924437 0.000463454501046468 -0.000207980337363694 8.04445795197268e-05 -0.000278318688156388 0.000537859306513189 0.0003771428987012 -0.000217834734964372 -0.000232810728404931 0.00019711285848681 0.0003360013783583 -0.000285774427241398 -0.000516848117988651
"6" 6.30928728765369e-05 -4.11373353923144e-05 1.44984229379411e-05 -0.000903846459046748 0.000480782353454838 -0.000202355440524321 9.4054823110493e-05 -0.000287764232443097 0.000519457275594883 0.00037652851433448 -0.000219149478629173 -0.000228275517719061 0.000191840607554487 0.000301602645112888 -0.000278058212050564 -0.000501512903031998
"7" 4.38614508382118e-05 -2.54377161193931e-05 1.77202948483772e-05 -0.000887397152244163 0.000504101341589475 -0.000195325153726656 0.000108840243920709 -0.000293841563706119 0.000500804607988562 0.000376409584067432 -0.000220389542652621 -0.000222461594340149 0.00018661980256161 0.000267035382417019 -0.000272579868419584 -0.000485524535443419
"8" 2.60281795925996e-05 -5.5046552979016e-06 2.21112723564037e-05 -0.000864415326392408 0.0005335782911627 -0.00018689724894687 0.000124736485915361 -0.000296480983106902 0.000482068632017444 0.000376723233931197 -0.000221608251202897 -0.00021540229348384 0.000181474663031207 0.000232719173274529 -0.000269616019536857 -0.000469024602441221
"9" 9.61104827457314e-06 1.85303347381956e-05 2.77444261834905e-05 -0.000835006535147919 0.000569317014622166 -0.000177090709380117 0.000141665560832754 -0.000295643717929616 0.000463405577485157 0.000377404860318549 -0.000222868683161555 -0.000207147447166382 0.000176433180648649 0.000199056449240946 -0.000269403770268508 -0.000452154617489256
"10" -5.37929038591796e-06 4.64992867349492e-05 3.46881584565029e-05 -0.000799312491828336 0.000611354746297998 -0.000165948553077635 0.000159542634653493 -0.000291313384928149 0.000444954395949644 0.000378386130197961 -0.000224221724677697 -0.000197756307953072 0.000171510859495851 0.00016641890932833 -0.000272155140331591 -0.000435067416032956
"11" -1.89351475289116e-05 7.82113340335997e-05 4.29857935242248e-05 -0.000757529617742759 0.000659658382318831 -0.000153523650644523 0.000178270656850001 -0.000283509698055184 0.000426842254908083 0.000379592327993729 -0.000225718948433541 -0.000187298721190246 0.000166726575390569 0.000135156263717119 -0.000278030888873414 -0.000417909428554482
"12" -3.10666707715115e-05 0.000113431170934397 5.26678412653126e-05 -0.000709897453034723 0.000714141274323282 -0.000139881320138653 0.00019774524168595 -0.000272277180117984 0.000409186762844964 0.000380948179796385 -0.000227411842280734 -0.000175854344914896 0.000162096567251515 0.000105574181503855 -0.000287154247750153 -0.00040082782985957
"13" -4.17828609866859e-05 0.000151910419716955 6.37385787208788e-05 -0.000656696875613916 0.000774633363364413 -0.000125102933901564 0.000217855390357193 -0.000257692451214605 0.000392081430322771 0.00038237281444792 -0.000229339691155844 -0.000163512139768287 0.000157629713447045 7.79576507423036e-05 -0.000299604394888803 -0.000383969556081459
"14" -5.11090143309373e-05 0.000193357256928717 7.61996264866081e-05 -0.000598258039459633 0.000840910957350221 -0.000109280173048101 0.000238480822143842 -0.000239852948799837 0.000375614092962144 0.000383787126088503 -0.000231542776759257 -0.000150366997343641 0.000153339564622196 5.25461436655851e-05 -0.000315415182587978 -0.000367475173762273
"15" -5.9068627001748e-05 0.000237468025534941 9.00174724593237e-05 -0.000534943186279038 0.000912681252461581 -9.25182796499047e-05 0.000259503632204041 -0.000218893640940903 0.000359854314938899 0.000385115678898135 -0.000234053050938987 -0.000136520147409679 0.000149232766252623 2.95490371545422e-05 -0.000334571902295707 -0.000351476614519211
"16" -6.56941393629359e-05 0.000283916559250116 0.000105157657502443 -0.000467163518143451 0.000989586927780562 -7.49274863808935e-05 0.00028078692639672 -0.000194966582597199 0.00034486024580439 0.000386279435172039 -0.00023689529608517 -0.000122074989318362 0.000145319476619701 9.13744558674369e-06 -0.000357011167210907 -0.000336096778601107
"17" -7.10237675645534e-05 0.000332348876706191 0.000121551264621566 -0.000395358035894278 0.00107121059650276 -5.66302819127684e-05 0.000302205911352903 -0.000168256422799455 0.000330677660220737 0.000387204290404323 -0.000240085691888706 -0.000107145137107632 0.000141607402660337 -8.55222871414783e-06 -0.000382629782124142 -0.000321452248790818
"18" -7.50953583685629e-05 0.000382400918399365 0.000139134540545482 -0.0003200074621651 0.00115707068835245 -3.77522624342491e-05 0.000323621471863388 -0.000138968350740865 0.000317338538348567 0.000387820585413116 -0.000243636572599883 -9.18406618088193e-05 0.000138100047220038 -2.34289477492461e-05 -0.000411269269698532 -0.000307643129562239
"19" -7.79568419740502e-05 0.0004336956101449 0.000157811656901343 -0.000241612580228796 0.00124664004009542 -1.84283374645047e-05 0.000344902077115115 -0.000107330834163277 0.000304862584284205 0.000388061641062908 -0.000247547189063448 -7.62713645158891e-05 0.000134806337217472 -3.54267600711721e-05 -0.000442733833920139 -0.000294762181245906
"20" -7.96623312501754e-05 0.000485844881733443 0.000177481627745416 -0.000160709158167118 0.00133933337482173 1.20956299487878e-06 0.000365909480543283 -7.35941816070715e-05 0.000293264348610372 0.000387868107155285 -0.000251809832236708 -6.05531940198154e-05 0.00013173529229893 -4.45246772259292e-05 -0.000476781744663783 -0.000282881365989213
"21" -8.02549842047332e-05 0.000538449152632392 0.000198026963890696 -7.78490460488884e-05 0.00143451965988853 2.10205231100295e-05 0.000386512814749987 -3.80249846597399e-05 0.000282543813367837 0.000387186307747246 -0.000256412171119126 -4.47939182258371e-05 0.000128891394802512 -5.07285043252434e-05 -0.000513139718656668 -0.000272064460896315
"22" -7.97986738134928e-05 0.000591110419255264 0.000219328724646046 6.39635993040243e-06 0.00153153173368849 4.08672529745317e-05 0.000406581078131769 -9.10175678573877e-07 0.000272690255277618 0.000385969991199797 -0.000261332107355594 -2.9101758021616e-05 0.000126287166167267 -5.4084979085154e-05 -0.000551490926663998 -0.000262356521769316
"23" -7.83492843337369e-05 0.000643426531772404 0.000241247499195595 9.1447416920447e-05 0.00162965803493586 6.06136916632694e-05 0.000425985541814044 3.74508283115056e-05 0.000263692562787466 0.000384180912597933 -0.000266538561662183 -1.35808776601408e-05 0.000123926451489944 -5.46577897068251e-05 -0.00059149441970126 -0.000253785518612249
"24" -7.59641289497167e-05 0.000695001493408242 0.000263643244203643 0.000176711105199617 0.00172816738419241 8.01227383306302e-05 0.000444605810468212 7.67484335554297e-05 0.000255524448113081 0.000381789317592022 -0.00027199305162446 1.66992484973152e-06 0.000121824300962042 -5.25587499724738e-05 -0.000632780767910912 -0.000246366951566371
"25" -7.27087864749961e-05 0.000745444013662002 0.000286361441061751 0.000261603380876283 0.00182630517385788 9.92631970402674e-05 0.000462326323459438 0.000116666687645602 0.000248157187873937 0.000378771765511026 -0.000277651047367149 1.65548791844374e-05 0.000119989162129553 -4.79115490167984e-05 -0.000674961195672672 -0.000240099830430409
"26" -6.86454062887593e-05 0.000794373761221324 0.00030924998060245 0.000345536285621717 0.00192330785077018 0.000117910713703479 0.000479038012066601 0.000156878963507003 0.000241557115567966 0.00037511721771099 -0.000283464411318796 3.09907784846656e-05 0.000118432203632608 -4.08705104751909e-05 -0.000717631700326336 -0.000234969379090021
"27" -6.38434294546065e-05 0.000841426868297891 0.000332152826307695 0.000427940809631728 0.00201839700184644 0.000135947785233553 0.000494642372541564 0.000197063033328107 0.000235685582494868 0.000370820855442163 -0.000289377075326962 4.48961528187744e-05 0.000117167894497165 -3.16061870115828e-05 -0.000760374119872319 -0.000230940788640697
"28" -5.8368324948051e-05 0.000886253220265359 0.00035490883970703 0.000508258444702955 0.00211081408624127 0.000153256835175216 0.000509050012499743 0.000236893676838583 0.000230500750302432 0.000365887793715118 -0.000295333007431635 5.81972148951958e-05 0.000116203222041822 -2.03174674891655e-05 -0.000802770489217772 -0.000227974207722982
"29" -5.22895719900859e-05 0.000928529538970526 0.000377360806164718 0.000585964473116484 0.00219980038405748 0.000169738109054042 0.000522179883032992 0.000276051279267527 0.000225953608862928 0.000360335276547544 -0.000301269187357359 7.08341049492991e-05 0.000115553679235406 -7.20927487497064e-06 -0.000844401147126224 -0.000226011424429906
"30" -4.56793009903468e-05 0.000967949941013527 0.000399349398680208 0.000660550334158003 0.00228462632334507 0.000185294103732987 0.00053396375932002 0.000314229641480138 0.000222000643902255 0.000354184118948144 -0.000307126143088362 8.27504137321439e-05 0.000115230220382783 7.49281730213776e-06 -0.000884853865204636 -0.000224987937738231
"31" -3.86076960335799e-05 0.00100424131013506 0.00042072225271673 0.000731556671524072 0.00236459172481225 0.000199839993827279 0.000544352276724681 0.000351128159635218 0.000218590236354134 0.000347467999480916 -0.000312841768619494 9.38992126145579e-05 0.000115242600637083 2.35584272262781e-05 -0.000923726982554253 -0.000224826603845115
"32" -3.11538495553744e-05 0.00103716314850923 0.000441329480790009 0.000798557889523781 0.00243904155586803 0.000213301873755655 0.000553293657632911 0.000386468062408384 0.000215671230245921 0.000340228521980264 -0.00031835323026846 0.000104246546228506 0.000115599108168889 4.07480863917588e-05 -0.000960635922311888 -0.000225439979437764
"33" -2.33864314155835e-05 0.00106650376926017 0.000461029254159885 0.000861176778625583 0.00250736522230795 0.000225612276661109 0.000560763205038811 0.000419982128746988 0.000213196069151146 0.00033251163369725 -0.000323606588501199 0.000113761617833107 0.000116308590274285 5.88157534930498e-05 -0.000995216862056875 -0.000226740732307503
"34" -1.53902080050502e-05 0.00109208935868724 0.000479684099769496 0.000919088759883512 0.00256901115184602 0.000236719621151393 0.000566746759856996 0.000451432545456588 0.000211111295226572 0.000324372782565883 -0.0003285449820658 0.000122429047943675 0.000117375101058693 7.7518890736646e-05 -0.00102713373297845 -0.000228631233750217
"35" -7.23332921953097e-06 0.00111378404499886 0.000497172036313031 0.000972019291256045 0.00262349571420781 0.00024657969019123 0.000571235638823813 0.000480605330461251 0.000209368173944786 0.00031587477559506 -0.000333117266785575 0.00013023832968474 0.000118804195288153 9.66163597193411e-05 -0.00105607539267668 -0.000231011051465257
"36" 9.95789441781347e-07 0.00113149004455192 0.000513374644713649 0.00101975558771692 0.00267040045966708 0.000255162240863488 0.00057424575446542 0.000507305693479785 0.000207919957056876 0.000307084528631168 -0.000337281933539279 0.000137190552282219 0.000120593767176558 0.000115866638145875 -0.00108176374353964 -0.000233782525568129
"37" 9.22196961029725e-06 0.00114514657443903 0.00052818899114652 0.00106214359468057 0.00270939057408243 0.000262445863302697 0.000575802412903541 0.000531377785490986 0.000206719112858896 0.000298074375922472 -0.000340999752245409 0.00014329073869465 0.000122740365550415 0.000135039036844472 -0.00110396485485409 -0.000236838103882715
"38" 1.73637612788124e-05 0.0011547424154364 0.000541523818480986 0.00109909052718136 0.00274021165730832 0.000268422538137673 0.000575942905098991 0.00055269121929477 0.000205721496186889 0.00028892214953505 -0.000344239002489459 0.000148559679609764 0.000125242839180716 0.000153917586108513 -0.00112246634713706 -0.000240079816705896
"39" 2.53436868681293e-05 0.00116029564223251 0.000553301783810347 0.00113056621832397 0.00276269171669889 0.000273094659177659 0.000574718109924769 0.000571153307056851 0.000204884830103655 0.000279706556608587 -0.000346976254374805 0.000153018285876542 0.00012808783402049 0.000172288257596345 -0.0011371107675335 -0.00024340706454339
"40" 3.30839122765788e-05 0.00116186954212391 0.000563462939762714 0.00115659809264948 0.00277674865625138 0.000276471565386702 0.000572188886859861 0.000586695165139252 0.000204173348369297 0.00027051032581852 -0.000349195808289496 0.000156697704309486 0.000131265636897269 0.000189959507539961 -0.00114776912316016 -0.000246723304760352
"41" 4.0503535703908e-05 0.00115956170739062 0.000571958196254761 0.00117727135161051 0.00278238732859927 0.000278580640673496 0.000568431958950482 0.000599292525891931 0.000203552348661419 0.000261417383929848 -0.00035089014675703 0.00015963830866328 0.000134763571421118 0.000206753467578447 -0.00115436147736951 -0.000249937584853992
"42" 4.75325125006043e-05 0.00115351436814346 0.000578755058480682 0.00119273872346837 0.00277970227641022 0.000279452453894253 0.000563533785166743 0.000608947391800354 0.000202991054847474 0.00025251190172459 -0.000352057301488634 0.000161882016343128 0.000138562605056371 0.000222511548235779 -0.0011568459073351 -0.000252960415871057
"43" 5.40950088258676e-05 0.00114389553237113 0.000583839178537122 0.00120319524033573 0.00276887645047302 0.000279128568028694 0.000557583433711562 0.000615692283317505 0.00020246460879155 0.00024387710448483 -0.000352704942583126 0.000163479032736367 0.000142643359600218 0.000237091054970877 -0.00115522030142563 -0.00025570968455307
"44" 6.01225812966986e-05 0.00113090989644326 0.000587209525067386 0.00120888792531179 0.00275016489182587 0.000277664595449892 0.000550687459093622 0.000619597232325095 0.000201951944527865 0.000235599094011328 -0.000352842407794899 0.00016448495546568 0.000146980823809467 0.00025037423648626 -0.00114952657792277 -0.000258108753054209
"45" 6.55552130166084e-05 0.00111479323922276 0.000588885093764612 0.00121011412875837 0.00272391181446318 0.000275120652594158 0.000542948369849109 0.000620758630362302 0.000201438858620944 0.000227756010490752 -0.000352492130091259 0.000164955437794056 0.000151556714555015 0.000262261696049947 -0.00113984445243822 -0.000260089277611398
"46" 7.03315882970699e-05 0.0010957998030374 0.000588895744373703 0.00120720220391075 0.00269053184797198 0.000271563193248238 0.000534484290529642 0.000619302004188224 0.000200915963970377 0.000220428616096296 -0.000351679577376901 0.000164954252458239 0.000156342671122238 0.000272675932195026 -0.00112628608980891 -0.00026158639821464
"47" 7.43980025728989e-05 0.00107421232411052 0.000587291665431845 0.00120052132291321 0.00265050473231015 0.000267068853063708 0.000525411464014021 0.000615377250318811 0.000200378354049678 0.000213687992152892 -0.000350431540010341 0.000164543053365366 0.000161312144725023 0.000281563094695582 -0.00110901045402161 -0.000262544831891971
"48" 7.77094572520135e-05 0.00105033063010801 0.000584133715530378 0.00119046360826916 0.00260436772211723 0.000261722167241435 0.000515845883901535 0.000609156543829329 0.000199826499313094 0.000207604842290573 -0.000348784345157582 0.000163791442684985 0.000166436337451499 0.000288891557370372 -0.00108820509577749 -0.000262918579294979
"49" 8.02266926842167e-05 0.00102446628632094 0.000579500135649676 0.00117744734734513 0.00255271508235579 0.000255611830779215 0.000505907921790909 0.000600832652751551 0.000199268614165046 0.000202247255800107 -0.000346774790377919 0.000162762855968145 0.000171690991937388 0.000294649712531929 -0.00106408706217566 -0.000262664553330943
"50" 8.19209618015472e-05 0.000996946386156183 0.000573481771437942 0.00116190589974696 0.002496178020901 0.000248828362303283 0.00049571899042365 0.000590616403165332 0.000198717139282222 0.000197673111965727 -0.000344441717346783 0.000161526222421316 0.00017704582677568 0.000298844508676198 -0.00103690368853004 -0.000261751965466223
"51" 8.27661813997608e-05 0.00096810211389821 0.00056618112919902 0.00114427680224705 0.00243543291956794 0.000241472826892416 0.000485389615023429 0.000578732635441378 0.000198189936367854 0.000193935256251813 -0.000341830450788752 0.000160146793421009 0.000182474315762962 0.000301512470397099 -0.00100693008319379 -0.000260156661104787
"52" 8.27506739960499e-05 0.000938264544073113 0.000557705473631579 0.00112500948976652 0.00237117364510029 0.000233638333131456 0.000475036854796974 0.000565414580642071 0.000197709188279954 0.000191079236258187 -0.000338980792547118 0.000158691280703566 0.000187949067738108 0.000302697829081726 -0.000974471118807944 -0.000257860970118782
"53" 8.1863978944069e-05 0.000907765348617805 0.000548181783970424 0.00110454303410638 0.00230411039570395 0.000225432394318152 0.000464768144133652 0.000550905078952168 0.0001973014616551 0.000189146730595619 -0.000335935035333047 0.000157221109490326 0.000193444663739408 0.00030246862275139 -0.00093983961216834 -0.000254855275457553
"54" 8.01116449719369e-05 0.000876933612219422 0.000537735436710922 0.00108331380409577 0.00223496662883981 0.000216953967939462 0.000454683976584687 0.000535452821815179 0.000196999320440446 0.000188170540581023 -0.000332741519736056 0.000155796853052335 0.000198934208285238 0.000300909268336772 -0.000903373170574651 -0.000251141176106421
"55" 7.75007967664585e-05 0.000846084904393717 0.000526504098469573 0.00106174503796917 0.00216446419436746 0.000208306167919947 0.000444879836410426 0.000519301262354302 0.000196836345281985 0.000188171812324187 -0.000329437744120194 0.000154474620545473 0.000204394549687416 0.000298120241774478 -0.000865427981650491 -0.00024672423180127
"56" 7.40564747593735e-05 0.000815523755682221 0.000514625159856296 0.00104024041657111 0.00209331646468999 0.000199584875143118 0.000435440081227707 0.000502698471100814 0.000196847401877052 0.000189169888240262 -0.000326066946547645 0.000153306560982925 0.000209801545122998 0.000294206196524413 -0.000826365097812081 -0.000241623149713777
"57" 6.97986412637097e-05 0.000785540464780992 0.000502238649773967 0.0010191804588361 0.00202222943643597 0.000190886739910781 0.000426445564159075 0.00048588740690063 0.000197074324868401 0.000191172822449168 -0.000322670752480886 0.00015234185913716 0.000215131531824306 0.00028929355722872 -0.000786554868534513 -0.000235859040417476
"58" 6.47632806279571e-05 0.000756405489222985 0.000489491268387902 0.000998929660511262 0.00195186864661888 0.000182307006852916 0.000417962324444791 0.000469100233894081 0.000197556299678443 0.000194181341542554 -0.000319282119658619 0.000151622361733344 0.000220364393399913 0.000283509649127702 -0.000746368546673583 -0.000229463077310663
"59" 5.89939435674979e-05 0.000728370646725138 0.000476520529687223 0.000979810976086543 0.00188288669256711 0.000173929249748454 0.000410051784812624 0.000452560076685437 0.000198331281216176 0.000198187717101614 -0.000315940798460688 0.000151184816372695 0.000225478488956097 0.000276990208281682 -0.000706183367053657 -0.000222473085421467
"60" 5.25338561616324e-05 0.00070166565427501 0.000463465674682007 0.000962126639332233 0.00181589397173099 0.000165835677550237 0.000402760126209195 0.00043648085517461 0.000199440474151936 0.000203178693945812 -0.00031267765037138 0.000151061013664172 0.000230454217514647 0.000269875890499134 -0.000666366886110849 -0.000214933313242572
"61" 4.54327970783293e-05 0.000676486728784088 0.000450465839678111 0.000946137518250878 0.00175145866782106 0.000158100534401881 0.000396125195248905 0.000421058404152578 0.000200920953032478 0.000209131050860717 -0.000309521340001291 0.000151275858019771 0.000235269879978096 0.000262311253386151 -0.000627285656363549 -0.000206897293941382
"62" 3.77539329021811e-05 0.000653017909988838 0.000437642891182145 0.000932078699769848 0.00169011555907132 0.000150789209770384 0.000390178270645807 0.000406477080395908 0.000202806541907311 0.00021601331766925 -0.000306500676755357 0.000151848453573024 0.000239907261545741 0.000254439924384945 -0.000589288314015374 -0.000198419315303813
"63" 2.95524417435379e-05 0.000631402676701012 0.000425124521252056 0.000920138512279701 0.00163233157664139 0.000143960184515666 0.00038493408240065 0.000392899234703308 0.000205131953938234 0.000223794045202888 -0.000303637035274893 0.000152790920748898 0.000244347041142578 0.000246398098423108 -0.000552715028687904 -0.000189565229036586
"64" 2.08936643964868e-05 0.000611758673023731 0.000413023294692212 0.000910473739575566 0.00157853469519172 0.000137662409194043 0.000380404349314534 0.000380473399297491 0.000207923552696282 0.000232423662293587 -0.000300951716763869 0.000154107651861054 0.000248571144273146 0.000238331160160252 -0.000517889489697483 -0.000180399617414987
"65" 1.18447739217391e-05 0.000594184508421299 0.00040144169516417 0.000903201810838151 0.00152909650474679 0.000131936566808048 0.000376584952539783 0.000369324240067122 0.000211206581003101 0.000241857535864511 -0.000298457724456838 0.000155802082160318 0.000252561183649921 0.000230368370754357 -0.000485103557985815 -0.000170995974123243
"66" 2.4699122916908e-06 0.00057874016725759 0.00039047462140324 0.000898408050742119 0.00148433016185604 0.000126810736590554 0.000373465445661411 0.00035955590445967 0.000214999195227801 0.000252039067157968 -0.000296170881854941 0.000157866422841585 0.000256296931568083 0.000222631786710376 -0.000454632059412487 -0.000161422549113344
"67" -7.16208894685966e-06 0.000565457627448703 0.000380203205149456 0.000896131140985488 0.00144449153489396 0.000122305088056393 0.000371027569088232 0.000351255372151026 0.000219313742934381 0.00026290878710028 -0.000294100477843182 0.0001602884181837 0.000259755725865125 0.000215244266774077 -0.000426723023770669 -0.000151761923944712
"68" -1.6981987275795e-05 0.000554343527662587 0.000370697192536243 0.000896375274254465 0.00140976743248194 0.00011843566062448 0.000369241866649259 0.000344483364353977 0.000224158762579604 0.000274402130480453 -0.000292250158082573 0.000163051873089973 0.000262924176360152 0.000208313201644115 -0.000401591497980988 -0.000142086689889053
"69" -2.69233864720663e-05 0.00054537734849552 0.000362016207798566 0.000899116549377187 0.00138030304613595 0.000115199353607775 0.000368076245637676 0.00033928427679145 0.00022953283861192 0.000286450959946945 -0.000290621206722748 0.000166133063321377 0.000265777067813841 0.00020192938398357 -0.000379418776922196 -0.000132474408640026
"70" -3.69238109596777e-05 0.000538508817610621 0.000354204881635437 0.00090429104968838 0.00135616601929819 0.000112590352089621 0.000367488528236991 0.000335674168534301 0.000235429264429736 0.000298983801710494 -0.000289211039060725 0.000169507548679656 0.000268299099485082 0.000196182872778685 -0.000360352157530199 -0.000123003876950473
"71" -4.69189127973875e-05 0.000533664584874336 0.000347291574390551 0.000911799758938944 0.00133737752350588 0.000110593868469231 0.000367429670183614 0.000333656211543128 0.000241836999775901 0.000311924960269624 -0.000288013475538344 0.000173144051448599 0.0002704665926032 0.00019114538475406 -0.000344506482882427 -0.000113746342217386
"72" -5.68479102937604e-05 0.000530751059081676 0.000341295872424763 0.000921517359140907 0.00132389443353069 0.00010918388899442 0.000367850036436424 0.00033320886470907 0.000248734148156407 0.000325198612297095 -0.000287018164520808 0.000177008180831741 0.000272260729169898 0.000186875672985431 -0.000331948495436257 -0.000104772804842302
"73" -6.66555035172421e-05 0.000529647285700067 0.000336221511520546 0.000933291707629649 0.0013156236224766 0.000108333193995397 0.000368689255974631 0.00033428835316949 0.000256093042174262 0.000338729150177473 -0.000286211362327203 0.000181061956860506 0.000273658567774591 0.000183419973567601 -0.000322717826905292 -9.6153705370057e-05
"74" -7.62847954139815e-05 0.000530216670882104 0.000332062333741032 0.000946939902551027 0.0013124113428906 0.000108000137134217 0.000369891211205377 0.000336836932922184 0.000263879521560352 0.000352435857637535 -0.000285576997822255 0.000185268827552592 0.000274643316718346 0.000180812884929077 -0.000316811031889948 -8.79509685967935e-05
"75" -8.5691831397627e-05 0.000532307251960985 0.000328795264749069 0.00096225956269827 0.00131405413235118 0.000108141651584804 0.000371387175607165 0.000340777609859662 0.000272054779650803 0.000366238486228461 -0.000285094048502201 0.000189585396713229 0.000275194570739131 0.000179072273662691 -0.000314186625767861 -8.02180473587431e-05
"76" -9.48365072091391e-05 0.000535744631464699 0.000326388168719955 0.00097902423593488 0.00132030297488356 0.000108710108201281 0.000373118910631837 0.000346014929639502 0.000280571390757443 0.000380060403374431 -0.000284740795092968 0.000193971975754543 0.000275290966798457 0.000178205296873652 -0.000314767700459938 -7.30110227227828e-05
"77" -0.0001036671580211 0.000540352957468317 0.000324795220780065 0.000996995778783077 0.00133086579065303 0.00010965044064969 0.000375017511025275 0.000352442509333908 0.000289375169336838 0.000393823166584206 -0.000284485974191647 0.000198382945422446 0.0002749115343462 0.000178205777904942 -0.000318437124855185 -6.63702010901756e-05
"78" -0.000112161473753804 0.00054594031905273 0.000323963513758009 0.00101591753172684 0.00134540236981197 0.000110912744661649 0.00037701569181609 0.000359937241568799 0.000298410215233774 0.000407452735592779 -0.000284305521826657 0.00020277853647777 0.00027404320910666 0.000179055594390664 -0.000325050923276833 -6.03311612883177e-05
"79" -0.000120283909290943 0.000552305435970869 0.000323823850844547 0.00103552120245801 0.00136353295713483 0.000112433305789564 0.000379054260716931 0.000368363383874539 0.000307612931041515 0.000420870535308678 -0.00028416940602107 0.000207116030862998 0.000272665892614908 0.000180726015952174 -0.000334429791950629 -5.49239223730833e-05
"80" -0.000128015771618797 0.000559252208955499 0.000324303663466619 0.00105553426454929 0.00138485724574452 0.0001141579212309 0.0003810620206895 0.000377579632360756 0.000316915456920688 0.000434008459448028 -0.000284042501840969 0.000211356062477307 0.0002707629535646 0.000183176213735581 -0.000346360903422658 -5.01635391449195e-05
"81" -0.000135336471854812 0.000566572410259366 0.000325321103916772 0.00107567825321915 0.00140893508094793 0.000116027505867718 0.000382980862793386 0.00038743524162421 0.000326248837420929 0.000446795923348283 -0.000283893533437304 0.000215458043646186 0.000268321286163122 0.000186355825129489 -0.000360614860658859 -4.60624279707109e-05
"82" -0.000142230627731664 0.000574068751121402 0.000326785821930198 0.00109567473921218 0.00143530479183379 0.000117985267779105 0.000384752226915807 0.000397772456889891 0.000335540890463889 0.000459167648473705 -0.000283683331308405 0.000219383772695388 0.000265330977562623 0.000190210081566777 -0.000376932748775181 -4.2622355055022e-05
"83" -0.000148696258507622 0.000581538339212646 0.000328604282607456 0.00111524753225374 0.0014634907900551 0.000119973843953532 0.000386322531786195 0.000408427148615394 0.000344711982431581 0.000471062649339362 -0.000283383943852597 0.000223100706260586 0.000261779162581308 0.000194669752943544 -0.000395039435540515 -3.98351024486951e-05
"84" -0.000154726984925746 0.000588798569515423 0.000330677137317867 0.00113412916721228 0.00149300064003127 0.000121943073199361 0.000387632715332565 0.000419237596774374 0.000353691249270908 0.00048242029058935 -0.000282959253908606 0.000226574529236779 0.000257660727806937 0.000199662637420045 -0.000414641976260146 -3.76833451624108e-05
"85" -0.00016032906754689 0.000595658661002535 0.00033290276388465 0.00115205796718393 0.00152333103200161 0.00012384302265116 0.000388642985894915 0.000430038559986633 0.000362396224707737 0.000493191025748744 -0.000282374277845281 0.00022977668627317 0.00025296703199568 0.000205116731888879 -0.000435437462046938 -3.61415317981484e-05
"86" -0.000165505554847558 0.000601956037138808 0.000335175783184055 0.00116879070305384 0.00155397463745879 0.000125628776170906 0.000389309343659456 0.000440669958151642 0.000370755618086395 0.000503321929438605 -0.0002815983422757 0.00023267804008786 0.000247700386943828 0.000210948528213176 -0.000457115009099823 -3.51787347228913e-05
"87" -0.000170273523807436 0.000607529068455334 0.000337392567523555 0.00118409294828502 0.00158443920506678 0.000127259300150453 0.000389593235721628 0.000450973225449899 0.000378691260725781 0.000512770700268534 -0.000280599502446372 0.000235257241561323 0.00024185839206548 0.000217077255958574 -0.000479355690249557 -3.47505919021319e-05
"88" -0.000174646515197637 0.000612236239351851 0.000339452744353516 0.00119775478161988 0.00161422166069892 0.000128703688386428 0.000389459184420904 0.000460792845390943 0.000386131332000324 0.0005214968778775 -0.00027935260605287 0.000237494332473386 0.000235447441814268 0.000223415181466077 -0.000501849060677485 -3.48118892209284e-05
"89" -0.000178648671700074 0.000615952168161747 0.000341254367182965 0.00120958496956082 0.00164284957161846 0.00012993026518029 0.000388886784476688 0.000469987686153184 0.000393004731812254 0.00052946733068012 -0.000277833052040942 0.000239368740609001 0.000228476092325325 0.000229885206994781 -0.000524276188659941 -3.53058687528691e-05
"90" -0.00018230089690631 0.000618575369018129 0.000342700831014156 0.00121941836661616 0.00166986332535336 0.000130917607042792 0.000387850563608336 0.000478419592094054 0.00039924536211998 0.000536651182823885 -0.000276017898507878 0.000240866809155103 0.000220957965110769 0.000236402568270596 -0.000546330703239096 -3.61733955289723e-05
"91" -0.000185629536500083 0.000620013528387177 0.000343701854515015 0.00122711229752529 0.00169482269879031 0.00013165097189182 0.000386340529685121 0.000485964422944434 0.000404793683713241 0.000543026967617006 -0.00027388867154496 0.000241977537660435 0.000212905873334037 0.000242884640395919 -0.000567717216514865 -3.73497136684877e-05
"92" -0.000188666137810151 0.000620200545072031 0.0003441696637577 0.0012325501116621 0.0017173210513003 0.000132120815497233 0.000384347273066467 0.000492507607601242 0.00040958955056654 0.000548571725007335 -0.000271430089311391 0.000242692588854633 0.000204343999675282 0.000249259268370907 -0.000588144191941689 -3.8759772893503e-05
"93" -0.00019144411771892 0.00061909254889927 0.000344031252166449 0.00123565165497298 0.0017369837558987 0.000132323456791991 0.000381865340610046 0.000497948834399437 0.000413584617129569 0.000553275769380509 -0.000268636613628986 0.000243004976754806 0.000195294550001738 0.000255452201085593 -0.000607348728856856 -4.03366717883981e-05
"94" -0.000193999925536717 0.000616659172053773 0.000343213102172172 0.00123635608254263 0.00175347211309422 0.000132262922555006 0.000378897786674504 0.000502201400328322 0.0004167342169535 0.000557129808593886 -0.000265500817480756 0.000242911704640429 0.000185789778823976 0.000261399119355542 -0.000625072269647074 -4.20034996492687e-05
"95" -0.000196365943017737 0.000612899412459737 0.000341659616094966 0.00123463561235912 0.00176648858321272 0.0001319482587023 0.000375457407747806 0.000505194212328365 0.000419001277721996 0.000560130592506244 -0.000262020408236141 0.000242409083209589 0.000175861578494212 0.000267039250236939 -0.000641087119054775 -4.3682747654807e-05
"96" -0.000198579071487283 0.000607829367053348 0.000339318544315717 0.00123049687243696 0.00177578232060842 0.000131395161334088 0.000371554905711463 0.00050687146000929 0.00042035509952581 0.000562279011555329 -0.000258205818177062 0.000241500643315966 0.000165550952562304 0.000272315213088275 -0.000655174451098926 -4.52975211880034e-05
"97" -0.000200680568659544 0.000601483070228683 0.000336156739572876 0.00122396872900262 0.00178114340588872 0.000130624103231891 0.000367210113111654 0.000507198270818139 0.000420773533227719 0.000563582914924249 -0.000254062662789551 0.000240186845890447 0.000154898272454705 0.000277183088270597 -0.000667152796909656 -4.67693886969565e-05
"98" -0.000202702788584451 0.000593915144966499 0.00033214298357989 0.00121511356046173 0.00178242038211229 0.000129659644689239 0.000362449603293791 0.000506146476573142 0.000420243128807598 0.000564050601909573 -0.000249605052703363 0.00023847255585497 0.00014395461122135 0.000281602030369378 -0.000676855400227067 -4.80263360459611e-05
"99" -0.000204687756221746 0.000585196800711189 0.000327266663266687 0.00120401739514698 0.00177950285450485 0.000128534890201686 0.000357296475753359 0.000503708713351145 0.00041876035599423 0.000563702779487001 -0.000244854994908938 0.000236362860058524 0.000132770163519691 0.00028554312970769 -0.000684144319701335 -4.89926589073225e-05
"100" -0.000206662858307254 0.000575421231219771 0.000321526612048542 0.00119079847385523 0.00177233585942937 0.000127280484441615 0.000351789258547154 0.000499898079100716 0.000416325372117205 0.000562556652704409 -0.000239834929333404 0.00023386379774461 0.000121401137760998 0.000288981216996808 -0.000688904924291357 -4.95965464983772e-05
"101" -0.000208672857498792 0.000564687670571634 0.000314932677494775 0.00117559095416018 0.00176091604646602 0.000125932407622673 0.000345959505837431 0.000494737193526483 0.000412950839016547 0.000560637982166813 -0.000234574186139194 0.000230984952670669 0.000109910740253569 0.000291901021757588 -0.000691056070004488 -4.97765176859036e-05
"102" -0.000210739799256544 0.000553118171516076 0.00030750770690037 0.00115856180102576 0.00174529047231484 0.000124530056390225 0.000339846898242679 0.000488267245003656 0.000408655388306583 0.000557972177835086 -0.000229106492132076 0.000227734048502539 9.83613416537984e-05 0.000294297012223641 -0.000690540555889025 -4.94657187883095e-05
"103" -0.000212895585185149 0.00054084153878579 0.000299288560418323 0.001139881323116 0.00172555758164853 0.000123117456725418 0.000333495488574326 0.000480545019917269 0.000403467058418493 0.000554594338845705 -0.000223469606214576 0.000224117992559082 8.68240778259366e-05 0.000296167903710274 -0.000687323984423795 -4.8609547324208e-05
"104" -0.000215170328455146 0.000527994520404324 0.000290323062973265 0.00111975825930351 0.00170186160103227 0.000121726923207551 0.000326944213712501 0.000471636951243442 0.000397423620361806 0.000550538101931268 -0.000217703015544801 0.000220148981131448 7.53634011709475e-05 0.000297523156430331 -0.000681404847797538 -4.71593839767997e-05
"105" -0.000217583289872045 0.000514726027993621 0.000280670158628565 0.00109839840390857 0.00167439582018276 0.000120405529483349 0.000320244276726764 0.000461625450893698 0.000390566662872386 0.00054583928433038 -0.000211853020798759 0.000215834802645568 6.40571838803842e-05 0.000298376455873892 -0.00067280663793414 -4.50714819918484e-05
"106" -0.000220155401415595 0.000501188961470185 0.000270398992738289 0.0010760276190515 0.0016434014206737 0.000119187500760533 0.000313436769409173 0.00045060257598636 0.000382946326983813 0.000540543857690762 -0.000205966718548833 0.000211186878707645 5.29797236537427e-05 0.000298749275020432 -0.00066157909185482 -4.23079970140749e-05
"107" -0.000222902026357767 0.000487539280159392 0.000259592514568131 0.00105288215468762 0.00160914417987775 0.000118112571469433 0.000306571168083671 0.000438672593567229 0.000374621984937745 0.000534691211570326 -0.000200095823378917 0.000206213194194575 4.22094714155779e-05 0.000298670442153376 -0.000647792837528342 -3.88441020467711e-05
"108" -0.000225829411175695 0.000473937348177525 0.000248335080200779 0.00102919807724143 0.0015719492583262 0.000117213383650933 0.000299694018003749 0.000425944977417067 0.000365652566960078 0.000528328857214243 -0.000194291057129075 0.000200925943535642 3.18209734414393e-05 0.000298172491140839 -0.00063155435625716 -3.46554065264967e-05
"109" -0.000228950268646436 0.000460539512545704 0.000236724125544645 0.00100522010165333 0.00153215712410295 0.000116520076075459 0.000292851729755647 0.000412540869993827 0.00035610991336702 0.000521500947361661 -0.000188607226657362 0.000195336283120088 2.18982548547281e-05 0.000297293677364854 -0.000612981036920414 -2.97319670739984e-05
"110" -0.000232267238225722 0.000447503223677511 0.000224862942003239 0.000981189374955009 0.00149014215849604 0.000116060640219576 0.000286085350115015 0.000398586983945094 0.000346065015078633 0.000514259584797691 -0.000183100356286779 0.000189451627913877 1.25119870998191e-05 0.000296077869436663 -0.000592217503997306 -2.40711223330219e-05
"111" -0.000235772979292946 0.000434979759008879 0.000212862481394941 0.000957347908633624 0.00144630823164892 0.000115853760577494 0.000279441090902873 0.000384212556644219 0.000335596041497069 0.00050665061540638 -0.00017782263126102 0.000183285559379699 3.73983678711157e-06 0.000294570636108476 -0.000569428438908059 -1.76777409551474e-05
"112" -0.00023947003668919 0.000423112624963894 0.0002008349083416 0.000933929789275709 0.00140106707925743 0.000115914962056138 0.000272961081028559 0.000369549519158236 0.000324779827330903 0.000498728919729824 -0.000172835025933975 0.000176846108310393 -4.34061765095157e-06 0.000292820814201159 -0.000544800517880056 -1.05710722669293e-05
"113" -0.000243337736024365 0.000412042933202347 0.000188894526721795 0.000911165537887758 0.0013548518131279 0.000116255226027051 0.000266685904493893 0.000354733470016798 0.000313702967495139 0.000490544442533986 -0.000168188581818599 0.000170145906051722 -1.16573099925436e-05 0.00029088038910325 -0.000518531419314292 -2.76833549327518e-06
"114" -0.000247370177039436 0.000401899407578231 0.000177159450803902 0.000889267116817915 0.00130810454740421 0.000116875463894495 0.000260647250354508 0.000339897987331184 0.000302444744112166 0.000482147728889659 -0.000163938863603563 0.00016319540472136 -1.8144693315536e-05 0.000288800598550652 -0.000490836488159149 5.69446008658583e-06
"115" -0.000251546349242345 0.0003927972873316 0.000165748424562564 0.000868442775734547 0.0012612677081323 0.00011777369945806 0.000254882750286657 0.000325178868328576 0.000291091791290309 0.000473589346042769 -0.000160138724185742 0.000156007429570861 -2.37372335428118e-05 0.000286636166410002 -0.000461946214364757 1.47744501883943e-05
"116" -0.000255846488798343 0.000384844645473662 0.000154780067263106 0.000848886811481487 0.00121478548954016 0.000118936566218711 0.000249419575696645 0.000310705979688495 0.000279726253268364 0.000464924929777019 -0.000156837808980489 0.00014859236900853 -2.83772489383626e-05 0.000284438681801578 -0.000432094895102311 2.44256131147921e-05
"117" -0.000260240262196505 0.000378134681090513 0.000144362508324193 0.000830767166489935 0.00116909656144074 0.000120344372503218 0.000244284769715727 0.000296604670914573 0.000268430936057455 0.000456198518593082 -0.00015408042356375 0.000140964915127316 -3.20100237955795e-05 0.000282264623989686 -0.000401535678324596 3.45871440565734e-05
"118" -0.000264711137653791 0.000372740608669937 0.000134608942013335 0.000814244653802186 0.00112462228712973 0.000121976459429716 0.000239502507098874 0.000282996453730404 0.000257289190109841 0.000447464538113021 -0.000151912599143303 0.000133138563415505 -3.45860093693189e-05 0.000280160468800793 -0.000370514919174924 4.51960969909446e-05
"119" -0.000269222285908697 0.000368728951478532 0.000125626701384535 0.000799453041518564 0.00108177957661233 0.000123795751660259 0.00023509196095667 0.000269996026561489 0.000246376057095433 0.000438769566454705 -0.000150372992487765 0.000125126091961566 -3.60686659939317e-05 0.000278179514127205 -0.000339291431345914 5.61774681804021e-05
"120" -0.000273748403326493 0.000366142648358931 0.00011750859189945 0.000786513783954535 0.00104095660792947 0.000125762863803195 0.000231064437310491 0.00025771283761033 0.000235768394725209 0.000430159390100211 -0.000149495190134691 0.000116946875437188 -3.64269218192922e-05 0.000276366946325522 -0.000308119462989769 6.74569149924112e-05
"121" -0.000278255444741449 0.000365015754597096 0.000110353478721732 0.000775520355193124 0.00100252066064721 0.000127836699744775 0.000227433566826821 0.000246242883031042 0.000225538466644813 0.000421680876664257 -0.000149308428914711 0.000108616222284281 -3.56317947442703e-05 0.00027477112957277 -0.000277253270410331 7.89510023103435e-05
"122" -0.000282712157398219 0.000365356434231125 0.000104236688009312 0.000766549806208217 0.000966819123169403 0.000129961095172361 0.000224204078440684 0.000235676298397136 0.000215749585335581 0.000413375819272226 -0.000149833629895195 0.000100152333073181 -3.36723859183076e-05 0.000273430133177826 -0.000246943448138603 9.05699410025642e-05
"123" -0.000287090330852357 0.000367161696165503 9.92341808666569e-05 0.000759653530286032 0.000934156124478944 0.000132082943568854 0.00022137706125119 0.000226091787346193 0.00020646417457647 0.000405285863085366 -0.000151089286656821 9.15766523483679e-05 -3.05394504859701e-05 0.000272383027442516 -0.000217427214470956 0.000102223475080562
"124" -0.0002913569341622 0.000370411946260089 9.54044459070982e-05 0.00075485878110276 0.000904812004847463 0.000134139276125328 0.000218949363645639 0.000217559158482099 0.00019773912562808 0.000397445900405533 -0.000153086905780681 8.29098356859375e-05 -2.62387600172902e-05 0.00027166620452539 -0.000188936308888462 0.000113817321749756
"125" -0.000295486081365243 0.000375066348131986 9.28044117103454e-05 0.000752180247211913 0.000879028685859949 0.000136065639437251 0.000216917301220024 0.000210134832277408 0.000189621046087983 0.000389893723006868 -0.000155830085031083 7.41765930490729e-05 -2.07827946373353e-05 0.000271307468435886 -0.000161691885631353 0.00012525608860897
"126" -0.000299447607179634 0.000381073703612392 9.14659375238741e-05 0.000751601614438558 0.000857002295022847 0.000137794288652203 0.000215269425047208 0.000203864292970972 0.000182153884839314 0.000382661460428382 -0.000159312662311592 6.54016986153182e-05 -1.41962296573218e-05 0.000271335993406157 -0.000135893911486306 0.000136442933139659
"127" -0.000303214877547575 0.000388363805687833 9.1419462178909e-05 0.00075308752753442 0.000838903063936659 0.000139258968756978 0.000213986564814198 0.000198781090503581 0.000175374340976252 0.000375777820308036 -0.000163525063241051 5.66125401888131e-05 -6.51293371297917e-06 0.000271772146841976 -0.000111726459239128 0.000147284159924409
"128" -0.000306769336360695 0.000396849541732612 9.2673699639545e-05 0.000756581234358692 0.000824846855176644 0.000140387244035761 0.000213057407976112 0.000194907093819477 0.000169307040236034 0.000369266475852641 -0.000168448838869467 4.7839304722123e-05 2.22726093302047e-06 0.000272632330131481 -8.93627284141152e-05 0.000157683591720602
"129" -0.000310089322948283 0.000406435418153437 9.52274835633177e-05 0.000762009707536747 0.000814909444793416 0.000141114761370238 0.000212455574852011 0.000192251919823055 0.000163976733735635 0.000363150492823062 -0.000174055914158121 3.91099302056875e-05 1.19654249567863e-05 0.000273934963165767 -6.89405934139096e-05 0.000167550789964326
"130" -0.00031316067159637 0.000417007523667075 9.90693499439974e-05 0.000769277682890625 0.000809125495454373 0.000141368918834982 0.000212156078479826 0.000190812239185409 0.000159395727731889 0.000357449516906856 -0.000180313826222426 3.04595303994962e-05 2.26376549992704e-05 0.000275687516539972 -5.05855191818886e-05 0.000176794928860789
"131" -0.000315972097112082 0.000428440894632955 0.000104169782270039 0.000778273248596968 0.000807476021953849 0.000141092485569894 0.000212131088863513 0.000190573082105087 0.000155569189371369 0.00035217285676437 -0.000187181263596836 2.19219264292549e-05 3.41725777500764e-05 0.000277894652798051 -3.44000536886573e-05 0.000185337534988872
"132" -0.000318510458615187 0.000440604783717693 0.000110483833749789 0.000788869255588094 0.000809905452507589 0.000140220382266011 0.000212350373097265 0.000191510679485079 0.00015249419593774 0.000347332612076113 -0.000194611421753726 1.35298880613189e-05 4.6486226421492e-05 0.000280560370168745 -2.04548951026951e-05 0.000193097122657326
"133" -0.000320776627333291 0.000453351843123293 0.000117958405265385 0.00080091981480081 0.000816306609436636 0.00013870277310351 0.000212775328740056 0.000193585562972299 0.000150162415699776 0.000342934717092195 -0.000202548390082444 5.32338917172275e-06 5.94841694107583e-05 0.000283683772399296 -8.80338957185289e-06 0.000200003166576284
"134" -0.000322774348581493 0.000466533927094714 0.000126517870202696 0.000814273317494892 0.000826531130748511 0.000136491116488381 0.000213374758104834 0.000196750488612653 0.000148555719381918 0.000338978769761411 -0.00021092936276155 -2.66002444554442e-06 7.30701577653429e-05 0.000287258347744509 5.3694721848034e-07 0.000205991503044738
"135" -0.000324500672221874 0.000479993060378391 0.00013608496534371 0.000828759781121828 0.00084038236858494 0.00013354207344529 0.000214108899467784 0.000200950267778346 0.000147651936150064 0.000335462600250331 -0.000219689108685189 -1.03844545212122e-05 8.71324210332879e-05 0.000291277902569634 7.5619286088674e-06 0.000211007627524106
"136" -0.000325971313985066 0.000493566393113255 0.000146557408671605 0.0008442061611912 0.000857626168343517 0.000129826796970294 0.000214931627685061 0.000206112965882457 0.000147418384086188 0.00033237587709922 -0.000228753390027706 -1.78085015444363e-05 0.00010155790488308 0.000295733649741309 1.22998605579874e-05 0.000215003969802945
"137" -0.000327195449896081 0.000507092255707742 0.00015783496144068 0.00086042307602665 0.000877975571292346 0.000125322180665834 0.000215809813422066 0.000212162223732303 0.000147817679924248 0.000329707244933544 -0.000238044095602715 -2.48928993639622e-05 0.000116226276402256 0.000300608574949272 1.48030718601552e-05 0.000217939726066235
"138" -0.000328189537391916 0.000520402681372627 0.000169796724178703 0.000877222056041333 0.000901111843831362 0.000120016173692401 0.000216690842656682 0.00021901636026841 0.000148805575030324 0.000327440803102082 -0.000247482202051511 -3.15998395133731e-05 0.00013101040538933 0.000305893784174713 1.51447812078943e-05 0.00021978783916836
"139" -0.000328977625199706 0.000533331132928576 0.000182313731234913 0.000894408826472199 0.000926672036076303 0.000113907897485319 0.000217537096085208 0.000226578452001769 0.000150330581899995 0.000325551422304369 -0.00025698120653221 -3.78905206677001e-05 0.000145781314744695 0.000311567342564982 1.34218232387577e-05 0.000220530355037247
"140" -0.000329583665912246 0.000545717819374561 0.000195251209461797 0.000911785445381496 0.000954268243256232 0.000107005755017418 0.000218301313347915 0.000234755994839027 0.000152338234078736 0.000324015659424078 -0.000266454484512213 -4.37273991287626e-05 0.000160404350940002 0.000317614656018335 9.75590448999605e-06 0.000220155527151171
"141" -0.000330035362856407 0.000557401243931006 0.000208461968486653 0.000929155450988575 0.000983459754849857 9.93291766632394e-05 0.000218939970000763 0.000243439961692872 0.000154768795590067 0.000322801143128893 -0.00027581205452247 -4.90762206790797e-05 0.000174746289442799 0.000324014008370442 4.27832400998875e-06 0.000218665955868342
"142" -0.000330360224626678 0.000568228865957987 0.000221799166145774 0.000946327040903339 0.00101379104183887 9.09135904032518e-05 0.000219405254732641 0.000252519925292878 0.000157556121615235 0.000321873821608419 -0.000284961703770754 -5.39012665982613e-05 0.000188671995771093 0.000330746030837645 -2.84898726917722e-06 0.00021607231113234
"143" -0.000330591813004773 0.000578054008673059 0.000235105446657989 0.000963108363252411 0.00104477761356309 8.18034810084112e-05 0.000219654539444669 0.000261886745731888 0.000160631316005044 0.000321193630172282 -0.00029381529521715 -5.81693835868872e-05 0.000202048795844485 0.000337787303332386 -1.14628820740214e-05 0.000212399425112068
"144" -0.000330766111658014 0.000586734473780881 0.000248222136267335 0.000979311524329384 0.0010759046475897 7.20533635171089e-05 0.000219643383221529 0.000271421498899817 0.0001639232616118 0.000320718873712006 -0.000302286366009761 -6.18538588392806e-05 0.000214742210320257 0.000345119113115104 -2.13765414331235e-05 0.000207673829977153
"145" -0.000330914232304041 0.000594143236923052 0.000260990865504971 0.000994761566075123 0.00110664293278025 6.1731436697366e-05 0.000219328676037499 0.00028100765192476 0.000167357454409108 0.000320403278748026 -0.000310279464764149 -6.49283475235234e-05 0.000226624923446104 0.000352715854342106 -3.23952053292394e-05 0.000201938613274899
"146" -0.000331075323055333 0.000600159868262529 0.000273252667773645 0.00100928421518766 0.00113645129117982 5.09157564109643e-05 0.000218668383150294 0.00029052640390463 0.000170857509441058 0.000320193968626449 -0.000317711191785595 -6.73686793237685e-05 0.000237571224792013 0.00036055694895561 -4.43166777002126e-05 0.000195240186292738
"147" -0.000331281787480396 0.00060467734041646 0.000284847813443461 0.0010227263658722 0.00116477458039297 3.96947649414259e-05 0.000217618467938572 0.000299861003254187 0.000174344339494205 0.000320039087538799 -0.000324501188984044 -6.91591940841904e-05 0.000247467226912672 0.000368614924684323 -5.6931351092091e-05 0.000187638185236525
"148" -0.000331567146816232 0.000607601092092007 0.000295623878645043 0.00103493744889131 0.00119105688697065 2.81661008942977e-05 0.000216146540430738 0.000308887114329439 0.000177742309307518 0.00031988376306485 -0.000330565906533154 -7.02812066232208e-05 0.000256196430721664 0.000376870133228986 -7.00241488143306e-05 0.000179196918079951
"149" -0.00033196809920001 0.000608849272867176 0.00030543252192047 0.00104578629492693 0.0012147416537329 1.64386272756011e-05 0.000214211624154099 0.000317493520567568 0.000180972816127023 0.000319671208838207 -0.000335832878445029 -7.07277086778858e-05 0.000263662815646246 0.000385293714582863 -8.33777859377766e-05 0.000169992654233095
"150" -0.000332511226596554 0.000608355524096709 0.00031413068860091 0.00105515046668329 0.00123528229499616 4.62822502947229e-06 0.000211778502575005 0.000325563612658967 0.0001839574608574 0.000319337616566033 -0.000340232263754082 -7.0494169373558e-05 0.000269771221751178 0.00039386518378273 -9.67775404477651e-05 0.000160100512462903
"151" -0.000333227860100496 0.000606069016928213 0.000321585825085273 0.00106293166898892 0.0012521386392672 -7.14317790637589e-06 0.000208814864741162 0.000332992108432631 0.000186622867035291 0.000318825583653672 -0.000343700371331426 -6.95778397000921e-05 0.000274440298257566 0.000402556998694699 -0.000110007807817497 0.000149609204904769
"152" -0.000334142478100042 0.000601951234194779 0.000327677499010479 0.00106903742963592 0.00126480000354843 -1.87439164774022e-05 0.000205294036867223 0.000339670920915054 0.000188893773157365 0.000318071142910444 -0.000346178402802704 -6.7986028360608e-05 0.000277601155226524 0.000411343758033995 -0.000122855269221601 0.000138607707421242
"153" -0.000335278079873536 0.000595981704999785 0.000332296946047175 0.0010733982915653 0.00127276900839968 -3.00440969663831e-05 0.000201183958395342 0.000345499577173746 0.000190702409755938 0.000317012590587852 -0.000347615215450753 -6.57296422396787e-05 0.000279200167896791 0.00042020033404717 -0.000135118151746415 0.000127191672875204
"154" -0.000336648266786109 0.000588157077942069 0.000335342482018716 0.00107595792448116 0.00127559038867586 -4.09053137212114e-05 0.000196464245957618 0.000350384684112874 0.000191980241540648 0.000315586917071622 -0.000347966208934392 -6.28226401961206e-05 0.000279193608826402 0.000429098092244148 -0.000146596358051681 0.00011545961224041
"155" -0.000338266279711654 0.000578486996155043 0.000336733304054779 0.00107668352762441 0.00127283788675481 -5.11854755673115e-05 0.000191113977062107 0.000354241669949135 0.000192665639544066 0.000313734235660353 -0.000347195611567367 -5.92879568731018e-05 0.000277552605230861 0.000438009145056147 -0.00015710571019845 0.000103511489277645
"156" -0.000340136931503544 0.00056699848879799 0.000336405270657659 0.00107555357835019 0.0012641332334631 -6.07458477557659e-05 0.000185116432051655 0.000356990316679738 0.00019270123652084 0.000311393866721193 -0.000345276344486943 -5.51506487154392e-05 0.000274264845070523 0.000446905252108606 -0.000166464736287163 9.14519754205012e-05
"157" -0.000342262517698646 0.000553732924563619 0.000334306437705428 0.0010725656318633 0.00124914300886984 -6.94410040362573e-05 0.000178453619650239 0.000358557135731007 0.000192032489437678 0.000308507237997387 -0.000342186069895437 -5.04444958715984e-05 0.000269333844981812 0.000455756418458886 -0.000174510805437915 7.93878797638561e-05
"158" -0.000344638435346724 0.000538746669487595 0.000330405804717335 0.00106773368866339 0.0012275853830224 -7.71353655960544e-05 0.000171120886440884 0.000358884261968545 0.000190613586879076 0.000305019907330452 -0.000337914768726777 -4.52065710310938e-05 0.000262777941766608 0.000464530230038047 -0.000181089714471469 6.74193863866884e-05
"159" -0.00034725379337975 0.000522117647122379 0.000324685721253765 0.00106109468278988 0.00119923863439559 -8.36892474925443e-05 0.000163107803384144 0.000357916489924208 0.000188403984666223 0.000300881742187785 -0.000332460797689204 -3.94769864594259e-05 0.000254629264497503 0.000473195027587681 -0.000186067424504444 5.56551522680249e-05
"160" -0.000350087081356579 0.00050392737481966 0.000317150990360508 0.00105268741631941 0.00116393741565209 -8.89667363209265e-05 0.000154414519133906 0.000355612515209088 0.000185366281717036 0.000296040280959723 -0.000325826145009621 -3.33042449530489e-05 0.000244936589046585 0.000481714921971215 -0.000189323335253868 4.41939755507192e-05
"161" -0.000353119962027201 0.000484279236885098 0.000307825081921026 0.00104257855872711 0.00112158273441552 -9.28451988817045e-05 0.000145038009709159 0.00035193876418542 0.000181472849325286 0.000290453286835398 -0.000318033017115659 -2.67398039820978e-05 0.000233767678823375 0.000490053875324342 -0.000190756921471875 3.31373356706186e-05
"162" -0.000356317027567985 0.000463285025233717 0.000296747575828241 0.00103083994616915 0.00107214107832064 -9.52010607185961e-05 0.000134989725192361 0.000346874172163597 0.000176701529800657 0.000284082130413972 -0.000309101531756126 -1.98368154168597e-05 0.000221200650949694 0.000498178021105754 -0.000190281480109169 2.25839649720877e-05
"163" -0.000359643218611847 0.000441069524266317 0.000283977223992737 0.00101756074120074 0.00101563509301809 -9.59200031217512e-05 0.00012427297512123 0.000340408021094049 0.000171037176158508 0.000276892350513088 -0.000299064664022357 -1.26538642116976e-05 0.000207327939466578 0.000506044762066146 -0.000187832049452655 1.26252850024552e-05
"164" -0.000363060061329193 0.00041776833871759 0.000269590700460459 0.0010028380709437 0.000952171333956909 -9.4902136411363e-05 0.000112908977240051 0.000332541250733214 0.000164471264215341 0.000268856835826279 -0.000287968582845796 -5.25196879833424e-06 0.000192255545595592 0.000513617278057195 -0.000183364244108594 3.34666921837743e-06
"165" -0.000366511437932603 0.000393528718667122 0.000253679642382272 0.000986779833004773 0.000881911477847895 -9.20526315970835e-05 0.000100909066807584 0.000323284921370139 0.000157001531393313 0.000259952500162862 -0.000275866505388633 2.30367273251389e-06 0.000176104155082172 0.000520852005145698 -0.000176849453559637 -5.16658977325567e-06
"166" -0.000369951482514267 0.000368502761815148 0.000236355502729667 0.000969502429595299 0.000805079917041151 -8.72930015580517e-05 8.83026953496541e-05 0.000312662499544868 0.000148632515754408 0.000250164840578525 -0.000262815104208785 9.94890592830552e-06 0.000159000560792072 0.000527711880621068 -0.000168290539715715 -1.28410947995409e-05
"167" -0.000373319223943441 0.000342852417299232 0.000217739641496734 0.000951124830232291 0.000721967516597862 -8.05533129220903e-05 7.51108810906323e-05 0.000300706627482977 0.000139377984216219 0.00023948638383418 -0.000248889204704378 1.76163824125348e-05 0.000141085717456697 0.000534150035924874 -0.000157704188603156 -1.96099711475263e-05
"168" -0.00037655297080602 0.000316738313681039 0.000197971532080908 0.000931778761544948 0.000632922193101113 -7.17832087288436e-05 6.1368690664692e-05 0.000287463497838306 0.000129251987655267 0.000227915107549031 -0.000234169475171619 2.52378043316977e-05 0.000122505085173992 0.0005401232867741 -0.00014512885191173 -2.54138023650356e-05
"169" -0.000379590209338513 0.00029033561383926 0.000177200312410019 0.000911592387595903 0.00053834439537799 -6.09462883051466e-05 4.71088711677442e-05 0.000272986168829381 0.000118280142340456 0.000215456739320217 -0.000218740867501392 3.27477623132612e-05 0.000103414343252522 0.000545594249150952 -0.000130628552048608 -3.02020938713772e-05
"170" -0.000382362220860577 0.000263812032965799 0.000155591115522607 0.000890695857722681 0.000438692038391057 -4.8021530096873e-05 3.23732993545566e-05 0.000257342125682641 0.000106491610993848 0.000202126851864341 -0.000202698611963547 4.00763490860777e-05 8.39737660230482e-05 0.000550515607407484 -0.000114294132921945 -3.39391367468933e-05
"171" -0.000384799215399527 0.000237341142079035 0.000133313360389153 0.00086922216082841 0.000334458590092999 -3.30075830733906e-05 1.72060818318433e-05 0.000240609020100137 9.39218245970528e-05 0.000187944590960054 -0.000186150783897868 4.71579115902249e-05 6.43401339961664e-05 0.000554846478209956 -9.62246945934985e-05 -3.65934931581849e-05
"172" -0.00038683251671774 0.000211092619150133 0.00011054285801638 0.000847299926651743 0.000226188089990091 -1.59209278088998e-05 1.65122918027766e-06 0.000222867989514364 8.06073904792731e-05 0.000172939266725199 -0.000169202903860307 5.39292673399612e-05 4.46818588543085e-05 0.000558552163480889 -7.65544209830031e-05 -3.81472815937858e-05
"173" -0.000388394999677036 0.000185234628950662 8.74643881559423e-05 0.00082505834347855 0.000114445992892968 3.20903474290286e-06 -1.42425927450589e-05 0.000204212486178223 6.65959911333861e-05 0.000157149055480952 -0.000151976027523076 6.03273498288953e-05 2.51622333469171e-05 0.000561589262187307 -5.54315188591648e-05 -3.85938555680304e-05
"174" -0.000389416093564342 0.000159931824312328 6.42686062602339e-05 0.000802619489622912 -1.59279798876688e-07 2.43226293107031e-05 -3.04150671952571e-05 0.000184743598775913 5.19344636380794e-05 0.000140617152201096 -0.000134589246316297 6.62928170032789e-05 5.94075853354552e-06 0.000563924619193027 -3.30246925928611e-05 -3.79397228729251e-05
"175" -0.000389831073991022 0.000135335848830096 4.11492497679478e-05 0.000780095158319621 -0.000117013928137327 4.73516195428389e-05 -4.68134909758218e-05 0.000164572988026667 3.66772462981491e-05 0.000123392456189107 -0.000117169903368846 7.17711902144188e-05 -1.28219135403501e-05 0.000565527889979653 -9.52094609961539e-06 -3.62023667469503e-05
"176" -0.000389573604097373 0.000111601221852694 1.82927930438828e-05 0.000757602443410787 -0.000235472297678485 7.21995651899742e-05 -6.33816708094676e-05 0.000143810974909169 2.08777558120055e-05 0.000105533868982227 -9.98447383246783e-05 7.67118134955503e-05 -3.09734634109614e-05 0.00056636962671484 1.48732297173171e-05 -3.34077380116017e-05
"177" -0.000388592040057757 8.88659662323128e-05 -4.10722410726451e-06 0.000735237680791429 -0.000354891556101994 9.87578671836791e-05 -8.00524553388894e-05 0.000122578808148093 4.59442019841405e-06 8.71075768296055e-05 -8.2752084142644e-05 8.10661788860395e-05 -4.83695240938142e-05 0.000566424976223998 3.99376155410944e-05 -2.95985759549814e-05
"178" -0.000386827025606915 6.72568869244334e-05 -2.58614656200435e-05 0.000713093699829224 -0.000474624388339453 0.000126895533776027 -9.67685812694028e-05 0.000100999850494015 -1.21094050555321e-05 6.81809058770671e-05 -6.602147232964e-05 8.47945283734412e-05 -6.48679392110569e-05 0.000565675057695498 6.54422911415625e-05 -2.48261834659833e-05
"179" -0.000384231039253745 4.68943664716114e-05 -4.67880875666589e-05 0.000691258223152944 -0.000594020269781359 0.000156463634284637 -0.000113463360820479 7.91996280545081e-05 -2.91718402920518e-05 4.88316928684626e-05 -4.97862688938857e-05 8.78595137317047e-05 -8.0348494496334e-05 0.000564105373738321 9.11443844048454e-05 -1.91544230536587e-05
"180" -0.00038076143373832 2.78773893274434e-05 -6.67094097056836e-05 0.000669801258797177 -0.000712440158620192 0.000187296428571475 -0.000130072869145271 5.73090822244875e-05 -4.65283039141847e-05 2.91410352710718e-05 -3.41750814628215e-05 9.02324566556498e-05 -9.46857781019729e-05 0.00056170840040901 0.000116790776518936 -1.2653255075078e-05
"181" -0.000376378600314193 1.03018789409713e-05 -8.54599212674497e-05 0.000648786237606371 -0.000829263845554334 0.000219214905006909 -0.000146537591265129 3.54544683935617e-05 -6.41120406616391e-05 9.19526118900842e-06 -1.93148166092483e-05 9.18900968429007e-05 -0.000107779787924682 0.00055847869462071 0.000142127151186536 -5.40248492090392e-06
"182" -0.000371055966661752 -5.75974728587696e-06 -0.000102878744094087 0.000628267353259817 -0.00094388226790274 0.000252019378579592 -0.000162788076962772 1.37692920710851e-05 -8.18568960562479e-05 -1.09142933760578e-05 -5.33203957655567e-06 9.28156050498128e-05 -0.000119537534664678 0.000554422893912375 0.000166895876417833 2.50500452731415e-06
"183" -0.000364774139053978 -2.02489084495504e-05 -0.000118813357543534 0.000608284651199148 -0.00105571003475455 0.000285503885489364 -0.000178765738055655 -7.6209483041306e-06 -9.96942740362038e-05 -3.10948429192171e-05 7.66215455945014e-06 9.29986214697636e-05 -0.000129878030629223 0.000549550207945456 0.000190844161749561 1.09776932487162e-05
"184" -0.000357518334690798 -3.31181370749912e-05 -0.000133135225423345 0.000588871446276058 -0.00116419516425823 0.000319449928705365 -0.000194408529836272 -2.85895098615275e-05 -0.000117557660980046 -5.12493115215049e-05 1.95572136806199e-05 9.24371564277674e-05 -0.00013874088389637 0.000543880329258249 0.000213718877825476 1.99110548904307e-05
"185" -0.000349284325590188 -4.43426733287194e-05 -0.000145718265777717 0.000570045496873452 -0.00126881191404321 0.000353629194857624 -0.0002096581130652 -4.90164866797708e-05 -0.000135380298766063 -7.12781881574931e-05 3.02563386706529e-05 9.11338919084367e-05 -0.000146076040682506 0.000537433965645208 0.000235280095706373 2.92045516880075e-05
"186" -0.000340078610819959 -5.39102973976015e-05 -0.000156456670634651 0.000551817155138341 -0.00136906954963283 0.000387807160872439 -0.000224458427552024 -6.87818709554946e-05 -0.000153093452506609 -9.10794237882685e-05 3.96732503527255e-05 8.91010953928187e-05 -0.000151849129911914 0.00053024478307967 0.000255293337756914 3.87470458321254e-05
"187" -0.000329908422854532 -6.18247206272252e-05 -0.000165255338680652 0.000534184232914051 -0.00146451490606107 0.000421743775661879 -0.000238756500985314 -8.77733835296269e-05 -0.00017063377475101 -0.000110555113834304 4.77270898649041e-05 8.63556965700145e-05 -0.000156044732846417 0.000522347013604132 0.000273545123406363 4.84304438959453e-05
"188" -0.000318799416623833 -6.81075464132321e-05 -0.000172042050791392 0.000517140668385993 -0.00155473241394075 0.000455204063711023 -0.000252508732915936 -0.000105886496160813 -0.000187936500686666 -0.000129599795056708 5.43633479290918e-05 8.29221020018883e-05 -0.000158656000162016 0.000513785918752642 0.000289837143498533 5.81520997745375e-05
"189" -0.000306783180277041 -7.27931466113607e-05 -0.000176757543091496 0.000500663218930602 -0.00163934912752185 0.000487944285210717 -0.000265668009338348 -0.000123022580051772 -0.000204939620398558 -0.000148114338793234 5.952487898221e-05 7.88309775239381e-05 -0.000159700355694624 0.000504611189025233 0.000303990207691851 6.78031223703877e-05
"190" -0.0002938915743239 -7.59327356395087e-05 -0.000179365290268229 0.00048472554084 -0.00171804106370627 0.000519734156138421 -0.000278193050466147 -0.000139092552121175 -0.000221580081511605 -0.000165998412796214 6.31829451979037e-05 7.41213131077614e-05 -0.000159203403500301 0.000494881808571079 0.000315851770934 7.72822452672367e-05
"191" -0.000280174775692542 -7.75903429980963e-05 -0.000179844889049939 0.000469292901508461 -0.00179051654409762 0.000550344752310306 -0.000290054003618715 -0.000154013694248154 -0.000237801237866345 -0.000183154668650236 6.53193371070796e-05 6.88317609334015e-05 -0.000157208993013768 0.000484655136920388 0.000325293306889702 8.6493634704044e-05
"192" -0.000265685983430927 -7.78471624940892e-05 -0.000178190800949733 0.000454318976509062 -0.00185654493898913 0.000579557421354304 -0.000301215411526604 -0.000167713543349131 -0.000253548929106355 -0.000199490353295082 6.59299068316567e-05 6.30114762406817e-05 -0.000153774812489666 0.000473999583904778 0.00033221553353267 9.53495501399989e-05
"193" -0.000250488846301625 -7.67930491928198e-05 -0.000174422099780668 0.000439756681373013 -0.00191592934164057 0.000607162373435005 -0.000311660987734071 -0.000180131762435752 -0.000268766562417446 -0.000214912997100587 6.50264772900021e-05 5.67103551142622e-05 -0.000148969291175941 0.000462987840690538 0.000336537999812282 0.000103766776395124
"194" -0.000234648842290924 -7.45305443484963e-05 -0.000168573178729583 0.000425545924148404 -0.00196852584778854 0.000632968880076722 -0.000321369365648324 -0.000191216165300928 -0.000283407120842923 -0.000229337734130572 6.26383281192047e-05 4.99852760490125e-05 -0.000142876998759873 0.000451692105077429 0.00033822645626694 0.000111672590773395
"195" -0.000218243390515442 -7.11736072639838e-05 -0.000160700392302522 0.000411630061173808 -0.0020142346109496 0.00065679922369782 -0.000330329793678563 -0.000200925737327416 -0.000297425535563372 -0.00024268304221806 5.8809094918469e-05 4.28950489977769e-05 -0.000135590882686261 0.000440189429624621 0.000337259996776749 0.000119003506667511
"196" -0.000201351030179603 -6.68463133556488e-05 -0.000150874317179196 0.000397943708041654 -0.00205301638310047 0.000678493032520642 -0.00033853556111623 -0.00020923273785297 -0.000310775178230643 -0.000254874379324175 5.36010960368726e-05 3.54971456523484e-05 -0.000127220461629354 0.000428563627235671 0.000333665751733665 0.000125706982844983
"197" -0.000184057685811656 -6.16822664967137e-05 -0.000139186987505941 0.000384413385539507 -0.00208485797153605 0.000697910871097053 -0.000345986262951628 -0.000216119303921673 -0.00032341907572623 -0.000265843667930401 4.70779211391586e-05 2.78563085760924e-05 -0.00011787797736614 0.000416891269452988 0.00032748289666368 0.000131736472813895
"198" -0.000166448907365657 -5.58209475370677e-05 -0.000125743018808557 0.000370967981256871 -0.00210981162611707 0.000714936105833341 -0.000352689813140251 -0.00022157890112173 -0.000335323799639515 -0.00027552728944852 3.93319214156286e-05 2.00337985292838e-05 -0.000107686112193048 0.000405260479315748 0.000318795522102056 0.000137065591647053
"199" -0.00014862431358104 -4.94076060022419e-05 -0.000110668973202243 0.000357532329548252 -0.00212796675817746 0.000729467761965722 -0.000358656661918429 -0.000225616466187263 -0.000346458262351834 -0.000283875005655988 3.04587127786337e-05 1.20946786124674e-05 -9.67810461400089e-05 0.00039374788294287 0.000307706861241846 0.000141672357525384
"200" -0.000130678440962768 -4.25999372901465e-05 -9.41020549888168e-05 0.000344034269019407 -0.00213946776531042 0.000741437873476899 -0.000363900515045777 -0.000228251956320804 -0.000356795236859654 -0.000290839023435218 2.05645249446873e-05 4.09705932257224e-06 -8.52928173456976e-05 0.000382436156050242 0.000294348032575056 0.000145545208670384
"201" -0.000112705530437981 -3.55473302533844e-05 -7.61908232810545e-05 0.000330388927328709 -0.00214449313264727 0.000750793157672434 -0.000368453153239702 -0.000229511469020546 -0.000366315109917566 -0.000296386335720484 9.76439744682521e-06 -3.89497318028552e-06 -7.3367800800861e-05 0.000371403274918587 0.000278877686741463 0.000148691413078055
"202" -9.48072173978773e-05 -2.84155492409176e-05 -5.70999344995126e-05 0.000316524481099893 -0.00214327495586988 0.000757507737123499 -0.000372331157341545 -0.000229435625258291 -0.000374998708487583 -0.000300485900351197 -1.81720984600771e-06 -1.18249533068267e-05 -6.11477513502719e-05 0.00036073107496379 0.00026147477154347 0.000151117464757594
"203" -7.70837056972184e-05 -2.13645711095056e-05 -3.70078936329359e-05 0.000302365256499654 -0.00213608722432246 0.000761577328163022 -0.000375574106176481 -0.000228077062308215 -0.000382836993101055 -0.000303124717329415 -1.40480453154174e-05 -1.96396189032111e-05 -4.87791567391914e-05 0.00035049019425025 0.000242338764862255 0.000152849536326623
"204" -5.96338029473532e-05 -1.45586368959432e-05 -1.60968485370864e-05 0.000287835679147833 -0.00212324278140431 0.000763022700665379 -0.000378211365524836 -0.000225497086216224 -0.000389821698325865 -0.000304288033983916 -2.67982130986326e-05 -2.728518672339e-05 -3.64084717305434e-05 0.000340749854009653 0.000221687064522509 0.00015391877391644
"205" -4.25559259127064e-05 -8.15745583405481e-06 5.44030630947407e-06 0.00027286113293388 -0.00210509590240562 0.000761884934678949 -0.000380290542470443 -0.000221767842182726 -0.000395951292464286 -0.000303985538261733 -3.99292110408917e-05 -3.47162277695506e-05 -2.41819412015759e-05 0.000331574459310819 0.000199749988541067 0.000154364203410552
"206" -2.59417664960912e-05 -2.32338909045809e-06 2.74098036290981e-05 0.000257377109777586 -0.00208203264852415 0.000758225605483517 -0.000381848878056853 -0.000216971893585247 -0.000401225676022472 -0.000302223354854989 -5.33043680086854e-05 -4.18894662248247e-05 -1.22376379620327e-05 0.000323022693756078 0.000176776306458522 0.000154236247713555
"207" -9.88258235688532e-06 2.7821394243287e-06 4.96081730398065e-05 0.000241309720242116 -0.00205448939375761 0.000752128167112673 -0.000382934322741626 -0.00021120185960256 -0.000405651313132881 -0.000299028664323811 -6.67852465013147e-05 -4.87691676533e-05 -7.177720373082e-07 0.000315149220426661 0.000153016287032358 0.000153585749307085
"208" 5.5312871064568e-06 7.00918826664266e-06 7.18349371882338e-05 0.000224602986054254 -0.00202291098935249 0.000743688976534494 -0.000383594953703246 -0.000204556531848376 -0.000409245272924156 -0.000294431137598005 -8.02360372823485e-05 -5.53227488044954e-05 1.02460374044232e-05 0.000307994889584336 0.000128729187096215 0.000152476872704653
"209" 2.02219642873329e-05 1.02043136644286e-05 9.38896228039735e-05 0.000207195592216077 -0.00198779254565199 0.000733025000941783 -0.000383883467787957 -0.000197143781195526 -0.000412019273207069 -0.000288474938020731 -9.35298696386809e-05 -6.15268626262598e-05 2.05287100197627e-05 0.000301602653385072 0.000104174079276419 0.000150976016986905
"210" 3.41081628730849e-05 1.22232238603856e-05 0.000115568454395329 0.000189037260158287 -0.00194964327154533 0.000720267604600409 -0.000383848954580295 -0.000189081094187102 -0.000413995056295069 -0.000281210819755776 -0.000106536795069715 -6.73593990537045e-05 3.0015719211824e-05 0.000295997954849524 7.9618049891513e-05 0.000149150179549315
"211" 4.71295174107281e-05 1.29302317991484e-05 0.000136680625945355 0.000170078233408214 -0.00190899397067935 0.000705559340822997 -0.00038354240137286 -0.000180489350628138 -0.000415197802344016 -0.000272701969966297 -0.000119134836794034 -7.2809934159075e-05 3.85933209872165e-05 0.000291200875595393 5.53216799953573e-05 0.00014707070270344
"212" 5.92111945350301e-05 1.21969605032516e-05 0.000157034705362475 0.000150279254989882 -0.00186639276109721 0.000689049196876161 -0.000383012948362948 -0.000171492432006712 -0.000415653304693984 -0.000263018153238406 -0.000131215292408688 -7.78699550123987e-05 4.61699757574555e-05 0.000287227768276515 3.15388143956315e-05 0.00014481163394009
"213" 7.03122572392006e-05 9.90396161891338e-06 0.000176446055633505 0.000129612255399793 -0.00182240340851366 0.000670901468775701 -0.000382318711578833 -0.000162225490196669 -0.000415397814193384 -0.000252237371620658 -0.000142668092385941 -8.25403914260196e-05 5.2653466799933e-05 0.000284077418235909 8.51607378210556e-06 0.000142450311647634
"214" 8.03823637407513e-05 5.9459860985127e-06 0.000194748569971306 0.000108047550641747 -0.00177758983235212 0.000651284516939802 -0.000381503147920189 -0.000152822899309514 -0.0004144670132899 -0.000240449453542709 -0.000153397738844519 -8.68241801314089e-05 5.79756836644817e-05 0.000281743331814647 -1.34970472286292e-05 0.000140061266872303
"215" 8.93829276049638e-05 2.24358789990302e-07 0.000211780304159485 8.55696680398123e-05 -0.00173252214453082 0.00063036583782558 -0.000380621364547255 -0.00014342308696013 -0.00041289353598498 -0.000227746990930582 -0.000163320810438587 -9.0732885871565e-05 6.20708581849755e-05 0.000280209533110807 -3.4281063807739e-05 0.000137714674101414
"216" 9.72905179227514e-05 -7.34207144493802e-06 0.000227391215929256 6.21682096874805e-05 -0.00168775833577298 0.000608324564248506 -0.000379713560063059 -0.00013416329793773 -0.000410724320119182 -0.0002142300513336 -0.000172355270562053 -9.4281552321143e-05 6.48939779525866e-05 0.000279448297202466 -5.36165743528472e-05 0.000135487475010923
"217" 0.00010409282937141 -1.68216504825782e-05 0.000241446209657508 3.78481058175743e-05 -0.00164385750910149 0.000585332428117814 -0.000378829418876881 -0.000125183695323348 -0.000408001358166693 -0.00020000660448455 -0.000180443034632223 -9.74922482085126e-05 6.64143563796927e-05 0.000279428254885829 -7.12992844490805e-05 0.000133449626877154
"218" 0.000109778292530402 -2.82698931382223e-05 0.000253828640033573 1.26141574140475e-05 -0.00160134776320675 0.000561560314411607 -0.000378006551132076 -0.000116623586593327 -0.000404765899753265 -0.000185187575617425 -0.000187525245415936 -0.00010038952988383 6.66083423541863e-05 0.000280097652162042 -8.71467617616383e-05 0.000131667645579653
"219" 0.000114352912832986 -4.17219651019381e-05 0.000264433950281496 -1.35153286617515e-05 -0.00156074226305568 0.000537179100248071 -0.000377286028475704 -0.000108616284645095 -0.000401068694942996 -0.000169888206530293 -0.000193558764707551 -0.000103000709676823 6.5476831028784e-05 0.000281403345890271 -0.000100988934987005 0.000130204263693725
"220" 0.000117835602114291 -5.71988132838676e-05 0.000273173486497627 -4.05120631428781e-05 -0.00152252658396993 0.000512352287322659 -0.000376696646143767 -0.000101296785755577 -0.00039695570129659 -0.000154227890122397 -0.000198513573714869 -0.00010535808774345 6.3026433163296e-05 0.000283284184411503 -0.000112678113483724 0.000129120831352315
"221" 0.00012024645518283 -7.47072053280494e-05 0.00027997892523757 -6.83440448728233e-05 -0.00148714794989551 0.000487239054056663 -0.000376274586221521 -9.47923044671643e-05 -0.000392475358386222 -0.00013832683931824 -0.000202367733366164 -0.000107496371205642 5.92839340315591e-05 0.000285664503225393 -0.000122081673657161 0.000128471581679871
"222" 0.000121621391515977 -9.42316618516964e-05 0.000284795556284004 -9.69658000505069e-05 -0.00145501189553282 0.000461988768314906 -0.000376043079963741 -8.9226965270097e-05 -0.000387677196778751 -0.000122306049686202 -0.00020511474129777 -0.00010945151013759 5.4288927626288e-05 0.000288465884895269 -0.000129095341451202 0.000128304504099725
"223" 0.000122000778533882 -0.000115746986034465 0.000287589511231757 -0.000126327891826355 -0.00142648144761882 0.000436740361257697 -0.000376023338089189 -8.47152842601424e-05 -0.000382608524763515 -0.000106289943916742 -0.000206757315223945 -0.00011125998959008 4.8091959274613e-05 0.000291601237867202 -0.00013362748577216 0.000128664942402505
"224" 0.000121441373751374 -0.000139204413040034 0.000288345842433029 -0.000156372117548196 -0.00140187495326352 0.000411622295565155 -0.000376234058500348 -8.13673884154576e-05 -0.000377317835247278 -9.03963939460384e-05 -0.000207309625836443 -0.000112959679367334 4.07551607363242e-05 0.000294976946471371 -0.000135617876496164 0.000129585108784166
"225" 0.000120005316791684 -0.000164538215002831 0.000287058339216639 -0.000187040243047711 -0.00138144680501781 0.000386754994215198 -0.000376685500973129 -7.92837268970171e-05 -0.000371847064897575 -7.4746937781693e-05 -0.000206800333604196 -0.000114588403966452 3.23613065536097e-05 0.000298491658437122 -0.000135021437557357 0.000131097603406012
"226" 0.000117758668778745 -0.000191669317400912 0.000283746218385166 -0.000218261456461887 -0.00136539707314217 0.000362243066097876 -0.0003773851153963 -7.85479989705842e-05 -0.000366248311847156 -5.94581344850973e-05 -0.000205260458725143 -0.000116182647891739 2.29914870417858e-05 0.000302042958890938 -0.000131823835076399 0.000133223596598838
"227" 0.000114778434089256 -0.000220501777433178 0.000278441931297589 -0.000249963900788907 -0.00135386973015588 0.000338176067884426 -0.000378339138659277 -7.92442643498528e-05 -0.000360561982157837 -4.46423573631588e-05 -0.000202739352446041 -0.000117776630920042 1.274523765831e-05 0.000305527712325067 -0.000126034427141664 0.000135975016856458
"228" 0.000111143408421745 -0.000250925497796627 0.000271189217338456 -0.000282073365325069 -0.00134695038512819 0.000314630756714219 -0.000379542799934837 -8.14410510258778e-05 -0.000354829760046825 -3.04103229638816e-05 -0.000199297525276457 -0.000119402435966675 1.72654643301929e-06 0.000308831374206037 -0.00011768549467591 0.000139355720946495
"229" 0.000106944438725961 -0.000282817940572675 0.00026204793619079 -0.000314516172915946 -0.00134465951058238 0.000291669694277466 -0.000380989690592804 -8.51890460236932e-05 -0.000349086329528429 -1.68637019002121e-05 -0.000194998845783502 -0.000121092380267505 -9.95353634557459e-06 0.000311849805466108 -0.000106832714787767 0.000143362383745299
"230" 0.000102264322938742 -0.000316044767859308 0.000251096365111861 -0.00034721503199985 -0.001346951514374 0.000269338752673174 -0.000382675225080907 -9.05318199314202e-05 -0.000343371982711452 -4.10220199051608e-06 -0.000189919187852081 -0.000122873054276272 -2.21757110168942e-05 0.000314469190080529 -9.35621602201298e-05 0.000147976899809649
"231" 9.72035417473021e-05 -0.000350455052129296 0.000238415321969773 -0.000380093360608236 -0.00135373247391189 0.000247666167052815 -0.000384581051674399 -9.7501163922204e-05 -0.00033771839207936 7.78791554859882e-06 -0.000184141990407128 -0.000124764846094742 -3.48214707036165e-05 0.000316588508987017 -7.79866732338906e-05 0.000153176664666603
"232" 9.18506642984284e-05 -0.000385894923903175 0.00022410415343544 -0.000413082837181763 -0.00136483864629997 0.000226669389495139 -0.000386691381345137 -0.000106110874254865 -0.000332150422963648 1.87183464814094e-05 -0.000177762786608889 -0.000126791813570021 -4.77664853407594e-05 0.000318102415567367 -6.02350852303915e-05 0.000158927348268085
"233" 8.63069631684727e-05 -0.000422200621489588 0.000208259699069279 -0.000446107840705552 -0.00138006285728907 0.000206340980915614 -0.000388987399210618 -0.000116365755903901 -0.00032669731310896 2.86174016073483e-05 -0.000170879220578106 -0.000128964293522182 -6.08854099378285e-05 0.000318910378364545 -4.04676349758864e-05 0.000165185098909848
"234" 8.06597977603369e-05 -0.000459204909665725 0.000191001384457942 -0.000479107932180095 -0.00139913774821077 0.000186666163871822 -0.000391448498273741 -0.000128250295920618 -0.000321377418667732 3.74173025059005e-05 -0.000163597130625664 -0.000131295987850229 -7.4056451544156e-05 0.000318921046115924 -1.88681323008981e-05 0.00017189677029812
"235" 7.50101057951245e-05 -0.000496734577410307 0.000172443997454767 -0.000512022048706534 -0.00142175946115653 0.000167607397230362 -0.000394042994578959 -0.000141744854795096 -0.000316202841984074 4.50618347288816e-05 -0.000156024984449626 -0.000133791025844145 -8.7158512374976e-05 0.000318053796607201 4.36165600143808e-06 0.000178992946028323
"236" 6.94483736126534e-05 -0.000534612012903119 0.000152701444183307 -0.000544797508859804 -0.00144756860103369 0.000149117626204839 -0.000396752219301945 -0.000156812738554402 -0.000311189601331855 5.15006407442557e-05 -0.000148280090246013 -0.000136449617865694 -0.000100073312499354 0.00031622559087283 2.89932160229976e-05 0.000186405235158024
"237" 6.40555949516194e-05 -0.000572666948592425 0.000131905661566611 -0.000577386917705422 -0.00147618248701984 0.000131129008074191 -0.000399543475775198 -0.000173402246192666 -0.000306342564067449 5.66980514510105e-05 -0.000140475554874684 -0.000139267682337158 -0.000112687880831851 0.000313377842363279 5.4790092257355e-05 0.000194050344021931
"238" 5.89217914458173e-05 -0.000610724494732274 0.000110176698602856 -0.000609752677911788 -0.00150718381155233 0.000113566409278858 -0.000402393843321779 -0.000191453442067728 -0.000301657922563235 6.06270640062333e-05 -0.000132733501147918 -0.000142235042457218 -0.00012489609773524 0.000309450604620547 8.14818181118765e-05 0.000201836593632668
"239" 5.4122398950696e-05 -0.000648613430313449 8.7634509044591e-05 -0.000641866059824607 -0.00154013097227196 9.63356430265456e-05 -0.000405266591813535 -0.000210893850713064 -0.000297136676331383 6.32687298920553e-05 -0.000125170960370657 -0.000145338902278976 -0.000136600190723163 0.000304403877556946 0.000108806242725638 0.000209673167316143
"240" 4.97308693203423e-05 -0.00068617428340955 6.44093083066645e-05 -0.000673704047354741 -0.00157456525370348 7.93363219089871e-05 -0.000408143661831429 -0.00023164586723841 -0.000292765264501992 6.46160134207515e-05 -0.000117901367121217 -0.00014855695842402 -0.000147707786199149 0.000298204304394738 0.000136473449668734 0.000217454752222092
"241" 4.58098853367825e-05 -0.000723243993648886 4.0606918728833e-05 -0.00070525455842241 -0.00161000842290245 6.24565585886309e-05 -0.000410994227465205 -0.000253616906717376 -0.000288528559979724 6.46732166410138e-05 -0.000111045218401268 -0.000151867157306555 -0.000158139035046176 0.000290838418581652 0.000164191425150528 0.000225077203066289
"242" 4.24200946230332e-05 -0.000759677490997646 1.63510660219839e-05 -0.000736510538607458 -0.00164598627105821 4.55717284539056e-05 -0.000413790430320724 -0.000276707110070057 -0.000284402534100399 6.34556638525897e-05 -0.000104706915856574 -0.000155236887682077 -0.0001678208815121 0.00028229915622748 0.000191667470248818 0.000232436369315762
"243" 3.9610756890612e-05 -0.000795334009737381 -8.25952356961047e-06 -0.000767480233905501 -0.0016820212394481 2.85574832358452e-05 -0.000416508962800385 -0.000300814418074712 -0.000280363723878573 6.09855154263474e-05 -9.89934671119437e-05 -0.000158636289528462 -0.000176694572672664 0.000272602256732039 0.00021860316457788 0.000239417241064024
"244" 3.74221909235204e-05 -0.000830086421012515 -3.31221727755551e-05 -0.000798176055457249 -0.00171763606839078 1.12784300236821e-05 -0.000419133357098497 -0.000325827168195641 -0.000276375206782502 5.72989771729749e-05 -9.39969449119579e-05 -0.000162026276077032 -0.000184706484446942 0.000261773003471268 0.000244710215467649 0.000245916868021902
"245" 3.58887607152297e-05 -0.000863817819440306 -5.81442628963101e-05 -0.000828612467639515 -0.00175237011387529 -6.39863259162995e-06 -0.000421637212243122 -0.000351630180866755 -0.000272399246309887 5.24407157812262e-05 -8.98091727459691e-05 -0.000165368364628294 -0.000191820021402834 0.000249848448755324 0.000269704066717435 0.000251828880447467
"246" 3.50308480343708e-05 -0.000896426988321656 -8.32421130159788e-05 -0.000858820505409071 -0.00178577968968304 -2.46117897729267e-05 -0.00042400546313552 -0.000378108970935138 -0.000268392143980404 4.6462816593313e-05 -8.65060838894904e-05 -0.000168615702326939 -0.000198009180796383 0.000236882421762761 0.000293306713861512 0.000257053576230989
"247" 3.48632689554392e-05 -0.000927825706805273 -0.00010833916174822 -0.000888832802532012 -0.00181743786483289 -4.34962372484487e-05 -0.000426226629589618 -0.000405142384914541 -0.000264305439429767 3.94321210128709e-05 -8.41523196221893e-05 -0.000171724121025212 -0.000203255615990359 0.000222946938827238 0.000315268016621232 0.000261494092769976
"248" 3.53900932628573e-05 -0.000957939374321584 -0.00013337833638245 -0.000918685476435342 -0.00184694013404655 -6.31860295119871e-05 -0.000428287469118123 -0.000432609653251474 -0.000260086057250903 3.14157033862175e-05 -8.28027456135527e-05 -0.000174646047055601 -0.000207556233444059 0.000208114444030216 0.000335344906773585 0.000265063557147091
"249" 3.6605004797745e-05 -0.000986712125612435 -0.000158296456277208 -0.000948421139912459 -0.00187392280613536 -8.38043696840093e-05 -0.000430180494502399 -0.000460395847405074 -0.000255671969101588 2.24975832452152e-05 -8.24924182293406e-05 -0.000177331362450869 -0.000210915452638208 0.000192486203898294 0.000353321659731145 0.000267683895879208
"250" 3.84908934066713e-05 -0.00101410154596289 -0.000183051680816841 -0.000978089151208334 -0.00189803996078917 -0.000105476162740194 -0.000431901352427516 -0.000488379672105876 -0.000251001446017113 1.2761192990549e-05 -8.3250752921729e-05 -0.000179729984451464 -0.00021335025771325 0.000176158639081115 0.000369014626585122 0.000269288290308328
"251" 4.10244915202906e-05 -0.00104008030439835 -0.000207608136627388 -0.00100773255246269 -0.0019189850752811 -0.000128308420832426 -0.000433447855386392 -0.000516449917886136 -0.000246011148430329 2.30254566288418e-06 -8.50849232953311e-05 -0.00018179327538312 -0.0002148876054138 0.000159247702110532 0.000382258343169012 0.00026982107300731
"252" 4.41702262808307e-05 -0.00106464447708236 -0.000231938173817382 -0.00103740372071151 -0.00193649659178343 -0.000152401366081701 -0.000434821687611826 -0.000544491203745541 -0.00024062665510271 -8.77803196041806e-06 -8.79932265440622e-05 -0.000183471171467866 -0.000215563732547696 0.000141877347810907 0.000392925779195823 0.000269239083410885
"253" 4.78816460482901e-05 -0.00108779868416924 -0.000256023832133381 -0.00106715145519193 -0.00195034488644151 -0.000177841995515095 -0.000436027229028491 -0.000572399542687415 -0.000234776040648585 -2.03779635353462e-05 -9.19507835442623e-05 -0.000184718702948939 -0.000215424215509569 0.000124176085810978 0.0004009258714019 0.000267512339725181
"254" 5.21075256031074e-05 -0.00110956582197229 -0.000279858195356123 -0.00109702409077405 -0.00196033974228386 -0.000204704929556992 -0.000437067983135166 -0.000600074558564619 -0.000228388383515144 -3.23875065617124e-05 -9.69236487397915e-05 -0.000185486690556167 -0.000214517446819151 0.000106285003055093 0.000406196153659319 0.000264626947762106
"255" 5.6785091369223e-05 -0.00112999121940348 -0.000303431044169342 -0.00112707119134145 -0.00196634271604485 -0.000233046779338255 -0.000437959907622352 -0.000627420088962644 -0.000221382624193784 -4.4693179894283e-05 -0.000102860334370277 -0.000185735619233964 -0.000212906826075998 8.83376144902066e-05 0.000408711101059149 0.000260581508182721
"256" 6.18421861938814e-05 -0.00114912720207003 -0.000326758189797606 -0.00115733044719712 -0.00196824451942612 -0.000262906515825658 -0.000438707455538721 -0.000654349098599854 -0.000213682641624887 -5.71803446342524e-05 -0.000109689582596946 -0.000185426407257631 -0.000210656327969787 7.0484226506136e-05 0.000408487749129297 0.000255392336559782
"257" 6.72022341560675e-05 -0.00116704480295205 -0.000349838786693941 -0.00118784661639734 -0.00196599446964958 -0.000294310005438818 -0.000439327536872285 -0.000680775523444328 -0.000205212320845246 -6.97370369089608e-05 -0.00011733793031148 -0.000184522489239343 -0.000207836236753981 5.28735199838963e-05 0.000405572860009901 0.000249084368268862
"258" 7.27803328012743e-05 -0.00118383430434829 -0.000372690664924 -0.00121864689909067 -0.00195957793750044 -0.000327259779649097 -0.000439831543571835 -0.000706626162855581 -0.000195891481408008 -8.22405602622971e-05 -0.000125706321369878 -0.000182998255504416 -0.000204521836442845 3.56469210752008e-05 0.000400052186145443 0.0002417041262587
"259" 7.84872526128957e-05 -0.0011995897640655 -0.000395333119686747 -0.00124976501771377 -0.00194902205572105 -0.000361745355217883 -0.000440240031646728 -0.000731836872959724 -0.000185646285279657 -9.45761678495695e-05 -0.000134693284562179 -0.000180824014121779 -0.000200793917899062 1.89530391622039e-05 0.000392048840447556 0.00023330598630732
"260" 8.42203956887459e-05 -0.00121442467576562 -0.000417779776050319 -0.00128121361473519 -0.00193439217355487 -0.000397733618260658 -0.000440563613132846 -0.000756341505028219 -0.000174406628564954 -0.000106631773062782 -0.00014417780639857 -0.000177983891883877 -0.000196727685073411 2.93566003094566e-06 0.000381710270809831 0.000223962361976271
"261" 8.98870195556157e-05 -0.00122845681269669 -0.000440052816763875 -0.00131300964053622 -0.00191580893825341 -0.000435169087261064 -0.000440824461167096 -0.00078009502131775 -0.000162094438817658 -0.000118289125062897 -0.00015403547760774 -0.00017446615875294 -0.000192406565513054 -1.22622426453594e-05 0.000369226807876112 0.000213753287098271
"262" 9.53803966427464e-05 -0.00124181904517343 -0.000462174655576962 -0.00134515312537201 -0.00189341632246746 -0.000473988496278694 -0.000441038508926666 -0.000803045865611312 -0.00014864635477083 -0.000129444493247592 -0.00016413350188783 -0.000170260265256534 -0.000187914051117158 -2.65107905207978e-05 0.000354802002099259 0.000202771126103416
"263" 0.000100591295122748 -0.00125464771833973 -0.00048416126889609 -0.00137763228106176 -0.00186740590826313 -0.000514101504510155 -0.000441214925212445 -0.000825159654523816 -0.000134000349337252 -0.000139988410966275 -0.000174329082905899 -0.000165370680677477 -0.00018332604429477 -3.96820309854069e-05 0.000338680050171317 0.000191119413430035
"264" 0.000105415092884987 -0.00126708498232121 -0.000506022659817109 -0.00141043144391937 -0.0018379920953641 -0.000555404362323672 -0.000441374275205248 -0.000846402197941183 -0.000118096498866595 -0.000149819039550778 -0.000184478557601605 -0.000159801872952822 -0.000178726478990111 -5.16520483522923e-05 0.000321116585453933 0.0001789135289192
"265" 0.000109746054971402 -0.00127927316794005 -0.000527778684475991 -0.00144351766193281 -0.00180543154774272 -0.000597771232970514 -0.000441530499244637 -0.000866751425565024 -0.0001008807373805 -0.000158843839079907 -0.000194429555025979 -0.000153566811386209 -0.000174187840563437 -6.23158103448653e-05 0.000302391459203612 0.000166267646191536
"266" 0.000113480526515996 -0.00129136144741374 -0.000549427319825114 -0.00147684882787078 -0.00177000306801172 -0.000641070533127345 -0.000441690142167975 -0.000886188546779746 -8.23134910244186e-05 -0.000166972762230257 -0.000204034991070834 -0.000146688161501106 -0.000169784918253818 -7.15662766102611e-05 0.00028279600334027 0.000153311289148007
"267" 0.000116511303842933 -0.00130348927775839 -0.000570976996205726 -0.00151036719038816 -0.00173200522954336 -0.000685147377811764 -0.000441864005642367 -0.000904697117556126 -6.23496937793205e-05 -0.000174121209919568 -0.000213141537904651 -0.000139190194179304 -0.00016558639757229 -7.93146415363718e-05 0.000262633099635514 0.000140170809082006
"268" 0.000118746184632515 -0.00131579856171045 -0.000592415573218899 -0.00154400608584204 -0.0016917746045747 -0.000729838586266148 -0.00044205820853706 -0.000922274170260168 -4.09665487779878e-05 -0.000180220474748999 -0.000221601816460063 -0.000131106796836733 -0.000161652740546743 -8.54855736945301e-05 0.000242217243645994 0.000126981162476426
"269" 0.000120089012455936 -0.00132842329237067 -0.000613735938809 -0.00157768415521844 -0.00164964465994148 -0.000774966085654223 -0.000442275486603843 -0.000938911785697247 -1.81372712953985e-05 -0.000185196149392698 -0.000229272131732934 -0.000122477311663041 -0.000158047691237144 -9.00120726383346e-05 0.00022186227979049 0.000113876992157612
"270" 0.000120460893527508 -0.00134148171903218 -0.000634916546129754 -0.00161130746383973 -0.00160596708118364 -0.000820346662779635 -0.000442513607303071 -0.000954611807659019 6.14567619586475e-06 -0.000188999360829902 -0.000236013507386866 -0.00011334398443312 -0.000154816996301811 -9.28403108799736e-05 0.000201883879350355 0.000100994224808984
"271" 0.000119780086842787 -0.00135508567950636 -0.000655928704335114 -0.00164476876722638 -0.00156109677021496 -0.000865784265390162 -0.000442767445600287 -0.000969376129141245 3.18842173653627e-05 -0.000191575689659691 -0.000241691827694327 -0.000103754516278184 -0.000152012983664644 -9.39306066876663e-05 0.000182590532232344 8.84676439122949e-05
"272" 0.000117980179786772 -0.00136933023613631 -0.000676737303271961 -0.00167794430482992 -0.00151539812458787 -0.000911077708106085 -0.000443027228524704 -0.000983210995378082 5.90715017970887e-05 -0.00019289075519353 -0.000246181749993126 -9.37642382996788e-05 -0.000149669838666723 -9.32586510136447e-05 0.000164286884153461 7.64277657706292e-05
"273" 0.000115009628520126 -0.00138429028660294 -0.000697305806081611 -0.0017107129150765 -0.00146922525383854 -0.000956017243237034 -0.000443286112281991 -0.000996122748684672 8.76852641202121e-05 -0.000192912464184631 -0.000249371861314524 -8.34283391017893e-05 -0.000147826099248459 -9.0813444957897e-05 0.000147260748168465 6.50018739784123e-05
"274" 0.000110827409193427 -0.00140002559270942 -0.000717577031914697 -0.00174292606286901 -0.00142292481428382 -0.00100039580484957 -0.000443520775119222 -0.00100811858075601 0.000117693873661163 -0.000191629209880154 -0.000251157198258613 -7.28062445018489e-05 -0.000146501663218217 -8.65963410226432e-05 0.000131789778299684 5.43167017805021e-05
"275" 0.000105402469697192 -0.00141657001621935 -0.000737495724010032 -0.00177443679019912 -0.00137683269341299 -0.00104399773992283 -0.00044371171699316 -0.00101920680953139 0.000149055304661152 -0.000189030526458027 -0.00025144412970292 -6.19569419831428e-05 -0.000145718732489355 -8.06268989744924e-05 0.000118132375779528 4.44857994728446e-05
"276" 9.87181943895858e-05 -0.00143393278431565 -0.000756999192640511 -0.00180508337613541 -0.00133126115076052 -0.00108660846447901 -0.000443835757550402 -0.0010293959568971 0.000181712168397105 -0.000185116159038734 -0.000250158709640933 -5.09442274032588e-05 -0.00014548781958585 -7.29349394898353e-05 0.000106520876830596 3.56206626230188e-05
"277" 9.07800686961066e-05 -0.00145209751796262 -0.000776020244686184 -0.00183470251890739 -0.00128650526484917 -0.00112801891113172 -0.000443863065655355 -0.00103868623579815 0.000215598428800347 -0.000179908679287103 -0.000247235369639115 -3.98293242548304e-05 -0.000145814293260534 -6.35652910266108e-05 9.71717212608184e-05 2.78242877371962e-05
"278" 8.16038044937293e-05 -0.00147102431736257 -0.000794480162160428 -0.0018631224467082 -0.0012428301388433 -0.00116801617822352 -0.000443762445475637 -0.00104708397259996 0.000250636953306146 -0.000173430620287818 -0.00024262908123276 -2.86751655882676e-05 -0.000146699726978829 -5.25778894468859e-05 9.02605458070184e-05 2.11858577879556e-05
"279" 7.12246509477362e-05 -0.00149063476179085 -0.000812301497205492 -0.00189016858705027 -0.00120046980803601 -0.00120639602347682 -0.00044349991342305 -0.00105459170429421 0.000286733595977283 -0.00016571655260233 -0.000236303927286196 -1.75417064775764e-05 -0.000148135239482732 -4.00401075928062e-05 8.59497040312688e-05 1.57867771651453e-05
"280" 5.96925912284819e-05 -0.00151082959482863 -0.0008294000851618 -0.00191566481937424 -0.00115962834663359 -0.0012429561881903 -0.000443043254287689 -0.00106120481066815 0.00032378773820157 -0.000156819514357693 -0.000228249958124513 -6.48591386275204e-06 -0.000150110931478995 -2.60358459335907e-05 8.4357554888498e-05 1.16991984192719e-05
"281" 4.70752455491742e-05 -0.00153147750363775 -0.000845689760938552 -0.00193943792671705 -0.00112046991363927 -0.00127750162401159 -0.000442346204847373 -0.00106691423398395 0.000361686513019345 -0.000146793954522592 -0.000218463325653047 4.43735619414688e-06 -0.000152609539621023 -1.06579355249084e-05 8.55730803680938e-05 8.97656187740473e-06
"282" 3.34583404538059e-05 -0.00155241005588336 -0.000861088633281786 -0.00196131639391797 -0.00108312119131018 -0.00130984517509066 -0.000441378992176782 -0.00107171435082339 0.000400303452794119 -0.000135711744533741 -0.000206970288877647 1.51764909553509e-05 -0.000155608978949257 5.98820817416946e-06 8.96503330043072e-05 7.66813021637415e-06
"283" 1.89385177906449e-05 -0.00157344388708122 -0.000875501826447788 -0.00198113429501648 -0.00104767085779051 -0.00133981091560041 -0.000440096493309386 -0.00107558593515076 0.000439509619622827 -0.000123650815608467 -0.000193804656726445 2.5685220223468e-05 -0.000159082931467716 2.37953542770815e-05 9.66076486329912e-05 7.79988078074429e-06
"284" 3.63756597512123e-06 -0.00159434968202127 -0.000888848987776505 -0.00199873050131184 -0.00101415586164872 -0.00136722852308645 -0.00043846405188915 -0.0010785083466892 0.000479159821523613 -0.000110699730013863 -0.00017901776245993 3.59250371925408e-05 -0.000163007271151581 4.26340532568438e-05 0.000106426680767606 9.39582163639805e-06
"285" -1.2315399200183e-05 -0.0016148839689459 -0.000901034978035808 -0.00201396214314971 -0.000982589626176102 -0.00139194083101568 -0.000436447292155294 -0.00108045925238206 0.000519105080572694 -9.69537090319319e-05 -0.000162685840658847 4.58601835408789e-05 -0.000167346144799795 6.23862188449208e-05 0.000119045294131825 1.24551638628785e-05
"286" -2.87736147682938e-05 -0.00163477241454425 -0.000911985481485011 -0.00202668780401819 -0.000952929772877265 -0.00141380217371908 -0.000434007750503353 -0.00108140718962183 0.000559186681421518 -8.25257972204044e-05 -0.000144897435375758 5.54635388539603e-05 -0.000172065577376359 8.29123215370985e-05 0.000134373923827437 1.6965836675017e-05
"287" -4.55808594244618e-05 -0.0016537222287777 -0.000921614627317709 -0.00203678292311538 -0.000925105916007971 -0.00143267913026339 -0.000431122009036437 -0.00108131606083801 0.000599242824756386 -6.75285707551275e-05 -0.000125751166731879 6.4713203767478e-05 -0.000177133711063055 0.000104080282804375 0.000152279724066598 2.2904062156339e-05
"288" -6.25649614820105e-05 -0.00167141466073468 -0.000929844586040875 -0.00204413925658297 -0.000899003728379885 -0.00144845006062696 -0.000427755733677869 -0.00108014827460698 0.000639107906247115 -5.20749772312682e-05 -0.000105370182481235 7.35954155115756e-05 -0.000182511897551732 0.000125745809437725 0.000172595679075462 3.02302096720695e-05
"289" -7.95538678109178e-05 -0.00168752290248466 -0.000936604196353698 -0.00204866593165622 -0.000874478668746646 -0.00146101247271611 -0.000423891295828202 -0.00107785967025628 0.000678611363402 -3.62976714477218e-05 -8.3884384864442e-05 8.21045914162694e-05 -0.000188163233501437 0.000147770235955892 0.000195117967221448 3.88879670619721e-05
"290" -9.6357187531085e-05 -0.00170169999240462 -0.000941831138530447 -0.00205028295722147 -0.000851345196179838 -0.00147027201570495 -0.000419509941300407 -0.00107440460483244 0.000717580535094799 -2.03232059451563e-05 -6.14427661753345e-05 9.02417896854218e-05 -0.000194053283223757 0.00017000888835968 0.000219611277116383 4.88078273605863e-05
"291" -0.000112793206763607 -0.00171359996584027 -0.00094545748763407 -0.00204893420833443 -0.000829405632210962 -0.00147615303759634 -0.000414598187604631 -0.00106973474582228 0.000755844500424764 -4.28411902935673e-06 -3.81985931378751e-05 9.80123486095845e-05 -0.000200142084602199 0.000192321243676665 0.00024581420392487 5.99115960179213e-05
"292" -0.000128667345238077 -0.00172286983023194 -0.000947431531432952 -0.00204457449257848 -0.000808420331117342 -0.00147859518180507 -0.000409150589820606 -0.0010637990150437 0.000793232068411216 1.16845154545213e-05 -1.4320684015297e-05 0.000105433683029023 -0.000206391936370922 0.000214565874177891 0.00027342985823157 7.21014646643961e-05
"293" -0.000143790149134509 -0.00172915953216898 -0.000947705960863113 -0.0020371785357691 -0.000788145241204701 -0.00147755999204795 -0.000403157863441499 -0.00105654693494269 0.000829577693507516 2.74525081358521e-05 1.00198209535831e-05 0.000112525621359932 -0.000212771651762548 0.000236605844086675 0.000302141438950046 8.52749202715658e-05
"294" -0.000157973677884215 -0.00173212539556454 -0.000946241054202432 -0.00202673760320923 -0.000768304419132371 -0.00147302200880101 -0.000396626701458884 -0.00104793043842192 0.00086471627977248 4.28844849340636e-05 3.46401015551065e-05 0.000119313646333113 -0.000219246358144605 0.00025830791247346 0.000331613116326402 9.93095102049823e-05
"295" -0.000171038839743285 -0.00173144495224818 -0.000943001177101907 -0.0020132547111435 -0.000748623449129228 -0.00146497308654779 -0.000389557987928947 -0.00103790138438035 0.000898491871103035 5.78535449779696e-05 5.93545269577872e-05 0.000125828365437903 -0.000225784530944882 0.000279547268134958 0.000361486337558289 0.00011407918360076
"296" -0.000182819923021743 -0.00172681102660788 -0.000937967207065967 -0.00199674931186804 -0.000728818379565966 -0.00145342731122706 -0.000381963857165235 -0.00102641679763959 0.00093075312351934 7.22373932412376e-05 8.3980894180669e-05 0.000132103237904877 -0.000232355235981859 0.00030019938589644 0.000391391551409223 0.000129448972859128
"297" -0.00019315708482249 -0.00171794449870581 -0.000931114721765022 -0.00197724740150318 -0.000708600365491322 -0.00143841775665079 -0.00037385060976415 -0.00101343829479764 0.000961356834153552 8.59177494509209e-05 0.000108329524940241 0.000138174356146438 -0.000238930624197428 0.000320144709907155 0.000420957731859674 0.000145271556116432
"298" -0.000201915745618775 -0.00170459514188348 -0.000922433035240157 -0.00195478991558662 -0.000687680528506608 -0.00141999690181945 -0.000365229474015884 -0.000998935451133166 0.000990173544871759 9.87916295628266e-05 0.000132217628938221 0.000144080389940194 -0.000245486309980034 0.000339278337029446 0.000449802526215057 0.000161399172414196
"299" -0.000208960529553646 -0.00168655186951318 -0.000911929611273984 -0.00192942274654548 -0.000665787626133101 -0.00139823928381509 -0.000356114540544172 -0.000982881846128545 0.0010170780883504 0.000110756848836334 0.00015546580890034 0.00014985658084408 -0.000251997705264797 0.000357497245666916 0.000477544367318497 0.000177676570953247
"300" -0.000214200091217571 -0.00166364507526049 -0.000899600360419751 -0.00190119654092064 -0.000642653063233839 -0.00137323885492047 -0.000346518611508383 -0.000965266391854427 0.00104196268805432 0.000121730060215528 0.000177897418728372 0.000155540751338663 -0.00025844560482192 0.000374707016424333 0.000503817079831532 0.000193941319710389
"301" -0.000217550055781843 -0.00163575134408075 -0.000885462867483542 -0.00187017081841864 -0.000618025175177437 -0.00134510845866065 -0.000336450942657373 -0.00094608097042866 0.00106473016093004 0.000131636706831726 0.0001993545486109 0.000161166170380673 -0.000264810117266914 0.000390823186225002 0.00052825768274462 0.000210039100955801
"302" -0.000218957230423533 -0.00160279531129005 -0.000869536901927155 -0.00183639862742455 -0.000591671213847754 -0.00131398361073043 -0.000325918702305847 -0.000925336719836091 0.00108529792108772 0.0001404174505939 0.000219679393867139 0.000166766196902611 -0.000271077406701921 0.000405767813698018 0.000550525356208219 0.000225805259418637
"303" -0.000218393018600535 -0.00156475546488078 -0.000851856711468046 -0.0017999475585574 -0.000563390110019402 -0.00128001921117343 -0.000314932445089661 -0.000903050959422892 0.00110359531144418 0.000148026784544369 0.000238730253354 0.000172366396305548 -0.000277232626497497 0.000419475136351961 0.000570296465427456 0.000241082897690053
"304" -0.00021585167050689 -0.00152165822843821 -0.000832454749218857 -0.00176087579258329 -0.000532988374620646 -0.00124338850014083 -0.000303497726829811 -0.000879255293690748 0.00111956846735533 0.00015443621466624 0.000256382101653792 0.000177992064185539 -0.000283261896424552 0.00043188559474858 0.000587274363676516 0.000255722320976233
"305" -0.000211359566688033 -0.00147358998433298 -0.000811378782582491 -0.00171925014716879 -0.000500313826097079 -0.00120428212197819 -0.000291613415621409 -0.000853995756665529 0.00113317990708452 0.00015962842850036 0.000272524325234682 0.000183661497244007 -0.000289159387060472 0.000442945689874736 0.000601195162732904 0.000269574072767326
"306" -0.000204959026439257 -0.0014206782309946 -0.00078868735021939 -0.00167513468577271 -0.000465242312748291 -0.00116290362078959 -0.000279279669821832 -0.000827329268174203 0.00114440551493636 0.000163607380604129 0.000287064454480689 0.000189391424260565 -0.000294911076271573 0.000452620207811701 0.000611827164826166 0.000282500226828768
"307" -0.000196725100613165 -0.00136311380737287 -0.000764440420130634 -0.00162859778709519 -0.000427676766310748 -0.00111947783407071 -0.000266500273038939 -0.000799325275008748 0.00115323912780143 0.000166385146321052 0.000299926561668571 0.00019519033219735 -0.000300513534817654 0.000460876392442398 0.000618971059676828 0.000294373129375033
"308" -0.000186757265222108 -0.00130112555788985 -0.0007387095895995 -0.00157971285284322 -0.000387557540926248 -0.00107423625655348 -0.000253265781957491 -0.000770065941543338 0.00115969050937466 0.000167995101751205 0.000311056220907902 0.000201067086836189 -0.000305956852239958 0.000467690813344575 0.000622474101517933 0.000305073979274549
"309" -0.000175173726258467 -0.00123499518760586 -0.000711579083619429 -0.00152855974493868 -0.000344855965974573 -0.00102742281348959 -0.000239576486113743 -0.000739647669896397 0.00116378271440428 0.00016847996384262 0.000320421848970926 0.000207023947945617 -0.00031123675076868 0.00047305175606673 0.000622222939003463 0.000314504663596659
"310" -0.000162114237245525 -0.00116504029027786 -0.000683134789687224 -0.00147522404101571 -0.000299581020123118 -0.000979289244750832 -0.0002254330370263 -0.000708170026250991 0.00116556220374666 0.000167896354664132 0.000328010004002912 0.000213057927914084 -0.000316342997251895 0.000476953846603023 0.000618141503566232 0.00032257232849882
"311" -0.000147724468538559 -0.00109160975707811 -0.000653480520323637 -0.00141979827189802 -0.000251772545494519 -0.000930088422539625 -0.000210828210338571 -0.000675744767402355 0.00116507986316732 0.000166311535659846 0.000333826599966518 0.000219170908064944 -0.000321271227621199 0.000479401072678115 0.000610207160723891 0.000329210343528385
"312" -0.000132181228197984 -0.0010150966245658 -0.000622720069855756 -0.00136239761522687 -0.000201504256236486 -0.000880082927558269 -0.000195770135231841 -0.000642498647186505 0.00116241026096461 0.000163804692103891 0.000337905110756866 0.000225354724042555 -0.000326015627083872 0.000480409397863917 0.000598438126995309 0.000334361987219667
"313" -0.000115663516448432 -0.000935904378295452 -0.000590969834362243 -0.0013031340004375 -0.0001488862097937 -0.000829529076160834 -0.000180262324895437 -0.000608555759361417 0.00115763912990653 0.000160462812663514 0.000340292837976488 0.000231605262043091 -0.000330563893066853 0.0004799982744749 0.000582890788365931 0.000337993853359735
"314" -9.83566116977145e-05 -0.000854467231487685 -0.000558357013583174 -0.0012421448988253 -9.4053946028424e-05 -0.000778683535397729 -0.000164315555313791 -0.000574050455272983 0.0011508662301084 0.000156382312593623 0.000341058994880883 0.000237917603231522 -0.000334909527638752 0.00047819623840571 0.000563672583573003 0.000340090799826241
"315" -8.0457505536196e-05 -0.000771233530568664 -0.000525011580074689 -0.00117958321966868 -3.7178487160909e-05 -0.000727798877206102 -0.000147945784306557 -0.000539119663973206 0.001142204601383 0.000151664618792411 0.000340296474302073 0.000244282712177421 -0.000339039763475364 0.000475043908548706 0.000540927257508201 0.000340652274525571
"316" -6.21660258187221e-05 -0.000686663742209835 -0.000491069461273977 -0.00111561484691969 2.15385469574271e-05 -0.000677116164730953 -0.000131175239538681 -0.000503903255471356 0.00113177814571177 0.000146414966787668 0.00033810915981735 0.000250695514868747 -0.000342942458545875 0.00047058396179403 0.00051483981442642 0.0003397040940569
"317" -4.36810142744919e-05 -0.00060122318692768 -0.000456680876219355 -0.00105042462159278 8.18705332601054e-05 -0.000626870311190669 -0.000114028089276015 -0.00046854542990719 0.00111972121829297 0.00014074171824705 0.00033461880148596 0.000257147987105202 -0.000346606088382457 0.000464864464298762 0.000485626733941146 0.000337279620446101
"318" -2.52035869850149e-05 -0.000515375774646289 -0.000421988197179576 -0.000984219662037852 0.000143575952404798 -0.000577281282918007 -9.65382020645941e-05 -0.000433188119555391 0.00110617841145431 0.000134756829736062 0.000329967058568259 0.000263633607412858 -0.000350016532194013 0.00045794650892389 0.000453540069142791 0.000333437171765497
"319" -6.92105226195394e-06 -0.000429590682145858 -0.000387150495807694 -0.000917216737288206 0.00020637768579255 -0.000528559625994808 -7.87541971910305e-05 -0.000397971512528305 0.0010913040932601 0.000128571769645464 0.000324299306585337 0.000270148911021391 -0.000353153016950489 0.000449893583676024 0.000418860144875434 0.00032825055315941
"320" 1.09704330764911e-05 -0.000344322577255635 -0.000352316672408186 -0.000849653456135613 0.000269990964307483 -0.000480896019156592 -6.07157745644855e-05 -0.00036303341390217 0.00107525559364765 0.000122295819966919 0.000317777913829175 0.00027668440631795 -0.000356006191657538 0.000440772248333645 0.000381891430864311 0.000321800383327768
"321" 2.82939895436063e-05 -0.000260023384165846 -0.000317643606709427 -0.000781790912676418 0.00033410775060387 -0.000434466552586886 -4.24821153143263e-05 -0.000328512138017576 0.00105819667795986 0.000116038456124602 0.000310568296011133 0.000283236661054861 -0.000358558196096057 0.000430657401771529 0.00034295187515328 0.000314185990045451
"322" 4.48807889822533e-05 -0.000177124918196157 -0.000283285288931295 -0.000713887835595073 0.000398417090929303 -0.000389431258807488 -2.41093771442427e-05 -0.000294541444511146 0.00104029788455291 0.000109902510513942 0.000302842026073851 0.000289798412211857 -0.0003607889298872 0.000419625017767758 0.000302378975555683 0.00030551520541739
"323" 6.05708846119434e-05 -9.6050498715989e-05 -0.000249397571683483 -0.00064622866549497 0.00046259277985661 -0.000345929699935715 -5.66930884742501e-06 -0.000261244523453724 0.00102172776254518 0.000103990579406698 0.000294779003764849 0.000296360753288925 -0.00036268649756893 0.000407759342577044 0.000260527553212561 0.000295903941953634
"324" 7.52191709929005e-05 -1.719671991877e-05 -0.000216129725897707 -0.000579104313087775 0.000526304418504775 -0.000304082192803549 1.27708002908935e-05 -0.000228741832980068 0.0010026575229481 9.83949310185825e-05 0.000286548668024402 0.000302915049763031 -0.000364235207945864 0.00039514723850631 0.000217736037273378 0.000285470024400242
"325" 8.86953280245737e-05 5.90556559906685e-05 -0.000183619931355388 -0.000512813470341428 0.000589229537248741 -0.000263988968940415 3.11379615789789e-05 -0.000197151289816853 0.000983258818368725 9.32027120017473e-05 0.00027832259157222 0.000309451086944702 -0.000365422344150924 0.000381876197464686 0.000174362500964299 0.000274337514340174
"326" 0.000100891131165963 0.000132355986440986 -0.000152009150608092 -0.000447660516183609 0.000651040145883564 -0.000225734735000598 4.93519138788378e-05 -0.000166574258063732 0.000963697999688316 8.84936356701114e-05 0.000270270203404305 0.000315956181884495 -0.000366237655641762 0.000368033773105835 0.000130751466472838 0.000262629950894533
"327" 0.000111714539187038 0.000202382156073864 -0.000121426353551947 -0.000383951023791126 0.000711424000561227 -0.000189381665802826 6.73300498150651e-05 -0.000137113102873065 0.000944140221504788 8.43422883377261e-05 0.000262548967055417 0.000322415487997302 -0.000366673792616563 0.000353720185732607 8.72300249102063e-05 0.000250469692602438
"328" 0.000121085474293971 0.000268834035460339 -9.19911472160605e-05 -0.000321993528470609 0.000770068167989983 -0.000154975399167529 8.49920632256766e-05 -0.000108854628725503 0.000924741612645421 8.08065176873266e-05 0.000255306552179645 0.00032881129468957 -0.00036672743040302 0.000339025267677147 4.41234032544491e-05 0.000237976905275481
"329" 0.000128954185711791 0.000331448133905619 -6.38156701101247e-05 -0.000262091974400056 0.000826691911618655 -0.000122538321609306 0.000102257891215943 -8.18817736368679e-05 0.000905656193812235 7.79418756448209e-05 0.000248679181468279 0.000335124580813725 -0.000366398119062138 0.000324050705149128 1.72534261548901e-06 0.000225258871526064
"330" 0.000135290513938245 0.000389996668888666 -3.6992977873072e-05 -0.000204540497574957 0.000881021030513782 -9.20839604020979e-05 0.00011904717994872 -5.62657821123049e-05 0.000887024558244418 7.57888961946089e-05 0.000242786607045528 0.000341331266487157 -0.000365689863922444 0.000308885992246335 -3.96809078839562e-05 0.000212421615016678
"331" 0.000140081241121132 0.00044427998644405 -1.1617172883602e-05 -0.00014962937301227 0.000932813540801079 -6.36051979504198e-05 0.000135280742371985 -3.20663614922006e-05 0.000868983534509494 7.43806486261192e-05 0.000237732842248988 0.000347406827345156 -0.000364614242825723 0.000293633904305011 -7.98495554766772e-05 0.000199559961658106
"332" 0.000143343522279811 0.000494146702206554 1.22479696953829e-05 -9.76280449846636e-05 0.000981850417301666 -3.70775462020466e-05 0.000150878569310822 -9.33618578133856e-06 0.000851653811772528 7.37395730380592e-05 0.000233608773583845 0.000353324562958278 -0.000363181873434808 0.000278390939063859 -0.000118550484636785 0.000186757264537283
"333" 0.000145111364354912 0.000539467508168317 3.4531023840506e-05 -4.87962105719316e-05 0.00102793061183048 -1.24651419451617e-05 0.000165774630598583 1.18826444269661e-05 0.00083514961158101 7.38759612518854e-05 0.000230486240540409 0.00035905383651122 -0.000361414745580894 0.000263248985743327 -0.000155591252801025 0.00017408780118541
"334" 0.000145440300167232 0.000580166197330945 5.51972167917107e-05 -3.36572035746259e-06 0.00107090381608087 1.02794256482005e-05 0.000179900429980088 3.15599803855282e-05 0.000819571624340443 7.4793815770265e-05 0.000228415138050027 0.000364563206292064 -0.000359332699356341 0.000248302365746289 -0.00019080389323368 0.000161613615124296
"335" 0.000144405570852577 0.00061619397734584 7.42053842466266e-05 3.84481465463895e-05 0.00111063797536664 3.12186921294393e-05 0.000193198536994712 4.96750966624582e-05 0.0008050047833854 7.64854939589867e-05 0.000227430780401823 0.000369822081142455 -0.000356966340508381 0.000233639963899595 -0.000224049886356784 0.000149382803310686
"336" 0.000142106626663841 0.000647549005733034 9.15437190834593e-05 7.6462464037945e-05 0.00114703789686341 5.0426737146522e-05 0.000205617426747202 6.62158754695166e-05 0.000791526162400469 7.89368192445743e-05 0.000227554071658349 0.000374796312924217 -0.000354343893023997 0.000219346245673691 -0.000255220158823046 0.000137441119968607
"337" 0.000138643462884675 0.000674255928064765 0.000107208276150073 0.000110521363484789 0.0011800402609385 6.79826153234602e-05 0.000217108266340402 8.11849426702082e-05 0.000779196295867048 8.21265187117487e-05 0.000228785273324327 0.00037945491963793 -0.000351498087452755 0.000205499106717794 -0.000284228126995788 0.000125814779852627
"338" 0.000134143497481653 0.000696382618130007 0.000121210447116897 0.000140508342618098 0.0012096196454721 8.39800952969151e-05 0.000227643698314181 9.45881099716276e-05 0.000768061985689354 8.60256923092921e-05 0.00023111436188205 0.000383766415344574 -0.000348465192100046 0.000192176793329486 -0.000311016948260202 0.000114529891799123
"339" 0.000128743822943865 0.00071403347378965 0.000133577477365269 0.000166334893844341 0.00123578453145977 9.85188642346914e-05 0.00023719292629091 0.000106444560374506 0.000758161343082766 9.06029860794448e-05 0.00023451722671581 0.000387700298208616 -0.000345276413992654 0.000179440444118969 -0.000335546928322934 0.000103600890587566
"340" 0.000122582254045383 0.000727340974131637 0.000144348535664355 0.000187951886758899 0.00125856283959317 0.000111706123566234 0.000245741505037737 0.0001167871641341 0.000749515195786354 9.58223542721978e-05 0.000238958848380035 0.000391230833801471 -0.00034196516485078 0.00016734857567167 -0.000357791191264459 9.30439798309807e-05
"341" 0.000115800580909167 0.000736462541578842 0.000153579794849654 0.000205354006740978 0.00127802247919396 0.000123652411689604 0.000253282095545346 0.000125650872973461 0.000742132991950515 0.000101648262058027 0.000244397745741291 0.000394333112914071 -0.000338563497787092 0.000155952811534984 -0.000377748249058299 8.28639079398415e-05
"342" 0.00010854577542269 0.0007415929384419 0.000161336440544896 0.000218574878641887 0.00129426082264822 0.000134480668665342 0.000259826276298718 0.000133083461851331 0.000736014643744406 0.000108040513051518 0.000250780400927108 0.000396987680969562 -0.000335099941731338 0.000145285121061953 -0.000395417254050916 7.30720406951993e-05
"343" 0.00010095370007099 0.000742942439519957 0.000167701269994445 0.000227683911794867 0.00130738155812426 0.00014430956977526 0.000265381262646663 0.000139140618402379 0.00073114739592286 0.000114960354201498 0.00025805452550157 0.000399179531570031 -0.000331599672688511 0.000135378454283948 -0.000410810879182067 6.36757581456422e-05
"344" 9.31609826200018e-05 0.000740745270634458 0.000172764190753221 0.000232796837180603 0.00131752836815758 0.000153270594703488 0.000269977622344969 0.000143884267248343 0.000727509782353001 0.000122374840281916 0.000266165360927512 0.000400896673472696 -0.000328079351931009 0.000126248597599037 -0.000423952461544103 5.46863583205476e-05
"345" 8.52929975397592e-05 0.000735250506501318 0.000176628605620389 0.000234059694632746 0.00132485324714376 0.000161491805649006 0.0002736456841766 0.000147389889064964 0.000725069179922113 0.000130247947739821 0.000275053054391608 0.000402135166749078 -0.000324553125450393 0.000117897566514615 -0.000434853821178497 4.61174555684956e-05
"346" 7.74667839705001e-05 0.000726724394634405 0.000179402894983271 0.000231665924708299 0.00132952772414582 0.000169105072611023 0.000276425902343746 0.000149728326810098 0.000723788051028301 0.00013854822920428 0.000284663936126613 0.000402893376681231 -0.000321029771783793 0.000110324942425296 -0.000443542279856065 3.79838965233264e-05
"347" 6.97849071542341e-05 0.000715445894456244 0.000181207495451347 0.000225832763731113 0.00133173248194705 0.000176241224257538 0.000278374943499506 0.000150990646093949 0.000723616912289387 0.00014724657744479 0.000294937468921833 0.000403178263468948 -0.000317511090163054 0.000103513383927016 -0.00045004013896631 3.03094805414696e-05
