"V1" "V2" "V4" "V5" "V7" "V8" "V10" "V11" "V13" "V14" "V15" "V17" "V18" "V20" "V21" "V23"
"1" 0.000232710720253948 -0.000214547182874936 -4.5767022881586e-05 4.235302239125e-05 -0.00015409153793203 -0.000242492569730392 -0.000205069356559643 -0.000334445162404325 -3.47088835465397e-05 2.49803616281063e-05 0.000235174573857572 -0.000214223446224224 0.000398711862258945 -5.00123449141752e-05 0.000492703989984341 -4.90640862405488e-05
"2" 0.000239106446847071 -0.000210945993587919 -3.59248355433451e-05 5.7250434521567e-05 -0.00015086801889636 -0.000241362617825238 -0.000200796788294034 -0.000334848840050812 -1.7710735665031e-05 3.73003624953209e-05 0.00024965900173131 -0.000213479209226761 0.000411740447256753 -4.22932762667941e-05 0.000515154776834898 -3.05697892893189e-05
"3" 0.000245173046816344 -0.000206230214882343 -2.65660886165572e-05 7.19188925022441e-05 -0.000147740973545965 -0.000239864445982645 -0.000196229845801617 -0.000334914829157183 -5.840592565801e-07 4.98656258513676e-05 0.000264142200333178 -0.000212511454398464 0.000424575489576779 -3.43207262173146e-05 0.000536043357913094 -1.22756096757909e-05
"4" 0.000250867419795647 -0.00020047990884685 -1.77317427675051e-05 8.63305451923924e-05 -0.000144728742969644 -0.000238020743763007 -0.000191400793544264 -0.00033467313457227 1.65946962161427e-05 6.26590852184371e-05 0.000278544586228393 -0.000211287126703206 0.000437146769084918 -2.61334512529232e-05 0.000555302105158623 5.7261702822141e-06
"5" 0.000256163561130447 -0.00019377403318079 -9.45817453732386e-06 0.000100455722293663 -0.000141844815513376 -0.00023586288421204 -0.00018633951524744 -0.000334160625917923 3.3745965158662e-05 7.56549358466248e-05 0.000292788922482471 -0.00020977579486413 0.000449393581795797 -1.77663127289314e-05 0.000572876198009308 2.33459758933721e-05
"6" 0.000261026119827226 -0.000186202674728352 -1.78138928831681e-06 0.000114269002239023 -0.000139099167122334 -0.00023342434818859 -0.000181072785793809 -0.000333414876235794 5.07958584178009e-05 8.88354685268059e-05 0.000306793175608895 -0.000207948970212928 0.000461255434344342 -9.25778898788749e-06 0.000588720374826482 4.04924706247036e-05
"7" 0.000265431496226096 -0.00017785981621802 5.27820649695839e-06 0.000127751606542421 -0.000136500953416473 -0.000230743542000402 -0.000175627905723996 -0.000332472761382627 6.76652655634712e-05 0.000102177265210541 0.000320486316233388 -0.000205779808962645 0.000472683912988983 -6.41828065179593e-07 0.000602812402016994 5.70816957428182e-05
"8" 0.000269360643019217 -0.0001688397728836 1.16958420014176e-05 0.000140885613216364 -0.000134061759023757 -0.000227863077718834 -0.000170025765677218 -0.000331378253815538 8.42926957377687e-05 0.000115659022296574 0.000333793416362368 -0.000203235026169695 0.000483630788576286 8.04731958678435e-06 0.00061513896744345 7.30326348846376e-05
"9" 0.000272792881075333 -0.000159244153396291 1.74577378860692e-05 0.000153653705529216 -0.000131784683076995 -0.000224823167343475 -0.000164293514026643 -0.000330179840813978 0.00010060273483894 0.000129255340904664 0.000346641699814151 -0.000200293406021299 0.000494054558754707 1.67748993103133e-05 0.000625698095329136 8.82664679238679e-05
"10" 0.000275718892467377 -0.000149173133637992 2.25518201696845e-05 0.000166053753590188 -0.000129674688473307 -0.0002216704619196 -0.000158455088434489 -0.000328923894756282 0.000116540699085997 0.000142942916161566 0.000358968845523758 -0.000196929773311587 0.000503922793257481 2.55077872991011e-05 0.000634510800479395 0.000102715616695144
"11" 0.000278129999310316 -0.000138724159846372 2.69743221636787e-05 0.000178074650631067 -0.000127734181146896 -0.000218450632482717 -0.000152525196353886 -0.000327659119122503 0.00013204171089039 0.000156699062785481 0.000370712967624138 -0.000193123879919498 0.000513203408873239 3.42197775851334e-05 0.000641600097863132 0.000116316368746776
"12" 0.000280019087851788 -0.000128003713396045 3.07275280945264e-05 0.000189710243490108 -0.000125961731487069 -0.000215208526667841 -0.000146525648444121 -0.000326433565054941 0.000147058629170745 0.000170488921075943 0.00038181140505759 -0.000188862823223845 0.000521880194154235 4.28759671027935e-05 0.000647013686017844 0.000129010742871271
"13" 0.000281389115360368 -0.00011710167517843 3.38190737879188e-05 0.000200962358109299 -0.000124355529476378 -0.000211991344196506 -0.00014046803069579 -0.000325297766605696 0.000161536985784729 0.00018428750084579 0.000392216308544157 -0.000184129167401172 0.000529936334632276 5.14521087026028e-05 0.000650799292745799 0.000140751045386159
"14" 0.00028224168591295 -0.000106124376881907 3.62604289959428e-05 0.000211832443158028 -0.000122915045916633 -0.00020884516338872 -0.000134372827606079 -0.000324297168786953 0.000175438243315649 0.00019806152117907 0.000401879395551535 -0.000178919789383881 0.000537360522038897 5.99225996988917e-05 0.000653022836463114 0.000151493982799685
"15" 0.000282581444381915 -9.51595403019749e-05 3.80630808919372e-05 0.000222325451732297 -0.00012163415406759 -0.000205813511504131 -0.000128248048518215 -0.000323481030737244 0.000188720282053999 0.000211773113613083 0.000410753502272959 -0.000173230526303996 0.000544148129556445 6.82593511500179e-05 0.000653759137924713 0.000161206640651298
"16" 0.000282420546294683 -8.42961710000421e-05 3.92518407764637e-05 0.000232443742288199 -0.000120505307653799 -0.000202935908413474 -0.000122103105731011 -0.000322894161579909 0.000201353270626495 0.000225387789211445 0.000418809486638883 -0.000167064424593044 0.000550301775508009 7.64397807548587e-05 0.00065308606758644 0.000169864635016591
"17" 0.000281776592374951 -7.36171869018863e-05 3.98535174563015e-05 0.000242196491215607 -0.000119520736615894 -0.000200256302461931 -0.000115950629299214 -0.000322578269171536 0.000213306198180421 0.000238862257957296 0.000426011923696769 -0.000160433119228319 0.000555832009543893 8.44447328729169e-05 0.000651098408007592 0.000177447615650128
"18" 0.000280660002525682 -6.32006910672628e-05 3.9891000073309e-05 0.000251588117748193 -0.000118670725714256 -0.000197806333347559 -0.000109794327315474 -0.000322572591128704 0.000224559994007522 0.000252157980396544 0.00043233825632455 -0.000153342968088097 0.00056074128386054 9.22493425030148e-05 0.000647883603793646 0.000183949307299013
"19" 0.000279094129625668 -5.31143451649996e-05 3.94023016228722e-05 0.00026063077891333 -0.0001179448050487 -0.000195619180715482 -0.000103640315584914 -0.000322908283062562 0.000235093713187565 0.000265228934865072 0.000437770597054185 -0.000145816123286429 0.000565047270878046 9.98388861259264e-05 0.000643545553972518 0.000189369992191298
"20" 0.00027709020875306 -4.34231945970331e-05 3.84180167411395e-05 0.000269329092528626 -0.000117331228330263 -0.000193724385990961 -9.74965384497423e-05 -0.000323620178896404 0.000244895252107473 0.000278026019687154 0.000442288809396259 -0.000137877914046291 0.000568763446613032 0.000107190773657796 0.000638178307591562 0.000193713531266139
"21" 0.000274686302253496 -3.41757434704165e-05 3.69837620885062e-05 0.000277689934719871 -0.00011681227374866 -0.000192143812684354 -9.13558531473505e-05 -0.000324726923384233 0.000253957368301255 0.000290506612820339 0.000445895743692333 -0.00012955109500823 0.000571914485987941 0.000114294969737933 0.000631895931582789 0.000196997766586342
"22" 0.000271890573906073 -2.54223572642661e-05 3.51309808094625e-05 0.000285721258170797 -0.000116380103296943 -0.000190895958207708 -8.52320359894153e-05 -0.000326250248729089 0.000262276124152459 0.000302614415557304 0.000448579695668572 -0.000120872411620446 0.000574518675469148 0.000121131603405265 0.000624790356098553 0.000199240926116149
"23" 0.000268736168312954 -1.71978207819295e-05 3.29068314687139e-05 0.000293426347109517 -0.000116013860036362 -0.000189992379940971 -7.91208414778152e-05 -0.000328204893063327 0.000269845862501745 0.000314302072330962 0.00045034532025841 -0.000111879519697325 0.000576596573012003 0.000127687745799327 0.000616965016747878 0.000200472943210575
"24" 0.000265246129789522 -9.53232996906601e-06 3.03562453783653e-05 0.000300810188418372 -0.000115698335233184 -0.000189439172560079 -7.30219959262846e-05 -0.000330594917067374 0.000276676342461752 0.000325517590057007 0.000451201763646453 -0.000102605172450483 0.000578172184991528 0.000133951863644093 0.0006085189975742 0.000200730395621083
"25" 0.000261448668113767 -2.43816325358638e-06 2.75199977773374e-05 0.000307869876627313 -0.000115416999510225 -0.000189243217710503 -6.69341430985429e-05 -0.000333421305283572 0.00028277081975766 0.000336211832719071 0.000451162276708918 -9.30969623949009e-05 0.000579267623834348 0.000139911211195332 0.00059954917691638 0.000200050628483803
"26" 0.000257368866677956 4.07209125523135e-06 2.44469822733725e-05 0.000314606660427136 -0.000115152675584752 -0.00018939222842304 -6.08647289605284e-05 -0.000336681595647152 0.000288138955768828 0.000346330530122593 0.000450237504854779 -8.33992300524769e-05 0.000579899938337946 0.000145557802761399 0.000590139805027556 0.000198478152218102
"27" 0.000253027651397378 9.9996702431808e-06 2.11769928437104e-05 0.000321013877998557 -0.000114888471522348 -0.000189876913252722 -5.48090295601921e-05 -0.00034035949770418 0.000292790132827658 0.000355829290408146 0.000448450680576761 -7.35581493188565e-05 0.000580091566136382 0.000150878066037135 0.000580374993261037 0.000196063063604101
"28" 0.000248451619269254 1.53499840155671e-05 1.77577438967813e-05 0.000327082320513197 -0.00011460487194014 -0.000190684723835735 -4.87690277357408e-05 -0.000344437898954349 0.000296734122685218 0.000364654360230602 0.000445820498427401 -6.36232997635312e-05 0.000579856701843757 0.000155865828372503 0.000570327737369538 0.000192858434548709
"29" 0.000243669711216177 2.01456288121636e-05 1.42330916386685e-05 0.000332803291135331 -0.000114285501727363 -0.000191785619435106 -4.27496210245507e-05 -0.000348892109511984 0.000299990664431818 0.000372764826661829 0.000442375713727791 -5.36357999100735e-05 0.000579211981436205 0.000160509893813065 0.000560065961391039 0.000188918251827849
"30" 0.000238697349178747 2.44100667883436e-05 1.06439978286921e-05 0.000338159890102946 -0.000113908154645626 -0.0001931589936249 -3.67438861605621e-05 -0.000353687112728343 0.000302574422118503 0.000380115142341947 0.000438143274664301 -4.36494767823261e-05 0.000578173387942973 0.000164809451001134 0.000549656560418177 0.000184301193171871
"31" 0.000233560665554273 2.81744306502912e-05 7.03749415886632e-06 0.000343135043018417 -0.00011345717879511 -0.000194761943175204 -3.07634667831918e-05 -0.000358789786351398 0.000304498054212825 0.000386671329929391 0.00043315427744165 -3.37056898097004e-05 0.000576739095852516 0.000168753107921901 0.000539139909450809 0.000179068595994183
"32" 0.000228277745755399 3.14842418196546e-05 3.44667803106241e-06 0.000347707322883855 -0.000112911852698339 -0.000196562192503578 -2.4809688459921e-05 -0.00036415431977735 0.000305778503870236 0.000392396372975606 0.000427440654819105 -2.38524222453382e-05 0.000574920801754066 0.000172336998342139 0.000528559930989614 0.000173277170779825
"33" 0.000222867093684215 3.43786499423978e-05 -8.77585472354475e-08 0.000351848111607574 -0.000112258864681137 -0.000198510971590625 -1.888943239175e-05 -0.000369736429006331 0.000306430626077997 0.000397261603299405 0.000421033204784609 -1.41264876423599e-05 0.000572716852326024 0.000175555727126681 0.000517945803243587 0.00016698747293788
"34" 0.000217338830222374 3.69112911342756e-05 -3.52519226232149e-06 0.0003555327255622 -0.000111475836037427 -0.000200560725976807 -1.30078894917163e-05 -0.000375479662079059 0.000306471043126333 0.000401241286510622 0.000413966424008426 -4.56811453069889e-06 0.0005701218434029 0.000178407457002257 0.000507319785527786 0.000160257340850558
"35" 0.000211717610689265 3.91408197399339e-05 -6.84312010027206e-06 0.00035872498018792 -0.00011055233592214 -0.000202658782483831 -7.1746846452633e-06 -0.000381330631194744 0.000305910043468312 0.000404320822233288 0.00040627315570823 4.78999485508e-06 0.000567128347416457 0.000180886122155289 0.0004966879780737 0.000153146250494575
"36" 0.000206001961267244 4.11217827705902e-05 -1.00005801252311e-05 0.00036138966645752 -0.000109465911080286 -0.000204748265716775 -1.39956266284111e-06 -0.000387231600459163 0.000304764707655839 0.000406484280072872 0.000397988313313169 1.39155384128952e-05 0.000563723435770468 0.000182987369476878 0.000486048079605832 0.000145709321647678
"37" 0.000200210738390545 4.29181487942632e-05 -1.29739680399903e-05 0.000363494346566655 -0.000108208312052954 -0.000206772885812076 4.30406838882017e-06 -0.000393120619085567 0.000303043323761889 0.000407729042954782 0.000389147264202779 2.27863952788689e-05 0.000559888041218239 0.000184713328417225 0.000475396063749719 0.000138000860959905
"38" 0.000194346177761485 4.45950046113893e-05 -1.5740220530762e-05 0.000364993994376418 -0.000106760765868306 -0.00020866807297583 9.92747578217191e-06 -0.000398933735699333 0.00030075885374427 0.000408056730567242 0.000379780708697257 3.13821499805828e-05 0.000555602983014646 0.000186060045749009 0.00046470729381499 0.000130070286430901
"39" 0.000188409264407439 4.62139238839612e-05 -1.82719625751991e-05 0.000365846119865968 -0.000105109117875345 -0.000210372486093471 1.54492980803147e-05 -0.000404607162237179 0.000297918161187401 0.000407476113405912 0.000369920475089338 3.96856556651885e-05 0.000550844017793627 0.000187024852612641 0.000453951815145837 0.000121963183918472
"40" 0.000182411059670696 4.78419788329265e-05 -2.05546027130511e-05 0.000366013306866489 -0.000103245742125779 -0.000211823243944347 2.08561941497768e-05 -0.000410078899432066 0.000294530661707276 0.000406000219681531 0.000359601560381844 4.76912758419106e-05 0.000545580768492853 0.000187610565887633 0.000443090007846814 0.000113726982652324
"41" 0.000176336940778633 4.95369253455528e-05 -2.25693694310559e-05 0.000365448330831589 -0.000101159990620042 -0.00021295506507418 2.61289354395881e-05 -0.000415279582367112 0.000290595525332253 0.000403655273549666 0.000348845535738881 5.53966438909996e-05 0.000539778045000546 0.000187812070818485 0.000432074511082106 0.000105394232408799
"42" 0.000170188153904117 5.13665469163683e-05 -2.43024346635696e-05 0.000364105908494738 -9.88422454580124e-05 -0.000213703278162557 3.12480671515247e-05 -0.000420151383738553 0.000286121831816054 0.000400468976429019 0.000337685956960455 6.27997546993282e-05 0.000533399962310599 0.000187631601123635 0.000420848418161334 9.70016776563098e-05
"43" 0.00016396326866526 5.33869372896159e-05 -2.57456429857469e-05 0.000361947451932581 -9.62824944175389e-05 -0.00021400695494855 3.61903474229371e-05 -0.000424634565960847 0.000281108730908708 0.000396476485324387 0.000326148984668212 6.99125233491845e-05 0.000526413460144961 0.000187071605583099 0.000409352570166696 8.8582958642173e-05
"44" 0.000157646230583954 5.56505805601051e-05 -2.68900643702083e-05 0.000358926468983447 -9.34797728357637e-05 -0.000213806906662175 4.09336055779777e-05 -0.000428665489565267 0.000275553894020756 0.000391721400439958 0.000314255220258069 7.67468951590536e-05 0.000518772812730735 0.000186131754064653 0.000397517585073235 8.01545018475938e-05
"45" 0.000151228898980269 5.8210804115094e-05 -2.77343980354719e-05 0.000355006907421335 -9.04267413467216e-05 -0.000213042905742592 4.54547657846954e-05 -0.000432190298987582 0.000269457307814508 0.000386254446394501 0.000302026837278542 8.33261154603865e-05 0.000510440572717824 0.000184812663629247 0.000385270277661213 7.1741123617171e-05
"46" 0.000144694867803072 6.11126991948277e-05 -2.82764679727645e-05 0.000350148120856756 -8.71232886706525e-05 -0.000211660748285194 4.97304521701883e-05 -0.000435160154974282 0.00026281638790778 0.000380129038186989 0.000289484861991519 8.9666887741048e-05 0.000501371485485038 0.000183115787431772 0.000372536201927007 6.33542523637995e-05
"47" 0.000138027425777404 6.43930079875479e-05 -2.85190927293972e-05 0.000344315316954884 -8.35663316944286e-05 -0.000209607821812607 5.3728247707995e-05 -0.000437532586241959 0.000255622657317071 0.00037340326467008 0.000276645577458548 9.58026898846366e-05 0.000491520350583679 0.000181040443751809 0.000359230872803734 5.50019917504192e-05
"48" 0.00013121194937307 6.80880819896355e-05 -2.84641805947423e-05 0.000337480726037459 -7.97583424279385e-05 -0.000206840869793001 5.74288805350173e-05 -0.000439257551603098 0.000247878861508669 0.000366141106183458 0.000263526200484048 0.000101762202891587 0.000480848249023121 0.000178593116414614 0.000345276815513853 4.66887165156111e-05
"49" 0.000124227028711262 7.22261112304082e-05 -2.81223482389138e-05 0.000329619515277771 -7.57011036402114e-05 -0.00020331536668568 6.08045655874391e-05 -0.000440301512160877 0.000239570950943139 0.0003584095696817 0.000250138265131179 0.000107579060603686 0.000469318546129962 0.000175772082990722 0.000330594674339134 3.84167959959158e-05
"50" 0.000117051260587884 7.68243199851225e-05 -2.7502305879453e-05 0.000320708704074469 -7.1401552991488e-05 -0.000198995510362557 6.3827721538013e-05 -0.000440636226383771 0.000230697041593162 0.000350281217105916 0.000236494717035007 0.000113295109084731 0.000456889108792813 0.000172581801324776 0.000315105854447323 3.01751787146546e-05
"51" 0.000109666772722982 8.18947222147713e-05 -2.66186040222827e-05 0.00031073729071024 -6.6863742261455e-05 -0.000193854265049186 6.64703295814226e-05 -0.000440231661298903 0.000221250008756876 0.000341823039074745 0.000222604518532782 0.000118942859232841 0.00044353170194216 0.000169025966808177 0.000298737182975225 2.19589105222642e-05
"52" 0.000102045516383466 8.7444408154512e-05 -2.5483357783417e-05 0.00029969393275551 -6.21019317274515e-05 -0.000187864911835066 6.87107991273904e-05 -0.000439074240245476 0.000211223563187807 0.000333111340746417 0.000208477863206134 0.000124565091381571 0.000429209065458301 0.000165103800567775 0.000281412158491973 1.37502832143102e-05
"53" 9.4170632320131e-05 9.34689820936862e-05 -2.41142618870116e-05 0.000287582209877132 -5.71229665922872e-05 -0.000181008893692708 7.05211595690201e-05 -0.000437149840345357 0.000200610554837801 0.000324220656684524 0.000194119002600015 0.000130201130262734 0.000413900116282893 0.00016082143207248 0.00026307044756335 5.53267440775258e-06
"54" 8.60175132582378e-05 9.99604477161819e-05 -2.25337350180725e-05 0.000274406487003057 -5.19383240751598e-05 -0.000173281638004345 7.18841297428775e-05 -0.000434450320679238 0.000189408214415649 0.000315223394966922 0.000179539405504201 0.000135890906501262 0.000397589137066345 0.000156179865198116 0.000243651170423122 -2.71171853082004e-06
"55" 7.75624128579062e-05 0.000106898985021683 -2.07610040823773e-05 0.000260181607933065 -4.65640812557232e-05 -0.000164676159578078 7.27710427554524e-05 -0.00043097982513489 0.000177614527976107 0.000306192054270959 0.000164740593438695 0.000141671658947412 0.000380257443816389 0.000151182257117905 0.000223108379474299 -1.10130003535006e-05
"56" 6.87924931890312e-05 0.000114260138397442 -1.88147913091513e-05 0.000244932360665698 -4.10141793381738e-05 -0.000155199310977254 7.31690182316875e-05 -0.000426740231220959 0.000165226479587791 0.000297197057667231 0.000149733206203148 0.000147577995106625 0.000361908612487394 0.000145836238053387 0.000201406602840688 -1.93897086259869e-05
"57" 5.96787241379797e-05 0.000122012330319224 -1.6731144177714e-05 0.000228686123682444 -3.53102327405706e-05 -0.000144865130008318 7.30551161422209e-05 -0.000421753306898938 0.000152243952914963 0.000288304244240783 0.000134516950819687 0.000153644005798375 0.00034253358364527 0.000140142107322295 0.000178507211934231 -2.78746524016721e-05
"58" 5.02196126295822e-05 0.000130115861273247 -1.45254123973161e-05 0.000211487061345533 -2.94681918676265e-05 -0.000133690733476826 7.2416592617035e-05 -0.000416032854414238 0.000138671687674374 0.000279577388532016 0.000119102316481703 0.000159896869036903 0.000322154460692991 0.00013410537116121 0.000154403097632434 -3.64914195187647e-05
"59" 4.03868908455404e-05 0.000138525972004703 -1.22273243490872e-05 0.000193378417007664 -2.35062802997496e-05 -0.000121706944294999 7.12462742302625e-05 -0.000409606460097258 0.000124516883186596 0.000271078868704918 0.000103495764504541 0.000166362958196297 0.000300786976423519 0.000127731312881915 0.000129088381253709 -4.52699677312069e-05
"60" 3.01792026604142e-05 0.000147192309746682 -9.87094495936205e-06 0.000174417530653407 -1.74511286744835e-05 -0.000108946084760548 6.9528490856161e-05 -0.000402508710934703 0.000109782941255015 0.000262862248652861 8.77014020922012e-05 0.000173060624965604 0.000278454443389018 0.000121023738118054 0.000102570455375713 -5.42426283519771e-05
"61" 1.95932184634601e-05 0.000156058792198029 -7.47947177531791e-06 0.000154667656070127 -1.13202286353221e-05 -9.54501458221838e-05 6.72611612719155e-05 -0.000394776320242797 9.44865467653999e-05 0.000254974931692715 7.17355838854654e-05 0.000180004033783175 0.000255202051244624 0.00011398912885378 7.48775327459121e-05 -6.34326768685039e-05
"62" 8.61517512218027e-06 0.000165065213776308 -5.0818451661227e-06 0.000134201467438542 -5.14102381110442e-06 -8.12700688660298e-05 6.44429359447449e-05 -0.000386449034338459 7.86407251655474e-05 0.000247464053180765 5.5603922645142e-05 0.000187202229304095 0.000231073566765707 0.000106634560161484 4.60438600245374e-05 -7.28695257480525e-05
"63" -2.746625889576e-06 0.000174147846760662 -2.71534580551475e-06 0.000113093188654159 1.06307795608735e-06 -6.64622938632523e-05 6.10732747123649e-05 -0.000377577359069462 6.22631261021514e-05 0.0002403643718003 3.93166118158674e-05 0.000194656918138436 0.000206124341944535 9.89673398368713e-05 1.61184526660016e-05 -8.25767220276813e-05
"64" -1.44908525951651e-05 0.000183236428158545 -4.03731283144567e-07 9.14296865781029e-05 7.26675443547993e-06 -5.10870870413613e-05 5.7157666838607e-05 -0.000368211351824106 4.53773499036069e-05 0.000233707822684105 2.28897686203897e-05 0.000202363442446727 0.000180411516044448 9.09905407763064e-05 -1.48375434667447e-05 -9.25819124916952e-05
"65" -2.66018740148566e-05 0.0001922671779064 1.81726101271249e-06 6.93003738701417e-05 1.34471717642163e-05 -3.52095389507475e-05 5.27034346824892e-05 -0.000358408128130581 2.80069839076003e-05 0.000227517160753003 6.34214557325472e-06 0.000210307964592375 0.000154013894430742 8.27175821018585e-05 -4.67413352183376e-05 -0.000102902588897395
"66" -3.90657154338965e-05 0.000201165527604439 3.9230188180282e-06 4.68008566745867e-05 1.95767314504047e-05 -1.89056667326993e-05 4.77274402982187e-05 -0.000348219698972625 1.0183697091127e-05 0.000221810341049689 -1.03121937311213e-05 0.000218477866247643 0.000127008054101552 7.41569865065288e-05 -7.95041015381414e-05 -0.000113557514453183
"67" -5.18674130953486e-05 0.000209859791742528 5.87907432710424e-06 2.40283778930602e-05 2.5625716766001e-05 -2.24786613636006e-06 4.22388775424885e-05 -0.000337715852998749 -8.060204679041e-06 0.000216599232019321 -2.70498661724709e-05 0.000226846770745309 9.94765959779494e-05 6.53151394337194e-05 -0.000113035192127962 -0.000124560931913737
"68" -6.49743158259608e-05 0.000218285260657514 7.65924094364068e-06 1.0872065904959e-06 3.15769762045406e-05 1.46795674918754e-05 3.62632043373498e-05 -0.000326947065785454 -2.66896180696875e-05 0.00021188666556989 -4.38500177484724e-05 0.000235382799138948 7.1511861904302e-05 5.62051236295204e-05 -0.000147218548869427 -0.000135924609444891
"69" -7.83663116023331e-05 0.000226368443376609 9.23252122824896e-06 -2.19178945458169e-05 3.73953623103503e-05 3.17973448319736e-05 2.981993697839e-05 -0.000315989509772721 -4.56629072932029e-05 0.00020766753741647 -6.06898861955444e-05 0.000244050230723675 4.32055902438417e-05 4.68367810967768e-05 -0.00018193709936499 -0.00014765802952966
"70" -9.20022624296781e-05 0.000234044163640439 1.05739575483532e-05 -4.48790487155081e-05 4.30659403116341e-05 4.90183737849063e-05 2.29368312763261e-05 -0.000304897068332155 -6.49373502535824e-05 0.000203934891081585 -7.75380567772863e-05 0.000252805388334365 1.46627718405018e-05 3.72271347850179e-05 -0.000217066924999383 -0.000159764108386958
"71" -0.000105844192548668 0.000241248414509775 1.16539579640886e-05 -6.76903236297439e-05 4.8558022818725e-05 6.62583529956792e-05 1.56395039384037e-05 -0.000293739188846889 -8.44666865521776e-05 0.000200672950738461 -9.43728970338471e-05 0.00026159677186254 -1.40195982271952e-05 2.73874374831921e-05 -0.000252475506625989 -0.000172243316407202
"72" -0.000119853366310106 0.000247921159105791 1.24520941434236e-05 -9.0246196772721e-05 5.38526385406583e-05 8.34267249636643e-05 7.96246472580702e-06 -0.000282575440029342 -0.000104203497522181 0.000197858571665848 -0.000111161425580338 0.000270376321594219 -4.27347997220511e-05 1.7330569919839e-05 -0.000288034355801439 -0.000185090289417524
"73" -0.000133986016938026 0.000254006408450828 1.29440965324465e-05 -0.000112439087614484 5.89256141900834e-05 0.000100441220138323 -6.03997759170328e-08 -0.000271467171660085 -0.000124096646598905 0.000195465813975483 -0.000127874164473897 0.000279084716575514 -7.13834476103376e-05 7.07428458160122e-06 -0.000323597089243117 -0.000198299930880683
"74" -0.000148186672198271 0.000259454443088524 1.31066968428476e-05 -0.000134166405344826 6.37584192187964e-05 0.000117212476382923 -8.39287146689054e-06 -0.000260475837074976 -0.00014408865923671 0.000193462194572299 -0.000144477110895052 0.000287657915918641 -9.98579580415785e-05 -3.36637691364014e-06 -0.000359029421030848 -0.000211859329074604
"75" -0.000162403404560514 0.000264224073770115 1.29225279567339e-05 -0.00015532798272891 6.83315231330269e-05 0.000133656051006258 -1.69933574404231e-05 -0.000249653705893931 -0.000164127192780662 0.000191814345839427 -0.000160938692842492 0.000296037126566607 -0.000128058595866508 -1.39700759624177e-05 -0.000394192524036319 -0.000225754909201098
"76" -0.00017658707121981 0.000268277356911445 1.23751546708044e-05 -0.000175827962064671 7.26270854722106e-05 0.000149693982805399 -2.58262697637909e-05 -0.00023905498455323 -0.000184156101689313 0.000190483907436378 -0.000177224092433223 0.000304157335057825 -0.000155886892698549 -2.47180384616784e-05 -0.000428951000549568 -0.000239966018108479
"77" -0.000190676709615091 0.000271577982792866 1.14476197637362e-05 -0.000195573988293144 7.66281937192843e-05 0.000165245899281814 -3.4849031290713e-05 -0.000228733546990945 -0.000204116958529985 0.000189423913898438 -0.000193303107334803 0.000311945763334574 -0.000183247426178654 -3.5597606060154e-05 -0.00046317370666804 -0.000254475195278586
"78" -0.000204619206232937 0.00027411006501479 1.01267097583353e-05 -0.00021448245572785 8.03288798602266e-05 0.000180237219483238 -4.40173253848883e-05 -0.000218728562991382 -0.000223945832041754 0.000188598681726553 -0.000209135900293042 0.000319343947437214 -0.000210045892867936 -4.65768234275078e-05 -0.000496725850373613 -0.00026925182979864
"79" -0.000218358317711396 0.000275848217298171 8.40557679967117e-06 -0.000232472743720894 8.37077960459762e-05 0.000194602660806715 -5.32924703500004e-05 -0.000209083425295276 -0.000243591221198839 0.000187956833427512 -0.000224693723407127 0.000326281701320413 -0.000236201160640266 -5.76410885460811e-05 -0.000529485995438645 -0.000284273016038054
"80" -0.00023182627701445 0.000276792990619901 6.27365738001553e-06 -0.000249470142379602 8.67644023931509e-05 0.000208275129680223 -6.26245354958296e-05 -0.000199831881065929 -0.000262985474019823 0.000187458996964323 -0.00023994032902348 0.000332702353644024 -0.000261630274642215 -6.87665141980662e-05 -0.000561339897433196 -0.000299502732607955
"81" -0.000244972792662422 0.000276937662087036 3.72628463453856e-06 -0.000265411261465066 8.94852470793422e-05 0.000221195762643325 -7.19763074269316e-05 -0.000191005813058273 -0.000282075167723721 0.000187055172915684 -0.000254841755292651 0.000338537248061616 -0.000286258584049691 -7.99247335544206e-05 -0.000592172671470977 -0.000314910931939501
"82" -0.000257734032705941 0.000276291251428437 7.60607102522251e-07 -0.0002802382432471 9.18723725214069e-05 0.000233313597848447 -8.12967392022944e-05 -0.000182628948115482 -0.000300797218086213 0.000186707370239789 -0.000269369226448227 0.000343738035794549 -0.000310019123384773 -9.10975598714232e-05 -0.000621885491094956 -0.000330460761373453
"83" -0.000270056737534368 0.000274868464200333 -2.62229601756913e-06 -0.00029389795021521 9.39234562067802e-05 0.000244585407954559 -9.05492509786817e-05 -0.000174721013642808 -0.000319092842732948 0.000186368650960424 -0.000283484912526698 0.000348253942112921 -0.000332849793827235 -0.000102254022764015 -0.000650377973757687 -0.000346113660630848
"84" -0.000281885805416845 0.000272687822087121 -6.42157848955597e-06 -0.000306352210352312 9.56343146487515e-05 0.000254970212767805 -9.96866336595515e-05 -0.000167297542629317 -0.000336908446306135 0.000186000946177902 -0.000297163081187766 0.00035203599834223 -0.000354699474993987 -0.000113370489056539 -0.000677570678674625 -0.000361831741971497
"85" -0.000293168227859966 0.000269778245306758 -1.06316503998463e-05 -0.000317564680647473 9.70106311600092e-05 0.000264441307295769 -0.000108672711594898 -0.000160368896729363 -0.000354188295703656 0.000185570523098592 -0.000310373060251395 0.000355048801973635 -0.000375524151934329 -0.000124419577284665 -0.000703384493041166 -0.000377571156273418
"86" -0.000303850960953245 0.00026617122226539 -1.5246051901888e-05 -0.000327512602970513 9.80574662782797e-05 0.000272972301704961 -0.00011746344879487 -0.000153933261627893 -0.000370876317258024 0.000185041363237092 -0.000323084228430701 0.000357260889032085 -0.000395283163742221 -0.000135375286295876 -0.00072774560587916 -0.000393290141019285
"87" -0.000313889439827811 0.000261910255687782 -2.02507970264353e-05 -0.000336178815396985 9.87818274647826e-05 0.000280547617985658 -0.000126017637233607 -0.000147992567212038 -0.000386921457664179 0.000184388436997306 -0.000335273794701844 0.000358647559693772 -0.000413944092981833 -0.00014621252598118 -0.000750599189031052 -0.000408943842964233
"88" -0.000323236091403762 0.000257035211075221 -2.56422568635794e-05 -0.000343555220850682 9.9191417644779e-05 0.000287161419547417 -0.00013430285544066 -0.000142541642759462 -0.000402277582074318 0.000183587050934573 -0.000346912479556824 0.000359196054957388 -0.000431488745742226 -0.000156895754407881 -0.000771893180235177 -0.00042449029511337
"89" -0.000331850917545884 0.000251600595992874 -3.13984025206082e-05 -0.000349643478751479 9.93038216189779e-05 0.000292808811533696 -0.000142279622411847 -0.000137565738690393 -0.000416897740163451 0.000182619234280291 -0.000357976415234516 0.000358898672775925 -0.000447894160047841 -0.000167407056400551 -0.000791579989055416 -0.000439877448794913
"90" -0.000339695509557335 0.000245656748935006 -3.75029010952848e-05 -0.000354451062679747 9.91264230350677e-05 0.000297500809865826 -0.000149912980145427 -0.000133050798835757 -0.000430735226855586 0.000181473114288483 -0.000368439809941538 0.00035775929582394 -0.000463149454491909 -0.000177707606511491 -0.000809619508762511 -0.00045506166889
"91" -0.000346732936131137 0.000239257448686818 -4.39394104893349e-05 -0.000357993282593305 9.86809894268482e-05 0.000301246689459319 -0.000157173298401415 -0.000128977361117851 -0.000443754433600017 0.000180140809203886 -0.000378283505754175 0.000355790068395836 -0.000477249612302626 -0.000187773357407401 -0.000825988717891735 -0.000469995367073144
"92" -0.00035293345831265 0.00023246423381941 -5.06831527701284e-05 -0.000360295737822752 9.7977879946183e-05 0.000304070466586533 -0.000164027454017243 -0.000125325975456123 -0.000455911738790971 0.000178620976633775 -0.00038748160313488 0.000353011585492783 -0.000490198809405097 -0.000197580144751588 -0.000840657115745909 -0.000484628492114265
"93" -0.000358272143752545 0.0002253337408239 -5.77173846297209e-05 -0.000361390430767939 9.70403852244487e-05 0.000305998341950469 -0.000170446572050326 -0.000122069581077569 -0.000467179916988374 0.000176918941486712 -0.00039601825934607 0.00034945276132303 -0.000501998573322608 -0.000207092505209269 -0.000853612773200565 -0.000498914206248772
"94" -0.00036273160780858 0.000217929244940444 -6.50123041241893e-05 -0.000361316653798355 9.58926995995314e-05 0.000307060900000319 -0.000176404612275658 -0.000119178098103821 -0.000477525494711386 0.000175048329980447 -0.000403873235307029 0.000345154806408477 -0.000512657731696852 -0.000216286176072072 -0.000864839085322295 -0.000512805613527939
"95" -0.000366283238384838 0.000210309937544273 -7.253942541813e-05 -0.000360116797615742 9.45514769352004e-05 0.000307298972539644 -0.000181875521245101 -0.000116622806307334 -0.000486922055691 0.000173024368132264 -0.000411022692236061 0.000340166650430251 -0.000522190671216574 -0.000225130656783812 -0.000874331050559219 -0.000526248803964786
"96" -0.000368919783075221 0.000202534430699966 -8.0274764638465e-05 -0.000357843767505361 9.30378374491843e-05 0.000306754931740019 -0.000186841187884232 -0.000114377474776753 -0.000495348930483892 0.000170869451324739 -0.000417454548732712 0.00033454284316431 -0.000530618509820593 -0.000233597157319018 -0.000882085464954722 -0.000539199282482687
"97" -0.000370635230357933 0.000194661844289562 -8.81858958204185e-05 -0.000354549357844834 9.13788003132231e-05 0.00030547594591404 -0.000191278319619743 -0.000112407006671987 -0.000502781717960039 0.000168610280604533 -0.000423148451489258 0.000328344192253249 -0.000537955441619802 -0.000241661528738192 -0.000888102217937985 -0.000551610422318449
"98" -0.000371418638757058 0.000186751104273217 -9.62415189079802e-05 -0.000350301205830649 8.95990155759714e-05 0.000303517015741662 -0.000195165048451377 -0.000110675065295072 -0.000509206049086848 0.000166279509730362 -0.000428089394623116 0.0003216423950698 -0.000544226131733366 -0.000249289412621592 -0.000892388304177726 -0.000563429679920536
"99" -0.000371277119166356 0.000178848873058363 -0.000104410386836882 -0.000345162839310101 8.77213431447303e-05 0.000300929248972256 -0.000198494837144857 -0.000109153998803009 -0.000514612760443655 0.000163914097329931 -0.000432263977710367 0.000314512129446156 -0.000549457631528571 -0.000256459936878675 -0.000894949187773486 -0.000574613727749048
"100" -0.000370212867689856 0.000171010057867653 -0.000112656658382643 -0.000339203321339701 8.57693664018961e-05 0.000297773731103101 -0.000201248191617178 -0.000107813732028736 -0.000518992361276176 0.000161557986245726 -0.000435654959901622 0.000307036900631009 -0.00055367271828545 -0.00026314700037768 -0.000895801972136769 -0.000585116651376938
"101" -0.000368236859382525 0.00016327828250809 -0.000120942155306778 -0.000332497313032231 8.37691144954308e-05 0.000294109156594685 -0.000203413511861133 -0.000106618020438728 -0.000522338047051532 0.000159251069616465 -0.000438249366051147 0.000299299200626759 -0.000556897158953542 -0.000269316345568401 -0.000894951498247049 -0.000594889834248758
"102" -0.000365367778009986 0.00015569707485694 -0.000129239493854688 -0.000325122437866976 8.17445761707097e-05 0.00028999631571484 -0.000204981779910514 -0.000105542101923809 -0.000524654878105924 0.000157041222397973 -0.000440036846897959 0.000291388127234659 -0.000559163662726039 -0.000274955046586361 -0.000892423670067518 -0.000603895326147228
"103" -0.00036162108580946 0.000148302569243316 -0.000137504738825494 -0.000317154574421654 7.97236670320763e-05 0.000285502381214216 -0.000205947781722241 -0.000104555431449719 -0.000525940032604966 0.000154981022671034 -0.000441004374154996 0.00028339622948279 -0.000560495681451582 -0.000280029174304983 -0.0008882273264375 -0.000612084546057627
"104" -0.000357027441607687 0.000141126919943121 -0.000145703838642761 -0.000308677147218758 7.77242452094505e-05 0.000280685168033813 -0.000206309397347283 -0.000103632209206657 -0.000526203268059334 0.000153114454260011 -0.000441142628797107 0.00027541210982342 -0.000560924806008459 -0.000284521956984963 -0.000882389039703611 -0.000619422141676449
"105" -0.000351615339852636 0.000134196428642401 -0.000153798315565911 -0.000299770375047 7.57737351392952e-05 0.000275610040396588 -0.000206060443725314 -0.000102752015072962 -0.000525451849458203 0.000151498315699193 -0.000440441960808643 0.000267530122083448 -0.00056047709167081 -0.000288406974621739 -0.000874933261198127 -0.000625866956810961
"106" -0.000345421682475171 0.000127534426146457 -0.000161749394552064 -0.000290518196201676 7.38887492332335e-05 0.000270338595201373 -0.00020520317294885 -0.000101889591970513 -0.000523705104244848 0.000150177126990144 -0.000438898092738494 0.000259841360642011 -0.000559184248021606 -0.00029166553792233 -0.000865886551848078 -0.00063138512681559
"107" -0.000338486939107947 0.000121153356180211 -0.000169518866183546 -0.000281002007022215 7.20963905290266e-05 0.000264932985314215 -0.000203742222734847 -0.00010102963083656 -0.000520973274283079 0.000149207268004613 -0.000436502793332869 0.000252436904345386 -0.000557070718565588 -0.000294278324054405 -0.000855271642946854 -0.000635940469971129
"108" -0.000330855261275886 0.000115069166551454 -0.000177069867608557 -0.000271303695936506 7.0414405326042e-05 0.000259448648734344 -0.000201678147676674 -0.000100157283189335 -0.000517282430575302 0.0001486314102281 -0.000433254786051024 0.000245401592310293 -0.000554167123755952 -0.000296230483263618 -0.000843124617597646 -0.000639504045457599
"109" -0.000322576576837337 0.000109283535656725 -0.000184364722080631 -0.000261506010847269 6.88580094873908e-05 0.000253944569300158 -0.000199026357210743 -9.9256059044991e-05 -0.000512650485281136 0.000148498324066512 -0.00042915060641298 0.000238820207527144 -0.000550496173866474 -0.000297501486036504 -0.000829476480899355 -0.000642048016805949
"110" -0.000313708511912884 0.000103796856428336 -0.000191362465544073 -0.000251686123318544 6.744421868407e-05 0.00024847617221916 -0.000195790080249539 -9.83189199196553e-05 -0.00050710994201799 0.000148848145694249 -0.00042419313865156 0.000232769764095764 -0.000546085763789607 -0.000298078705238075 -0.000814365780248805 -0.000643546689200086
"111" -0.000304306517626009 9.86087002744637e-05 -0.00019803132531439 -0.000241922873020739 6.61949529364574e-05 0.000243088566534357 -0.00019198072476245 -9.73348808651442e-05 -0.00050068526838965 0.000149723186088864 -0.000418382600991527 0.000227329687270887 -0.000540961664170431 -0.00029795450037208 -0.000797829847864717 -0.000643978377907041
"112" -0.000294437876609423 9.37010410140421e-05 -0.00020433376505571 -0.000232290429601348 6.51135866154139e-05 0.000237833755960206 -0.000187621000436063 -9.6303978695059e-05 -0.0004934127976012 0.000151157135442838 -0.000411729538379905 0.000222559189923501 -0.00053515074636163 -0.000297115572224984 -0.000779915512968006 -0.000643331929224564
"113" -0.000284164396237925 8.90705251870604e-05 -0.00021023241521165 -0.000222860229681582 6.4222094628348e-05 0.000232753090068056 -0.000182719414144583 -9.52241845608766e-05 -0.000485322448378568 0.000153180218139954 -0.000404237952144367 0.000218525555357889 -0.000528673706376747 -0.000295556383194199 -0.000760664553349313 -0.000641587379219198
"114" -0.00027355795535091 8.46933910945263e-05 -0.000215697231739784 -0.000213699475877271 6.35231504545193e-05 0.000227886021872226 -0.000177294842241584 -9.40902694040845e-05 -0.000476452777010298 0.000155819786152185 -0.000395921706568303 0.000215279021801462 -0.000521553767596199 -0.000293270549144272 -0.000740130473374129 -0.000638738915905236
"115" -0.000262694025504328 8.05466675356757e-05 -0.000220696024211477 -0.000204869596322923 6.30303305065016e-05 0.000223266829496293 -0.000171377583956146 -9.29150214468156e-05 -0.000466846136347516 0.00015909170353982 -0.000386795064668363 0.000212864755159645 -0.000513817728365938 -0.000290265323287334 -0.000718368244659915 -0.000634782574092679
"116" -0.000251639701385773 7.66138453433621e-05 -0.000225195254094069 -0.000196431070513908 6.27467537337881e-05 0.000218923772619634 -0.000164978495957026 -9.16986971456384e-05 -0.000456539009450876 0.000163014564073547 -0.00037687289912029 0.000211323548637401 -0.000505486653738999 -0.000286531530220007 -0.000695429011326012 -0.000629717389153901
"117" -0.000240477752785063 7.28599780010405e-05 -0.000229169224954921 -0.000188440339658316 6.26787978418417e-05 0.000214887204798249 -0.000158136250187611 -9.04526841228243e-05 -0.000445578200663693 0.000167594016886702 -0.000366184254487021 0.000210683155721919 -0.000496586326749559 -0.000282084822747812 -0.00067138666152701 -0.000623555020608756
"118" -0.000229282249497699 6.92624703204223e-05 -0.00023259106388027 -0.000180941452222797 6.28296610445811e-05 0.000211176367329896 -0.000150865949612913 -8.91889469407842e-05 -0.00043400567487313 0.000172829025935768 -0.000354742380396235 0.000210959086041174 -0.000487134728808314 -0.000276922360326781 -0.000646300015640237 -0.000616295847506277
"119" -0.000218128740209362 6.57852322651518e-05 -0.000235437618108091 -0.000173978831098672 6.3200649373986e-05 0.000207803962210922 -0.000143202218794939 -8.7916991869711e-05 -0.000421870323039361 0.000178717173707279 -0.000342581478321007 0.000212165747485497 -0.000477157854606363 -0.000271059951576357 -0.000620236776588033 -0.000607962760528933
"120" -0.000207102185615576 6.24013297450581e-05 -0.000237685501709545 -0.000167593194921645 6.37877028605549e-05 0.000204783619824911 -0.000135176846742057 -8.66563586171687e-05 -0.000409213943852873 0.000185243090507757 -0.000329730867792647 0.000214302662708006 -0.000466679319259874 -0.000264515198680343 -0.000593276634752124 -0.000598574815707484
"121" -0.000196269538487614 5.90753960362404e-05 -0.000239316838519459 -0.000161809832505182 6.45952460951833e-05 0.000202123114460447 -0.000126818951741427 -8.54212371681328e-05 -0.000396086243254981 0.000192386885434912 -0.000316223583530401 0.00021736042635485 -0.00045572003163247 -0.000257300502186784 -0.00056549355159841 -0.000588154240415006
"122" -0.000185706705950525 5.57796864376377e-05 -0.00024031693264213 -0.000156657895003594 6.56142920363475e-05 0.000199824328236929 -0.000118162974679809 -8.42317761722336e-05 -0.000382539518395792 0.000200123464185427 -0.000302097872003148 0.000221326128648723 -0.000444304891203843 -0.000249440046713938 -0.000536974972033147 -0.000576734566441543
"123" -0.000175490533628192 5.24768417797633e-05 -0.00024067593516063 -0.000152152940030048 6.68396523613045e-05 0.000197885414065237 -0.000109249030534471 -8.31094699961358e-05 -0.00036861824878141 0.000208419200537911 -0.000287395338121065 0.000226167362082995 -0.000432463019798988 -0.000240961437362979 -0.00050780677463001 -0.000564352378391997
"124" -0.000165688709888819 4.91416805392001e-05 -0.000240377897742111 -0.000148312300626326 6.82656715809234e-05 0.000196295940858241 -0.000100113097628357 -8.20725943723668e-05 -0.000354376857650969 0.000217233519917696 -0.000272158660652043 0.000231852087009966 -0.000420213471886191 -0.000231885416805106 -0.00047807596226666 -0.00055104975522186
"125" -0.000156364583142015 4.57435209899389e-05 -0.000239424222603606 -0.000145139419827664 6.98826314013644e-05 0.000195049771634351 -9.07907209954612e-05 -8.11461865350825e-05 -0.000339861109608431 0.000226518527149018 -0.000256435719183211 0.000238334781695795 -0.000407589527462024 -0.000222252990054863 -0.000447882317394006 -0.000536870743417276
"126" -0.000147585952686477 4.22568491594088e-05 -0.000237806143213026 -0.000142636931656955 7.16834827872294e-05 0.000194129638097145 -8.13227260608315e-05 -8.03525425672992e-05 -0.000325123564023084 0.000236223764800227 -0.000240274806269828 0.000245564051378554 -0.000394614170352144 -0.000212089199567049 -0.000417314578420723 -0.000521866119347779
"127" -0.000139398280945886 3.86589554625837e-05 -0.000235525830435517 -0.000140797847330764 7.36569970548361e-05 0.000193517126165229 -7.17447655143586e-05 -7.9715466997787e-05 -0.000310208697094708 0.000246288729591866 -0.000223728494372316 0.000253479323120185 -0.000381318997401376 -0.000201434178084312 -0.000386477079996835 -0.000506090133528589
"128" -0.00013186592780834 3.49226225613521e-05 -0.00023259208640926 -0.000139615318300057 7.57866802050973e-05 0.000193192688710629 -6.21084077880378e-05 -7.92623599764391e-05 -0.000295174247719231 0.000256647750900125 -0.000206855526817555 0.000262015844501675 -0.000367738508001203 -0.000190332155666428 -0.00035547921751952 -0.000489610085576579
"129" -0.000125026047620893 3.10389485312131e-05 -0.000229006865449548 -0.000139074395343822 7.80669567445208e-05 0.000193130811162031 -5.24447459591589e-05 -7.90105119327423e-05 -0.000280056069574912 0.000267237818738548 -0.000189707967565944 0.000271097684298086 -0.000353898797717382 -0.00017882357520938 -0.000324416397257943 -0.000472481344577252
"130" -0.000118921622171572 2.69842628333464e-05 -0.000224783302778673 -0.000139149147656513 8.0479170153167e-05 0.00019330646283924 -4.28051040691335e-05 -7.89930910931425e-05 -0.000264911657922229 0.000277980781144441 -0.000172351468351974 0.000280650448151203 -0.000339840398523238 -0.000166952230968408 -0.000293398650792571 -0.000454776853056058
"131" -0.000113582115696684 2.27570207300432e-05 -0.00021993628088603 -0.00013981998568995 8.30141710868586e-05 0.000193690292552931 -3.32233433324497e-05 -7.92249717367288e-05 -0.000249782267199667 0.000288803313148438 -0.000154838766946581 0.000290585408983545 -0.000325593923174489 -0.000154767110903737 -0.000262534034936612 -0.000436566648728591
"132" -0.000109036194436188 1.83421424217076e-05 -0.000214485360259112 -0.000141057261431283 8.56482922900536e-05 0.000194251765477058 -2.37515461613436e-05 -7.97381682380099e-05 -0.000234716791048699 0.000299622218572755 -0.000137242043672663 0.000300817522755941 -0.000311202954339158 -0.000142319213836808 -0.000231934483382366 -0.000417927385428389
"133" -0.000105304539399861 1.374205748209e-05 -0.000208450925609601 -0.000142828454189447 8.8376401438015e-05 0.000194958604892421 -1.44263898028824e-05 -8.05500189774258e-05 -0.000219752789529527 0.000310360404675224 -0.000119619899525962 0.000311258241019013 -0.000296706364762276 -0.000129658700382328 -0.000201708867291398 -0.000398935593179457
"134" -0.000102398193462363 8.95491072182201e-06 -0.000201857174407874 -0.000145095421691023 9.11733557648703e-05 0.000195778715011571 -5.29379388371407e-06 -8.16861278332139e-05 -0.00020493722519317 0.000320929549580239 -0.000102037519412188 0.000321808425233234 -0.000282142405968328 -0.000116838434425966 -0.00017196373646227 -0.000379670054310807
"135" -0.000100320637992886 3.99132613950577e-06 -0.000194732345599846 -0.000147824431829097 9.40318508895435e-05 0.000196680554851842 3.60525526305091e-06 -8.31620255190649e-05 -0.000190307998050985 0.00033125235697881 -8.45638632507074e-05 0.000332378339259248 -0.000267559877148479 -0.00010391300522526 -0.000142810265674381 -0.000360214662470434
"136" -9.90696511339516e-05 -1.14186537725984e-06 -0.000187104020858448 -0.000150970863856639 9.69335239686572e-05 0.00019763022327322 1.22292404993535e-05 -8.49969770837348e-05 -0.00017590556193793 0.000341242084689678 -6.72604739085002e-05 0.000342875999795432 -0.000252998449145712 -9.09320140995783e-05 -0.000114354443939225 -0.000340650131117515
"137" -9.86407624283225e-05 -6.43347820442848e-06 -0.000179007590589434 -0.000154491912521617 9.98614705080926e-05 0.000198595034154384 2.05340064573952e-05 -8.72123789128829e-05 -0.00016176582201021 0.000350820074528605 -5.01950172227616e-05 0.000353202495126729 -0.000238509073130319 -7.7953642767243e-05 -8.67066137134503e-05 -0.000321061470457517
"138" -9.90154537575648e-05 -1.18571508089559e-05 -0.000170479602451306 -0.000158344280444564 0.000102800542270449 0.000199544432581813 2.84825105058846e-05 -8.98162934073981e-05 -0.000147921120056673 0.00035990565408316 -3.34310365576755e-05 0.000363271988143772 -0.000224138987538513 -6.50256045158163e-05 -5.99618102697122e-05 -0.000301532356148051
"139" -0.000100171701270994 -1.73995443706641e-05 -0.000161554824191912 -0.000162483646585485 0.000105737989398514 0.000200445208881274 3.60356827083868e-05 -9.28217923904159e-05 -0.000134407047205784 0.000368420823239954 -1.70363576764395e-05 0.000372990039671907 -0.000209937224095803 -5.22098897802595e-05 -3.4229575145616e-05 -0.000282149395767901
"140" -0.000102082559623426 -2.30286723893037e-05 -0.000152274678478381 -0.000166862864322269 0.000108659941597762 0.000201269175248518 4.315717735404e-05 -9.62416784919592e-05 -0.000121250899664482 0.000376297339583649 -1.07034477605042e-06 0.000382275014437608 -0.000195954910567101 -3.95568306867492e-05 -9.60042999162621e-06 -0.000262992382848124
"141" -0.00010471289477996 -2.87219146418272e-05 -0.000142674930217356 -0.000171437491747441 0.00011155234312015 0.000201990384463763 4.98099145002479e-05 -0.000100077939964782 -0.000108480775078692 0.000383464730392147 1.44054478248223e-05 0.000391047471411112 -0.000182240650468024 -2.71147719494251e-05 1.38328549326377e-05 -0.000244145276087103
"142" -0.000108026326016905 -3.44413905217254e-05 -0.000132802759103612 -0.000176156500090827 0.000114401777786327 0.000202583085105813 5.59651777505782e-05 -0.000104334898246068 -9.61222384641648e-05 0.00038986694169126 2.93326242630126e-05 0.000399233621699378 -0.000168847444180528 -1.49311403056965e-05 3.59859873545715e-05 -0.000225686304196373
"143" -0.000111975258680989 -4.01540964973393e-05 -0.000122698164844131 -0.000180980684564646 0.000117196592500465 0.000203023442534234 6.15911160849663e-05 -0.00010901246858946 -8.41966193172567e-05 0.000395444904981876 4.36523200305289e-05 0.000406765600221789 -0.000155824609756299 -3.05472435971626e-06 5.67714864129893e-05 -0.000207693062755854
"144" -0.000116513855194408 -4.58298182553627e-05 -0.000112409487874662 -0.000185860970805315 0.000119923362554954 0.000203288809560743 6.66561498933889e-05 -0.000114112471316514 -7.27266556453507e-05 0.000400149904765252 5.73113694851527e-05 0.000413578423461256 -0.000143222058669719 8.46312518962062e-06 7.61211556446831e-05 -0.000190243628622751
"145" -0.000121595785449716 -5.14279790269512e-05 -0.000101977785752996 -0.000190755484269708 0.000122573759111435 0.000203365750601989 7.11358549063893e-05 -0.000119621877888218 -6.17267279891711e-05 0.000403945547586635 7.02559450866143e-05 0.000419624529579097 -0.000131094656732241 1.95910515581734e-05 9.39597625235124e-05 -0.000173408333231248
"146" -0.00012715366005171 -5.69045143363803e-05 -9.14454396856209e-05 -0.0001956197132679 0.000125143219341487 0.000203235713615344 7.50154538119417e-05 -0.000125531888450551 -5.12109727328315e-05 0.000406800187257345 8.24465237825498e-05 0.000424860936812095 -0.000119479768703438 3.02830728332452e-05 0.000110234507027063 -0.000157248688033459
"147" -0.000133139990668675 -6.22267000024299e-05 -8.08584966282413e-05 -0.000200414197458272 0.000127617030650381 0.000202887954088874 7.82692086332487e-05 -0.000131829351087302 -4.11949374789472e-05 0.000408688227339082 9.38327931922416e-05 0.00042924817803159 -0.000108430158745719 4.05048158525061e-05 0.000124887185186778 -0.000141833982185011
"148" -0.000139490038146005 -6.73512600929368e-05 -7.025889176552e-05 -0.000205098283364429 0.000129992742442255 0.000202313506917292 8.08891501567047e-05 -0.000138496034697776 -3.16857490617678e-05 0.000409596539045889 0.000104378049165677 0.000432764425068843 -9.79900086801613e-05 5.02280574234079e-05 0.000137880801470941 -0.00012721745328551
"149" -0.00014615016841422 -7.22422909442462e-05 -5.96933240996803e-05 -0.000209634920331413 0.000132263172572873 0.000201506864443491 8.28572888447096e-05 -0.000145513465951602 -2.268838961773e-05 0.000409522527611042 0.000114043534081563 0.00043538996247445 -8.81989143178951e-05 5.94231857939424e-05 0.000149171895893509 -0.000113455631708632
"150" -0.000153046387931231 -7.68594332123699e-05 -4.92031870997645e-05 -0.000213986538746218 0.000134423253388734 0.00020046294353916 8.41764742529132e-05 -0.000152855618190343 -1.42081256995875e-05 0.000408465476662 0.000122805092366256 0.000437119508355833 -7.90921997316112e-05 6.80628390315608e-05 0.000158741588485844 -0.000100590588280364
"151" -0.000160126921499176 -8.1164138412648e-05 -3.88231160155613e-05 -0.000218121365556249 0.000136470718584173 0.000199184022648592 8.48387852241927e-05 -0.000160493147600286 -6.24785066057762e-06 0.000406445281480214 0.000130635086671657 0.000437960657381183 -7.0704112938515e-05 7.61312688270509e-05 0.000166570633541434 -8.86647901988697e-05
"152" -0.000167325522627207 -8.51234080711666e-05 -2.85947314607741e-05 -0.000222005202002713 0.000138404344800814 0.000197669737796915 8.48496958309338e-05 -0.000168392935406529 1.19855550363714e-06 0.000403477326312383 0.000137511588493251 0.000437915857762535 -6.30647384907817e-05 8.36172438750104e-05 0.000172660876157794 -7.77105705457619e-05
"153" -0.000174579946830634 -8.87048652361251e-05 -1.85575746291469e-05 -0.00022560999297538 0.000140225228352705 0.000195930015316224 8.42146854779391e-05 -0.000176523450936461 8.13514538896845e-06 0.000399597863251356 0.000143421507221133 0.000437017355329561 -5.61953203763102e-05 9.0505674743058e-05 0.000177012401017366 -6.77542006263773e-05
"154" -0.000181832101845964 -9.18762704704238e-05 -8.74608729201558e-06 -0.000228907095694179 0.000141928247630018 0.000193970894195929 8.29468133999122e-05 -0.00018484648727913 1.45635522462992e-05 0.000394846610162224 0.00014835572422256 0.000435288160713033 -5.01198627521295e-05 9.67898442427974e-05 0.000179643933004532 -5.8818055051978e-05
"155" -0.000189027897585364 -9.46141428548872e-05 8.11629927991124e-07 -0.000231870139198045 0.000143517582024837 0.000191803271333806 8.10604670578191e-05 -0.000193321288919124 2.04991375469794e-05 0.000389263944807037 0.000152305880746086 0.000432771394260897 -4.48550340977709e-05 0.000102473580980233 0.000180576036878053 -5.0916882207568e-05
"156" -0.000196106396100354 -9.68910470850052e-05 1.00797661098452e-05 -0.000234477669823445 0.000144998256721006 0.000189442858416071 7.85831804266901e-05 -0.000201907174178702 2.59492523354961e-05 0.000382909858490931 0.000155279540323503 0.00042951186200294 -4.0404212057492e-05 0.000107555813110699 0.000179851034263623 -4.40526586123369e-05
"157" -0.000203022694967446 -9.86893972048321e-05 1.90328204160999e-05 -0.000236706237937244 0.000146372725795139 0.00018690324133639 7.55317944369551e-05 -0.000210551982108166 3.0930219099606e-05 0.000375840096442587 0.00015728201582014 0.000425560519840144 -3.67703357119001e-05 0.000112051330477846 0.000177515449178314 -3.82249667172215e-05
"158" -0.000209718237191402 -9.99918198547185e-05 2.76495189944676e-05 -0.000238540331047322 0.000147644389464112 0.000184200934154366 7.1944674500482e-05 -0.00021921126037893 3.5456898327813e-05 0.00036812186134609 0.000158323620645584 0.000420982698413916 -3.39563615950926e-05 0.000115966082507952 0.000173628934514761 -3.34265267877271e-05
"159" -0.000216159421342118 -0.000100790284207942 3.59018474390765e-05 -0.000239959862414182 0.000148819970779504 0.000181356775571399 6.78522524820017e-05 -0.000227834357961269 3.95465924324874e-05 0.000359825007328369 0.000158423655635276 0.000415838113042676 -3.19482352438511e-05 0.00011932430324852 0.000168254872168212 -2.96404146884837e-05
"160" -0.000222298827489142 -0.00010107376807624 4.37747930336837e-05 -0.000240950602207873 0.000149905829916623 0.000178391479162651 6.32964855349946e-05 -0.000236371533983876 4.32196521619558e-05 0.000351021874688392 0.000157608480320203 0.000410198917845706 -3.07335742127093e-05 0.000122146852403498 0.000161475157653197 -2.68453483544488e-05
"161" -0.000228103311514165 -0.000100839363838732 5.12528205678662e-05 -0.000241502677844799 0.000150910618853135 0.000175327347751695 5.83181540760774e-05 -0.000244768186097652 4.65009721337327e-05 0.000341789355621291 0.000155902094866263 0.000404136858300435 -3.02912782904882e-05 0.000124456269277942 0.000153374260779608 -2.50116769696209e-05
"162" -0.000233541239476141 -0.000100088592219275 5.83201119626273e-05 -0.000241604732704528 0.00015183934840759 0.000172187084316922 5.29675984554494e-05 -0.000252970099692777 4.94073003455839e-05 0.000332204960495055 0.000153341092343138 0.000397730075728401 -3.05944426018242e-05 0.000126281178956141 0.000144043385888152 -2.41055840354858e-05
"163" -0.000238586945871992 -9.88300580542477e-05 6.49681769221944e-05 -0.000241250194826022 0.000152702666591352 0.000168994427483388 4.72861605818566e-05 -0.000260926487870206 5.19672463595202e-05 0.000322346825635991 0.000149963747463076 0.000391052665588837 -3.16112542330916e-05 0.000127661371289953 0.000133590831092925 -2.40830416039477e-05
"164" -0.000243219113468385 -9.70742736493012e-05 7.11916169910848e-05 -0.000240430677957103 0.000153508756599372 0.000165775987170029 4.13330457546593e-05 -0.000268583427034188 5.42051393520047e-05 0.000312292595249145 0.000145809043462246 0.00038418274363579 -3.33040054933317e-05 0.000128628876701842 0.000122125203977573 -2.48974301012727e-05
"165" -0.000247422313552181 -9.48284938535476e-05 7.69833134060973e-05 -0.000239147535493795 0.000154268339824825 0.000162553275774988 3.51646780323706e-05 -0.000275884305033603 5.61448091574156e-05 0.000302121288317435 0.000140928945517131 0.000377200055699777 -3.56328977965567e-05 0.000129226131642149 0.000109758339753644 -2.64976876816734e-05
"166" -0.000251188616971453 -9.21166499978349e-05 8.23491887497567e-05 -0.000237397837364798 0.000154991750466816 0.000159352663006969 2.88372189201801e-05 -0.000282777905641849 5.78154203607548e-05 0.000291907556424506 0.000135374637986919 0.000370179701697359 -3.85425754956443e-05 0.000129492872232623 9.66169764678483e-05 -2.88205070283059e-05
"167" -0.000254514058531753 -8.89629687788671e-05 8.72831779909106e-05 -0.000235181398098 0.000155685773843313 0.000156199032168192 2.24091629428347e-05 -0.000289214028826361 5.9243757297216e-05 0.000281721570731493 0.000129194549744487 0.000363194547650508 -4.1987149653595e-05 0.000129475583160294 8.28190895653086e-05 -3.18108457546437e-05
"168" -0.000257401971489836 -8.53897523248735e-05 9.17913349342921e-05 -0.000232504104305651 0.000156362401941061 0.000153117632398883 1.59369803284267e-05 -0.000295143240431183 6.04543165885038e-05 0.000271634460322626 0.000122446575678515 0.00035631794472073 -4.59121165795132e-05 0.000129213990244667 6.8496508644174e-05 -3.54000250808103e-05
"169" -0.0002598526579987 -8.14242995829203e-05 9.58858805687967e-05 -0.000229373271386521 0.000157033069711428 0.000150130629558727 9.48764882019037e-06 -0.000300519668243029 6.14757858404418e-05 0.000261710059127427 0.000115191581947311 0.000349616687035954 -5.02552227528658e-05 0.000128762398811426 5.37791892808808e-05 -3.95161622062975e-05
"170" -0.00026188379364616 -7.71002995051783e-05 9.95707521611787e-05 -0.000225796333783685 0.000157705629943935 0.000147260564958005 3.11903738886113e-06 -0.000305297285028204 6.23359086799314e-05 0.000252003826745144 0.000107488323270439 0.000343155115559046 -5.49631440535646e-05 0.000128164930647232 3.87938249063516e-05 -4.40961641864013e-05
"171" -0.000263510016387386 -7.24517655326336e-05 0.000102860738034102 -0.000221784678046809 0.00015839389434835 0.000144531616328379 -3.10688241228256e-06 -0.000309432109665741 6.30582519081417e-05 0.000242575377964192 9.94035228231627e-05 0.000336988410815731 -5.9962899294371e-05 0.000127468184154238 2.36727956501896e-05 -4.90594076729903e-05
"172" -0.00026474997237789 -6.75110549686489e-05 0.000105767405208153 -0.000217351394701883 0.000159105270020575 0.000141963376424558 -9.13063149769282e-06 -0.000312886344829208 6.3669953402501e-05 0.000233467930175927 9.0997557950663e-05 0.000331172582469019 -6.51944385888415e-05 0.000126721492612833 8.54642321185975e-06 -5.43310372461199e-05
"173" -0.00026562750221689 -6.23218041159319e-05 0.000108306733938232 -0.00021250948599115 0.000159846636359518 0.000139573195428986 -1.48940162939829e-05 -0.000315626587692785 6.41952211362603e-05 0.000224723171738591 8.23324830742157e-05 0.000325752030215093 -7.05957813485287e-05 0.000125970915125282 -6.46288708254302e-06 -5.98401360211645e-05
"174" -0.000266178579271753 -5.69185513084927e-05 0.000110496626407434 -0.000207279830146692 0.00016062985123697 0.00013738450185756 -2.03400439172159e-05 -0.000317625245860349 6.46544995651572e-05 0.000216372975574742 7.34752095001322e-05 0.000320766480332134 -7.61023003469148e-05 0.000125261795483602 -2.1237027639111e-05 -6.55096411090312e-05
"175" -0.0002664291379116 -5.13440285598126e-05 0.000112347733976327 -0.000201682576777318 0.000161461863937638 0.000135407458113421 -2.54183245652942e-05 -0.000318850276337927 6.50669698967219e-05 0.00020844791467367 6.44821949049118e-05 0.00031624667054406 -8.16500507081104e-05 0.000124634685004717 -3.56588595494934e-05 -7.12676937039169e-05
"176" -0.000266414997165458 -4.56332413576839e-05 0.000113888732112652 -0.000195736799810703 0.000162353246995943 0.000133661108330321 -3.00704314190473e-05 -0.000319281685546137 6.54573609926293e-05 0.000200964988094901 5.54178163355043e-05 0.000312220225897066 -8.71763462448214e-05 0.000124132941024596 -4.96170322076629e-05 -7.70371063062199e-05
"177" -0.000266179363752496 -3.98324707186726e-05 0.000115127656363228 -0.000189468247646522 0.000163306346834655 0.00013215637739151 -3.4256023102138e-05 -0.00031890121046699 6.58316444238886e-05 0.000193933535528575 4.63409602468131e-05 0.000308703775411682 -9.26254372503558e-05 0.000123790168485388 -6.30163610437856e-05 -8.27546927638376e-05
"178" -0.00026575290769517 -3.39774252736645e-05 0.000116090648002259 -0.000182904728655778 0.00016433364030117 0.000130905886146374 -3.79268077359725e-05 -0.000317698311181572 6.6213163793667e-05 0.000187363910976672 3.73088299585367e-05 0.000305711009430385 -9.79413876373921e-05 0.000123644749759866 -7.57616739043762e-05 -8.83479078663685e-05
"179" -0.000265176336674254 -2.81124556574492e-05 0.000116795727605 -0.000176069285746521 0.000165432518165388 0.000129916300068015 -4.10469353623559e-05 -0.000315661817214945 6.66087508950351e-05 0.000181246742640753 2.83720475019329e-05 0.000303237007035268 -0.000103070005100591 0.000123724343396268 -8.77698920037367e-05 -9.37564141839623e-05
"180" -0.000264496318734816 -2.22696679101153e-05 0.000117260066697034 -0.000168993287254142 0.000166613904674595 0.000129198183430179 -4.35828044148228e-05 -0.000312796550617601 6.70266020465084e-05 0.000175574344174635 1.95820312876238e-05 0.000301284413837707 -0.000107968180336213 0.000124050328008857 -9.89711973748439e-05 -9.89186091854167e-05
"181" -0.000263750194792761 -1.64896227444192e-05 0.00011749846629244 -0.000161710616529595 0.000167878995326767 0.00012875367261143 -4.55008223562484e-05 -0.000309099462538609 6.74706603690103e-05 0.000170327020494739 1.09838214792233e-05 0.000299836261281712 -0.000112597480863498 0.000124650424235542 -0.000109308719034618 -0.000103781872010226
"182" -0.000262975354241564 -1.08062297144646e-05 0.000117534597982852 -0.000154249969117525 0.000169230321851116 0.000128587030478862 -4.67827661618641e-05 -0.000304582237639704 6.79464847682892e-05 0.000165482898980684 2.61768397616166e-06 0.000298877962109085 -0.000116916458472521 0.00012553646569109 -0.000118728686450751 -0.000108297326446131
"183" -0.000262211022662615 -5.25532111228124e-06 0.000117381015430507 -0.000146645917759368 0.000170665408735896 0.000128700564633906 -4.74068422598979e-05 -0.000299258867594797 6.84485894804195e-05 0.000161007827961057 -5.47774517287793e-06 0.000298377878466804 -0.000120898390724128 0.000126717878570076 -0.000127201203082177 -0.000112419307729947
"184" -0.000261494525471686 1.33124484191233e-07 0.000117052532767962 -0.000138932124114952 0.000172191210921744 0.000129088289256301 -4.73609415645623e-05 -0.000293146617600607 6.89729853168944e-05 0.000156867229697298 -1.32734370096769e-05 0.00029830585447968 -0.000124521965779623 0.000128202984715175 -0.000134700131691039 -0.000116112148956375
"185" -0.00026086173815107 5.33307945950806e-06 0.000116564132799366 -0.000131146956972168 0.000173802830216491 0.000129753407251004 -4.66372062635067e-05 -0.000286269655390525 6.95133973260185e-05 0.000153018527618324 -2.07424375049202e-05 0.00029862402386277 -0.000127769300956952 0.000129984223383798 -0.000141219939400323 -0.000119348097253215
"186" -0.000260339874476677 1.03114056746914e-05 0.000115923168244291 -0.000123322448183978 0.000175496761084003 0.000130688935829688 -4.52418114657796e-05 -0.000278664611271621 7.00564177122207e-05 0.000149411023369293 -2.78662980183321e-05 0.000299284614608825 -0.000130637705329602 0.00013205532838796 -0.00014676336985041 -0.000122099462722726
"187" -0.000259962808776395 1.50490721081768e-05 0.000115142418980395 -0.000115500131799432 0.000177269608657841 0.000131884545298587 -4.31724751882638e-05 -0.000270356905894265 7.05867706219985e-05 0.000145999738975224 -3.46289528982564e-05 0.000300245023798538 -0.00013312032511135 0.000134405672248192 -0.000151349155604982 -0.000124351409916355
"188" -0.000259750836658649 1.95239035688016e-05 0.000114231959086568 -0.000107712314701209 0.000179122424795099 0.000133338445283392 -4.04486799237964e-05 -0.000261389137720526 7.10858429179634e-05 0.00014272628159769 -4.10233442724479e-05 0.000301446772966084 -0.000135230202520625 0.000137013916608076 -0.000155010632298465 -0.000126094540163509
"189" -0.000259721673371331 2.37171363942637e-05 0.000113193870266745 -9.99975776689794e-05 0.000181042952136732 0.000135035165657379 -3.70841122149151e-05 -0.000251805785069922 7.15330437920609e-05 0.00013953494034788 -4.70452507926118e-05 0.000302836537447539 -0.000136978050911527 0.000139853092929696 -0.000157789159582805 -0.000127327195358953
"190" -0.000259900813061956 2.76103385096543e-05 0.000112032536080549 -9.2394609619495e-05 0.000183028294897425 0.000136964682611893 -3.31032637655101e-05 -0.000241655603483077 7.19017768936368e-05 0.000136363347015098 -5.27033005336018e-05 0.000304353210527302 -0.000138388873806634 0.000142891125869288 -0.000159743074842292 -0.000128055504208361
"191" -0.000260292726748053 3.11912923278663e-05 0.000110754707486815 -8.4935472477798e-05 0.000185071897723604 0.000139114984004202 -2.85377548386063e-05 -0.000230988491940966 7.21672537637718e-05 0.000133152840651181 -5.80001527381944e-05 0.000305939002424239 -0.000139488994532855 0.000146089779677728 -0.000160941594043627 -0.000128289548368558
"192" -0.000260906397744416 3.44523271356511e-05 0.000109354314894556 -7.76583561838206e-05 0.000187163735029308 0.00014147076737206 -2.34186144351168e-05 -0.000219857881601838 7.23012409314415e-05 0.000129846816571092 -6.2951850038977e-05 0.000307528394360642 -0.000140315337251756 0.000149411552137804 -0.0001614621077633 -0.000128048902947129
"193" -0.000261743117937415 3.73779043948988e-05 0.000107831437000398 -7.05974354357401e-05 0.000189290807228068 0.000144016866004665 -1.77932197589452e-05 -0.00020832702427311 7.22660888893233e-05 0.000126378215208673 -6.75803661672644e-05 0.000309055869810581 -0.000140913185603465 0.00015280410160123 -0.000161397717096906 -0.000127364915201646
"194" -0.000262806067570153 3.99652533142537e-05 0.000106182578070922 -6.3784673604874e-05 0.000191444771589242 0.000146737004323139 -1.17045019712252e-05 -0.000196453476951302 7.20292336341924e-05 0.000122694576098181 -7.19142347632255e-05 0.000310466226322618 -0.00014133207608631 0.00015621663821944 -0.000160850418449162 -0.000126266503086725
"195" -0.000264080046557265 4.22142834362331e-05 0.000104407057889589 -5.72571382171404e-05 0.00019361837335332 0.000149613000663428 -5.2019466219193e-06 -0.000184299969089343 7.15616342125769e-05 0.000118739982882763 -7.59760057757389e-05 0.000311695689735381 -0.000141623475625597 0.000159595616554138 -0.000159919602274972 -0.000124793068553219
"196" -0.000265560504522529 4.41167995675639e-05 0.000102489710882132 -5.10417655246389e-05 0.000195794560827071 0.000152628810395349 1.65951647761296e-06 -0.000171937134061578 7.08180829322498e-05 0.000114458912243299 -7.98065094401701e-05 0.000312683354508802 -0.000141853183407058 0.000162875538762118 -0.000158731467051674 -0.000122991975155755
"197" -0.000267226549387614 4.56779776060394e-05 0.000100426311180259 -4.51685259370898e-05 0.000197964201955978 0.000155762857916515 8.82549892088154e-06 -0.000159423564162351 6.97658191992841e-05 0.000109804730400153 -8.34415495956187e-05 0.000313378190984144 -0.000142077903325723 0.000165994769454055 -0.000157395440990295 -0.000120910810192111
"198" -0.000269056955493555 4.68967888248475e-05 9.8210253997915e-05 -3.96620912503257e-05 0.000200115624397759 0.000158998016128368 1.62327555682736e-05 -0.000146829613414642 6.83698424996062e-05 0.000104732803902245 -8.69177432319005e-05 0.000313724671309851 -0.000142366328153811 0.000168893873512128 -0.000156040930495661 -0.000118603430743683
"199" -0.000271033973348499 4.77764448160047e-05 9.58268977174965e-05 -3.45516096877162e-05 0.000202233324277049 0.000162316897767708 2.38185750401168e-05 -0.000134222565280898 6.65908503757923e-05 9.9208442226175e-05 -9.02840158709885e-05 0.000313678910552094 -0.0001427903084411 0.000171504285569591 -0.000154794527185577 -0.000116130756568011
"200" -0.000273120773332615 4.83242016705024e-05 9.32676356502003e-05 -2.98579267357768e-05 0.000204305788788507 0.000165695496759013 3.15166770660334e-05 -0.000121669406433257 6.43893882876395e-05 9.31967580251164e-05 -9.35856957668952e-05 0.000313195287077188 -0.000143420121194279 0.000173754386030909 -0.000153783418347921 -0.00011355323644833
"201" -0.00027529174409983 4.85433914376792e-05 9.05223432354852e-05 -2.56009470141675e-05 0.000206319763463836 0.000169119602052639 3.9263662857514e-05 -0.000109237581328094 6.17407817099819e-05 8.66748121836532e-05 -9.68641954631731e-05 0.000312240462605181 -0.000144326245083902 0.000175582644561567 -0.000153137131228203 -0.000110934702838137
"202" -0.0002775109613101 4.84425119450829e-05 8.75760496493308e-05 -2.17990269147851e-05 0.000208265298723759 0.000172566243842411 4.69926988993962e-05 -9.69901094405359e-05 5.8602397885937e-05 7.96259878282601e-05 -0.000100172790285246 0.000310782441699882 -0.000145581542078536 0.000176920486266128 -0.000152981680259405 -0.000108341866905352
"203" -0.000279740122350449 4.80281492418345e-05 8.44206272034749e-05 -1.84648339471992e-05 0.000210124595252596 0.000176019018028912 5.46365605282374e-05 -8.4994131661107e-05 5.4949792319331e-05 7.20387839593034e-05 -0.000103556555019038 0.000308800620899077 -0.000147258239632903 0.000177700283812519 -0.000153441561668591 -0.000105844200666318
"204" -0.000281940503470445 4.73101058837561e-05 8.10430787167031e-05 -1.5614894435362e-05 0.000211888947509643 0.000179457444970928 6.21337699225665e-05 -7.33042896500212e-05 5.07525285394954e-05 6.39113836163972e-05 -0.000107064480645471 0.000306274513093128 -0.000149420696956907 0.000177864005923854 -0.000154632053447014 -0.000103506117909357
"205" -0.000284069219022805 4.62958763032003e-05 7.74373596213513e-05 -1.32554074749171e-05 0.000213546926898487 0.000182865953429557 6.94183554524192e-05 -6.19817203722079e-05 4.5987632153578e-05 5.52547896911204e-05 -0.000110739625360999 0.000303201116058678 -0.000152137144410058 0.000177346182330355 -0.000156667714969893 -0.000101396711048062
"206" -0.000286088946852491 4.49933088370967e-05 7.35888456634243e-05 -1.13950918429346e-05 0.000215090522708131 0.000186227179751254 7.64310137883137e-05 -5.10797182592392e-05 4.0634595080719e-05 4.60826330454302e-05 -0.000114626291202575 0.000299577775243027 -0.000155473197609933 0.000176093906682442 -0.000159649903810024 -9.95828326139175e-05
"207" -0.000287953889561163 4.34142668220906e-05 6.94909447235609e-05 -1.00346825452878e-05 0.000216507498427031 0.000189522897689225 8.31146266315351e-05 -4.06484455061272e-05 3.46802779110414e-05 3.64189864109903e-05 -0.00011876566006293 0.000295411292018743 -0.000159475473213078 0.000174053696637267 -0.000163676867973932 -9.81259869606814e-05
"208" -0.000289619794168767 4.15647756528197e-05 6.51412493438291e-05 -9.17811127659271e-06 0.000217787650153638 0.000192739786492386 8.9410647355516e-05 -3.0735891221626e-05 2.81087294929684e-05 2.62969096298955e-05 -0.00012319449398332 0.000290715423879385 -0.00016420337428534 0.000171183624855978 -0.000168832297962308 -9.70870587741538e-05
"209" -0.000291047540493024 3.94547613086217e-05 6.05276753468176e-05 -8.82106963409387e-06 0.000218925993374874 0.000195862855997549 9.52720271147539e-05 -2.13782746468416e-05 2.09175308865395e-05 1.57589541348658e-05 -0.000127946709699983 0.000285515023943589 -0.000169695730839523 0.000167437773119311 -0.000175191714413867 -9.65273324478403e-05
"210" -0.000292195141256825 3.70921125934559e-05 5.56517119949176e-05 -8.96195466310579e-06 0.00021991579163512 0.000198880129349089 0.000100651793123213 -1.26193962311715e-05 1.31033870329643e-05 4.85166166774529e-06 -0.000133057038022022 0.000279839838874187 -0.000175998312681199 0.000162780845573332 -0.000182816077287173 -9.65009953858539e-05
"211" -0.00029301558723865 3.44878288194278e-05 5.05135703384981e-05 -9.5892864494595e-06 0.000220756176088515 0.000201775509117388 0.000105515968512927 -4.48201707582949e-06 4.67257312356049e-06 -6.36594488326189e-06 -0.000138540953692018 0.000273727733762045 -0.00018313086632954 0.000157192262910675 -0.000191749412496372 -9.70485267125906e-05
"212" -0.000293482275584177 3.16448913103318e-05 4.51102081167952e-05 -1.06925947671884e-05 0.000221434319023183 0.000204542392648786 0.00010982348110692 3.00203818364205e-06 -4.36184088381398e-06 -1.78313963195516e-05 -0.000144424576153115 0.000267224761613601 -0.000191119212667149 0.000150648233099789 -0.000202030177204472 -9.82210482793641e-05
"213" -0.000293548637408693 2.85785740919105e-05 3.94506304971183e-05 -1.22615605677446e-05 0.00022195962625051 0.000207167618506263 0.000113554378231278 9.82436882623108e-06 -1.39868367017872e-05 -2.94749254476327e-05 -0.000150717692185898 0.000260379738684452 -0.000199974120314948 0.000143140166876152 -0.000213672599676761 -0.000100052094940577
"214" -0.000293188552418938 2.52899228483625e-05 3.3537562365064e-05 -1.42783964809765e-05 0.000222324497084574 0.000209644748158075 0.000116678438736224 1.59600446032362e-05 -2.41790127772637e-05 -4.1220088797841e-05 -0.000157430975638067 0.000253250595985025 -0.000209699776880359 0.000134660903052057 -0.000226687455685062 -0.000102573428504336
"215" -0.000292368495838728 2.17891601390684e-05 2.7380922759544e-05 -1.67261306931048e-05 0.000222534293279579 0.000211965428841132 0.000119190974969269 2.14062906979228e-05 -3.49105309491154e-05 -5.2983036314237e-05 -0.0001645663301285 0.000245904241777724 -0.000220290704116577 0.000125214749357418 -0.000241062131944009 -0.000105809126778751
"216" -0.000291060133329515 1.80843298633606e-05 2.09971620246357e-05 -1.95833693556161e-05 0.000222593197373643 0.000214122919718275 0.000121085570017918 2.617057635914e-05 -4.6140338808114e-05 -6.46818813054578e-05 -0.000172114234891384 0.00023840149749188 -0.000231726035778314 0.000114825357119878 -0.000256763956754123 -0.000109774273331808
"217" -0.000289240114988162 1.41789554488396e-05 1.43928779911053e-05 -2.28291109786756e-05 0.000222503585444075 0.000216117038761286 0.000122358043429698 3.02465242256094e-05 -5.78341472018876e-05 -7.62272658268624e-05 -0.00018006874743212 0.000230819041591514 -0.000243981884968484 0.000103506373867748 -0.000273754544477257 -0.000114477856761612
"218" -0.000286893862737311 1.00842717989563e-05 7.59338949120307e-06 -2.64374495829592e-05 0.00022227536468178 0.000217937945916418 0.000123017994690574 3.36540831775022e-05 -6.99416605424187e-05 -8.75263353667158e-05 -0.000188407293495402 0.000223230995839095 -0.000257019851213108 9.12938229179721e-05 -0.000291973967762012 -0.0001199210725084
"219" -0.000284004686118775 5.80798026698858e-06 6.14031793728936e-07 -3.03869252447265e-05 0.000221915971191702 0.000219587409381618 0.000123084962125387 3.64064364697598e-05 -8.24101305376758e-05 -9.84867720706786e-05 -0.000197109517620771 0.000215712731091591 -0.00027079794224962 7.82277657155217e-05 -0.000311353239202696 -0.000126096261774287
"220" -0.000280564557268027 1.3531875937143e-06 -6.5179376324109e-06 -3.46460936324241e-05 0.000221436055644403 0.000221066562583248 0.000122576676445737 3.85264037856348e-05 -9.51812153019573e-05 -0.000109011150874469 -0.00020614358590241 0.000208347751480885 -0.000285261599975147 6.43555713659896e-05 -0.000331810322304713 -0.000132989886566455
"221" -0.000276562634155506 -3.26819683647409e-06 -1.3779325780166e-05 -3.91895913312648e-05 0.000220846672980466 0.000222371996529138 0.000121525647947801 4.00446860549278e-05 -0.000108195343797901 -0.00011900921200894 -0.000215470610583296 0.000201212854459287 -0.000300343081714388 4.97397875432427e-05 -0.000353232938305401 -0.000140576240306904
"222" -0.00027200245812383 -8.04725282876562e-06 -2.114331296115e-05 -4.39868308277498e-05 0.000220166556580501 0.000223508904928833 0.000119966885575639 4.09888988851473e-05 -0.000121381050810477 -0.000128386005329032 -0.000225047548332823 0.000194390107811093 -0.000315969429417506 3.44470995571109e-05 -0.000375517965583999 -0.000148826539449406
"223" -0.000266888806178195 -1.29777422660869e-05 -2.85731003414411e-05 -4.90079464201696e-05 0.000219405125357501 0.000224477364201575 0.000117949172927628 4.14004877077498e-05 -0.000134667649131041 -0.000137050685873004 -0.00023482696909923 0.00018796151334285 -0.000332061242661121 1.85489770097846e-05 -0.000398534672019936 -0.000157698559980228
"224" -0.000261227744446913 -1.80472605676537e-05 -3.60382917033679e-05 -5.42234080676729e-05 0.000218581332601361 0.000225283411291556 0.000115514009779464 4.13191148057679e-05 -0.000147978685628056 -0.000144913844287876 -0.000244756390243807 0.000182004159139005 -0.000348528453634224 2.12965610099657e-06 -0.00042214842907262 -0.000167149468560962
"225" -0.000255036849306847 -2.32457105904351e-05 -4.35055924655831e-05 -5.96047313813564e-05 0.00021771413350011 0.000225932981090258 0.000112720520156637 4.07838995184274e-05 -0.000161238952499091 -0.000151888684951096 -0.000254777240716643 0.000176593653677456 -0.00036528256713314 -1.47295665003558e-05 -0.000446221834443201 -0.000177126476779347
"226" -0.00024832932464734 -2.85598165404222e-05 -5.09333930084454e-05 -6.51165989539593e-05 0.000216824558763736 0.000226430681798105 0.000109624160506682 3.98486493376469e-05 -0.000174365327721509 -0.00015789793612878 -0.000264823484903777 0.000171806301017501 -0.000382213006791805 -3.19263804202736e-05 -0.000470592521700257 -0.000187565492497976
"227" -0.000241134239624268 -3.39786883397782e-05 -5.8288652677433e-05 -7.07357682424576e-05 0.000215927654831134 0.000226785532580016 0.00010629045364565 3.85552640353061e-05 -0.000187277576031442 -0.000162860836173417 -0.000274834971945578 0.000167709450211689 -0.000399224123485474 -4.93633923689684e-05 -0.000495107579279819 -0.000198405761081582
"228" -0.000233471945813668 -3.9485286311725e-05 -6.55254540977916e-05 -7.64278936110096e-05 0.000215050376278118 0.000227004439265406 0.000102785972206125 3.69548956577569e-05 -0.000199887191872536 -0.000166713147388994 -0.000284734897741478 0.000164370252422619 -0.000416201933314045 -6.69394797870584e-05 -0.00051959706932804 -0.000209573645034911
"229" -0.000225373666745733 -4.50640767193867e-05 -7.26030334799485e-05 -8.21670986101634e-05 0.000214210162869866 0.000227096058537311 9.91778021687917e-05 3.5101197572843e-05 -0.000212114831785972 -0.00016938483100904 -0.000294458618083162 0.000161851728082959 -0.000433032350482462 -8.45415497922824e-05 -0.000543897119286651 -0.000220989083290695
"230" -0.000216878268394285 -5.06976644825084e-05 -7.94803054160358e-05 -8.79255452649697e-05 0.000213432020779006 0.000227070695498637 9.55394404233061e-05 3.30427258155505e-05 -0.000223871228937666 -0.00017081982688301 -0.000303930431243721 0.000160210438004526 -0.000449606635961485 -0.000102067476608405 -0.000567839332371536 -0.000232579290084944
"231" -0.000208018571484617 -5.63698944489733e-05 -8.61113732560138e-05 -9.36749660994371e-05 0.000212738180280161 0.000226938742098123 9.19418599728671e-05 3.08322665547893e-05 -0.000235079871660979 -0.000170970167468009 -0.000313075061962262 0.000159491919215191 -0.000465805472291951 -0.000119396133036326 -0.000591250500426503 -0.000244252900244224
"232" -0.00019883536386406 -6.20576115266957e-05 -9.2459248331339e-05 -9.93938803885941e-05 0.00021215014656099 0.000226712327841592 8.84569183940166e-05 2.85140454235653e-05 -0.000245654494165898 -0.000169792870603617 -0.000321819337910045 0.000159743716584912 -0.000481515912163516 -0.0001364169562193 -0.000613962598109365 -0.000255923532656031
"233" -0.000189369618887215 -6.77410322635488e-05 -9.84727804155625e-05 -0.000105053169778471 0.000211691692730881 0.000226398884632842 8.51604111435013e-05 2.61436505976174e-05 -0.000255517052860864 -0.000167253347802629 -0.000330090329916698 0.000160999953053504 -0.000496622579321604 -0.000153015245108555 -0.000635804977038889 -0.000267506942937583
"234" -0.000179671384866338 -7.33946146611544e-05 -0.000104114730343962 -0.000110638398061788 0.000211386264537384 0.00022601300490444 8.21217194402897e-05 2.3763143279277e-05 -0.000264592606573616 -0.000163325828547322 -0.000337815471916217 0.000163291977094813 -0.000511018203787369 -0.000169079477222453 -0.000656622776915872 -0.000278908520474186
"235" -0.000169781885108308 -7.89996610174527e-05 -0.000109342168452942 -0.000116122964620993 0.000211252257948324 0.000225564123986445 7.94098836145637e-05 2.14163150597943e-05 -0.000272808005147907 -0.00015799960195535 -0.000344926340808581 0.000166640921421986 -0.000524590675111023 -0.000184497357923397 -0.000676255732938325 -0.000290039084075499
"236" -0.000159750373403871 -8.45286738993863e-05 -0.000114112172483204 -0.000121492376661949 0.000211311923486331 0.000225063034013906 7.70912048293391e-05 1.91450161974237e-05 -0.000280097136664932 -0.000151259398887118 -0.000351355931876506 0.000171063074106499 -0.000537242907781405 -0.000199160509672649 -0.00069455915669228 -0.000300811828823811
"237" -0.00014962381460924 -8.9953991417653e-05 -0.00011838892302302 -0.000126729152090829 0.000211583753898337 0.00022452376335133 7.52283600249473e-05 1.69849974777501e-05 -0.000286396520232437 -0.000143111427330296 -0.000357041911900539 0.000176566435105651 -0.000548874807601394 -0.000212964794479919 -0.000711387951107901 -0.000311132441559094
"238" -0.000139451158570734 -9.52496566005384e-05 -0.000122130353804062 -0.000131817268960397 0.000212091124835647 0.000223955069381245 7.38827857070648e-05 1.49722925459907e-05 -0.000291646639579926 -0.000133566282373236 -0.000361921513677634 0.000183148891240391 -0.000559392536234903 -0.000225805724134373 -0.00072661431818873 -0.000320916954977658
"239" -0.000129275958069241 -0.000100386254256194 -0.000125303145683989 -0.000136748057692164 0.000212849627570137 0.00022336832665686 7.3106641949572e-05 1.31384414634153e-05 -0.000295800136160124 -0.000122643386281878 -0.00036594453839843 0.000190803373257776 -0.000568711749800677 -0.000237592768566278 -0.000740117316550789 -0.000330081902642909
"240" -0.000119147199425578 -0.000105339396117343 -0.000127870560772127 -0.000141508582547511 0.000213872149785868 0.000222774568308346 7.29474800826539e-05 1.15074762073428e-05 -0.000298809180567503 -0.000110374010902374 -0.000369061838605222 0.000199511769560918 -0.000576760514222894 -0.000248232832579572 -0.000751791048275215 -0.000338545818226066
"241" -0.000109115277866742 -0.000110077862707628 -0.000129805926351195 -0.000146089847010888 0.000215178283464294 0.000222184702554893 7.34550679109148e-05 1.00997311970444e-05 -0.000300635529721427 -9.67941074850112e-05 -0.000371229986665673 0.000209252756317455 -0.000583467960263688 -0.000257640909313779 -0.000761539064295338 -0.000346232368658699
"242" -9.92155375621812e-05 -0.000114572589964881 -0.000131079314463969 -0.000150485589690154 0.000216777319148991 0.00022160718587003 7.46632457607498e-05 8.93725403151524e-06 -0.000301249621942989 -8.1953407570909e-05 -0.000372415836570762 0.000219995217553116 -0.000588774622836858 -0.000265747479312618 -0.000769282376712524 -0.000353073819345108
"243" -8.94935933727322e-05 -0.000118796175270759 -0.000131663254224691 -0.000154691309937258 0.000218681893855417 0.000221049971649865 7.66028589233516e-05 8.02962378607334e-06 -0.00030063094218902 -6.59069154789718e-05 -0.000372589771290735 0.000231698350531853 -0.000592635501595191 -0.000272479555672415 -0.000774953873542372 -0.0003589994682211
"244" -7.99954033075501e-05 -0.000122721626833036 -0.000131540193241069 -0.000158706402716045 0.000220895360218497 0.000220522023406297 7.93012285300925e-05 7.38963394602187e-06 -0.000298766233211024 -4.87217349757933e-05 -0.000371733390142823 0.000244316637748655 -0.000595009088039291 -0.000277785910718976 -0.000778501035545835 -0.000363954412441745
"245" -7.07478474143047e-05 -0.000126318005504894 -0.000130688824697237 -0.000162525173591253 0.000223432138498056 0.000220028955860214 8.27758071652954e-05 7.0218289936934e-06 -0.000295641998368789 -3.04687180662481e-05 -0.000369828788829082 0.000257800155253205 -0.000595868287221137 -0.000281606538199692 -0.000779885237296134 -0.000367881884432633
"246" -6.17947180510476e-05 -0.000129564130977427 -0.000129096461482437 -0.000166149556748406 0.000226287794845437 0.000219579938903764 8.70345249954255e-05 6.92272054190043e-06 -0.000291268345206689 -1.12316180509231e-05 -0.000366876696959773 0.000272088875164522 -0.000595192405056185 -0.000283909577176319 -0.00077908784412845 -0.00037073799576
"247" -5.31601822262229e-05 -0.000132430273115699 -0.00012675048126636 -0.000169580687680235 0.00022947213793653 0.000219175715494521 9.20811010669069e-05 7.09390382559772e-06 -0.000285649359923684 8.9025518588601e-06 -0.000362876406107221 0.000287118404703708 -0.000592979611859592 -0.000284658145461858 -0.000776099826387016 -0.000372484767741345
"248" -4.4875528573302e-05 -0.000134893410267034 -0.000123646220205972 -0.000172820419056567 0.000232978417929695 0.000218823957518748 9.79114819909341e-05 7.52733109799221e-06 -0.000278807527130354 2.98391521401528e-05 -0.000357840539028506 0.000302816993594909 -0.00058923261323562 -0.000283835018166422 -0.000770932358159741 -0.000373090346204313
"249" -3.69681991785659e-05 -0.000136931437392742 -0.0001197788924239 -0.000175873967942168 0.000236809363240936 0.000218526860536706 0.000104520476645192 8.21422647155356e-06 -0.000270766408541727 5.14768604258483e-05 -0.000351788553811728 0.000319113074833795 -0.000583964179977207 -0.000281430302268838 -0.000763611099983663 -0.000372530900902704
"250" -2.94526796934718e-05 -0.00013852446187551 -0.000115152542573747 -0.000178744995280916 0.000240953601519889 0.000218286672091784 0.000111881239516222 9.13747574422912e-06 -0.000261564235910497 7.37069784866028e-05 -0.00034474614758507 0.000335923903295931 -0.000577201658867961 -0.000277441487163367 -0.000754172307073761 -0.000370793275380182
"251" -2.23541835294428e-05 -0.000139654257951097 -0.000109772044335997 -0.000181438275576734 0.000245406789708819 0.000218102605867897 0.000119975759495544 1.02856900633706e-05 -0.000251244598286561 9.64171461860292e-05 -0.00033675425131842 0.000353168598348876 -0.000568982578422386 -0.000271879892138462 -0.000742672008229288 -0.000367869442653052
"252" -1.56782192161707e-05 -0.000140305821481516 -0.000103646579931743 -0.000183959525347308 0.0002501568320734 0.000217977213975414 0.000128768465129278 1.16348060581816e-05 -0.000239853056813912 0.000119492355811272 -0.000327850155771953 0.000370758758310248 -0.000559350809580802 -0.000264763755944999 -0.000729176848322813 -0.000363759021662648
"253" -9.4439606306167e-06 -0.000140463863557444 -9.67922986649516e-05 -0.000186314948431212 0.000255191158313579 0.000217908057349872 0.000138222690470563 1.31675953054862e-05 -0.000227453160095376 0.000142812666844197 -0.000318087677437762 0.000388603554544214 -0.000548365219137693 -0.000256126977868928 -0.000713768489845764 -0.000358473634490226
"254" -3.65010195372915e-06 -0.000140115748934756 -8.92263585564555e-05 -0.000188511275465546 0.000260495569271471 0.000217892849793977 0.000148299189305649 1.48612852867336e-05 -0.000214108227035952 0.000166252798218845 -0.00030752231145324 0.00040661615354772 -0.000536084799008362 -0.000246004141836995 -0.000696536220667207 -0.000352026271022396
"255" 1.69821365949114e-06 -0.000139259240424327 -8.0971200254681e-05 -0.000190553871327849 0.000266053935389777 0.000217931208741549 0.000158941557210604 1.66886345020041e-05 -0.000199890937575741 0.000189694012884226 -0.000296218644323757 0.000424700199524617 -0.000522589256848012 -0.000234449018122009 -0.000677591314638232 -0.000344443458680062
"256" 6.59909668316861e-06 -0.000137886668671206 -7.20546601188934e-05 -0.000192451148596215 0.000271842146872928 0.000218015135368198 0.000170099916596409 1.86275296253718e-05 -0.000184880123423918 0.000213004337289781 -0.000284249638103383 0.000442766289903194 -0.000507959506820111 -0.000221516151198949 -0.000657047887782706 -0.000335760016020197
"257" 1.10618541884328e-05 -0.000135997177316112 -6.25080929202525e-05 -0.000194204801249734 0.000277845489012436 0.000218140928300326 0.000181712624773278 2.06488381051056e-05 -0.000169159380658083 0.000236063076950021 -0.000271685153022418 0.00046072024460367 -0.00049228135931457 -0.000207275519208555 -0.000635028545981995 -0.000326009234972902
"258" 1.50895804271811e-05 -0.000133590532155076 -5.23618832803477e-05 -0.000195824588828186 0.000284035647422376 0.00021830393402631 0.000193720127999123 2.27320043962224e-05 -0.000152815777824067 0.000258744855064184 -0.000258609785959367 0.000478469935565103 -0.000475651625783239 -0.000191799864616083 -0.000611669878258323 -0.000315238687883107
"259" 1.86944314290568e-05 -0.000130673356569961 -4.16585577506301e-05 -0.000197312261588661 0.000290388268719939 0.000218496370128541 0.000206052318463442 2.48445283048024e-05 -0.000135944195613686 0.000280924021727318 -0.000245106366402788 0.000495925746350006 -0.000458173019762933 -0.000175172227025217 -0.000587111631092983 -0.000303504056607665
"260" 2.18948626376891e-05 -0.000127256497377085 -3.04370650332265e-05 -0.000198671034511807 0.000296879402716541 0.000218712077272717 0.000218641881708418 2.69612563026749e-05 -0.000118643728565719 0.000302482582682683 -0.000231260253140355 0.000513000362241542 -0.000439952368105652 -0.000157484817253441 -0.000561506349899937 -0.000290858422017898
"261" 2.46997698623914e-05 -0.00012335081790011 -1.87440331375154e-05 -0.000199907122689091 0.000303476774413548 0.000218944253544074 0.000231412576329418 2.90612350414319e-05 -0.000101013131930742 0.000323304187068944 -0.000217167038948289 0.000529605709524963 -0.00042110130763389 -0.000138832998773947 -0.00053500279700213 -0.000277367410076018
"262" 2.71308903841496e-05 -0.000118971706350113 -6.62875935610591e-06 -0.000201020686622315 0.000310153187304171 0.000219181667461322 0.000244293997831006 3.11202280567053e-05 -8.31557598911105e-05 0.000343275395195569 -0.000202917464502453 0.000545665701917794 -0.000401728546270493 -0.000119314468122258 -0.000507761695506348 -0.000263097913531725
"263" 2.92166414050894e-05 -0.000114136357838916 5.8619181639163e-06 -0.000202012152378958 0.000316879987112066 0.000219418626965907 0.000257208631113658 3.31150046301463e-05 -6.51747106842913e-05 0.000362294735961808 -0.000188600888741641 0.000561101137993795 -0.000381956671648497 -9.90406243977857e-05 -0.000479941941523189 -0.000248121861013802
"264" 3.09764102369454e-05 -0.000108869652005486 1.86721064374054e-05 -0.000202883808578138 0.000323624071950378 0.000219644094952976 0.000270083099337152 3.50265899085596e-05 -4.71771284867185e-05 0.000380259825846759 -0.000174317405730309 0.000575841698253104 -0.000361900593255641 -7.81219557593372e-05 -0.000451709961912566 -0.000232519876760437
"265" 3.24313767894094e-05 -0.000103196685392502 3.1744093808811e-05 -0.000203634187090502 0.000330354536721071 0.000219849647336303 0.000282840655081291 3.68390390962572e-05 -2.92673672874544e-05 0.000397078722432157 -0.000160158162661414 0.000589818229933679 -0.000341682295169164 -5.66750791775891e-05 -0.00042322515936544 -0.000216366138056773
"266" 3.3615591886364e-05 -9.71422930371505e-05 4.50238069165454e-05 -0.000204260620600165 0.00033703723840714 0.00022002754106036 0.000295404391361995 3.8536529138538e-05 -1.15523162677495e-05 0.000412666621193108 -0.000146213914427259 0.000602976140781273 -0.000321416459325299 -3.48103488457461e-05 -0.000394649632144266 -0.00019974507378181
"267" 3.45519431457316e-05 -9.07495200008667e-05 5.84496738933042e-05 -0.000204759638197538 0.000343640203749684 0.000220167316709004 0.000307697158666966 4.01001761250958e-05 5.86126643510815e-06 0.000426946081600792 -0.00013257999244585 0.000615254615687963 -0.000301227681502512 -1.26580270464033e-05 -0.000366146439328226 -0.000182743299555014
"268" 3.52746112221138e-05 -8.40403185039955e-05 7.19605977896098e-05 -0.000205127008605759 0.00035013139189003 0.000220258791050081 0.000319657857347667 4.15262653425211e-05 2.28788637477017e-05 0.000439856142654209 -0.000119341425893483 0.000626611647957737 -0.000281227368149691 9.67382366730115e-06 -0.000337875177699736 -0.000165443952714318
"269" 3.58123038341375e-05 -7.70596601568849e-05 8.54943499585318e-05 -0.000205357969476721 0.000356476603634976 0.000220296348895971 0.000331204900866271 4.28056608191685e-05 3.93948301069206e-05 0.000451337313867893 -0.000106586361903402 0.000637006940332086 -0.000261533885124867 3.20520554320951e-05 -0.000309985707245435 -0.000147932421679006
"270" 3.61936484092722e-05 -6.98474879470042e-05 9.89886044121938e-05 -0.000205444723468369 0.000362645985325754 0.0002202685546535 0.000342278440486492 4.39341786628075e-05 5.53175614816244e-05 0.00046134207274826 -9.43931900124018e-05 0.000646406959340288 -0.000242256319785064 5.43675874361538e-05 -0.000282629402643141 -0.00013029956631803
"271" 3.64537377277192e-05 -6.24404388728258e-05 0.000112378805664573 -0.000205383531289792 0.000368608778810474 0.000220167903719695 0.000352815317535188 4.49102572863483e-05 7.05537150459021e-05 0.000469837892154881 -8.28389556896588e-05 0.00065478722859519 -0.000223498623788752 7.64998207343238e-05 -0.000255951437382605 -0.000112629061342522
"272" 3.66220667949248e-05 -5.48871527756529e-05 0.00012560572396348 -0.00020516374446106 0.000374332394118456 0.000219989535167541 0.000362755620901812 4.57368673499217e-05 8.50216427431215e-05 0.000476800801314527 -7.19971483648837e-05 0.000662131166280478 -0.000205368797202066 9.83270571653929e-05 -0.000230087099644801 -9.50073949716936e-05
"273" 3.67261320414638e-05 -4.72298161506034e-05 0.000138604534293857 -0.000204778368799202 0.000379788666101788 0.000219723995566128 0.000372044268573581 4.64173303629981e-05 9.86331228333574e-05 0.000482212838005551 -6.19344046411334e-05 0.000668429749795162 -0.000187964723101653 0.00011974099844472 -0.000205165725400009 -7.75189494842535e-05
"274" 3.68016310943919e-05 -3.95147828481429e-05 0.000151313018620038 -0.000204215316060782 0.000384947572261189 0.000219366478695122 0.000380632804950639 4.6959653050323e-05 0.000111322742906018 0.000486078203775346 -5.27052495511957e-05 0.000673681248100442 -0.00017137092155264 0.00014063493892618 -0.000181304730418506 -6.02432439618613e-05
"275" 3.68690825266136e-05 -3.17918438549991e-05 0.000163667389401964 -0.000203469404543909 0.000389783900552569 0.000218912901668301 0.000388477457884238 4.73721548621433e-05 0.000123018636628466 0.000488400747663256 -4.43689343812206e-05 0.000677891904329688 -0.000155680570683766 0.00016089825077804 -0.000158622134567726 -4.32627390737782e-05
"276" 3.69626965144834e-05 -2.41035561730751e-05 0.000175614979921184 -0.000202528117612771 0.000394274005691484 0.00021835750125858 0.000395544968919489 4.76694655330423e-05 0.000133660887834579 0.000489199569154878 -3.69659130398921e-05 0.000681076274871423 -0.000140966964935098 0.000180434644805857 -0.000137210620259951 -2.6652670702704e-05
"277" 3.71054534002939e-05 -1.64976411209337e-05 0.000187091931637146 -0.000201381454590112 0.000398390982912631 0.000217698236450203 0.000401799282601718 4.78650383999565e-05 0.000143203830894904 0.000488507230877615 -3.0537502785921e-05 0.000683255872038284 -0.000127303799623473 0.000199153614967499 -0.000117170307690743 -1.0486869783141e-05
"278" 3.73228438620526e-05 -9.02386694236912e-06 0.000198045074668074 -0.000200021484503019 0.000402115504009371 0.000216931075479153 0.000407214557640881 4.7975527804027e-05 0.000151597243171647 0.000486362767756074 -2.51114810423316e-05 0.000684453782951076 -0.00011475250347375 0.000216965348257278 -9.85773856367038e-05 5.16745565520083e-06
"279" 3.76393937085376e-05 -1.72506050153122e-06 0.000208422569547412 -0.000198436967579446 0.000405427490484453 0.000216057869100421 0.000411778218700077 4.80208621628338e-05 0.00015880999666685 0.000482812257434367 -2.07137215979623e-05 0.000684708678410499 -0.000103370558997892 0.000233791484035204 -8.14982871045687e-05 2.02495442977163e-05
"280" 3.80742790782351e-05 5.3561250472809e-06 0.000218174144983875 -0.00019662422087351 0.00040831263771535 0.000215074952833166 0.000415470610836756 4.80181607104076e-05 0.000164812781826484 0.000477917818786365 -1.73600046264684e-05 0.000684056392915059 -9.32055358359661e-05 0.000249563325554354 -6.59992626015439e-05 3.46923986518125e-05
"281" 3.86473729707041e-05 1.21744626007126e-05 0.000227253734035168 -0.00019456986142148 0.000410750340677196 0.000213987546663584 0.000418291383061834 4.79872926826227e-05 0.000169591359625137 0.000471743349640424 -1.50537495845997e-05 0.000682543627486531 -8.42949810255664e-05 0.000264214075666865 -5.21216963934181e-05 4.84501305182268e-05
"282" 3.93712572621417e-05 1.8692788345354e-05 0.000235615809061296 -0.000192270701045982 0.00041273440496152 0.000212794994275883 0.00042023890176788 4.79537626518335e-05 0.000173137469280185 0.000464360620758367 -1.37951540095758e-05 0.000680217184511683 -7.66710951830822e-05 0.000277686449677784 -3.98998442838546e-05 6.14709218562732e-05
"283" 4.02623394601446e-05 2.48715415255784e-05 0.00024322657697733 -0.000189718610269607 0.000414253059994128 0.000211503272041749 0.000421321519890269 4.79336243170435e-05 0.00017545182705966 0.000455852685668218 -1.35745108842559e-05 0.000677136181562637 -7.03537934952142e-05 0.00028994278722681 -2.93557843532254e-05 7.37132039685486e-05
"284" 4.1334455794058e-05 3.06759812840738e-05 0.000250044506199025 -0.000186908715592568 0.000415296416788957 0.000210116459375966 0.000421552697638844 4.7947554952001e-05 0.000176543648931729 0.000446301564696042 -1.43763099742551e-05 0.000673351417585258 -6.53579220149982e-05 0.000300941394885219 -2.05031487147353e-05 8.51418615654639e-05
"285" 4.25921703055626e-05 3.60782774501156e-05 0.00025604305772947 -0.00018384138254581 0.000415860976241945 0.000208636260846988 0.000420955916134711 4.80164613543725e-05 0.000176433631803118 0.000435801136499719 -1.61738302610616e-05 0.000668928631669484 -6.16887581668573e-05 0.000310651995173661 -1.33430480388838e-05 9.57258984207799e-05
"286" 4.40498196354471e-05 4.10462616567616e-05 0.000261198093074172 -0.000180510417960674 0.000415947488471265 0.000207075198503111 0.000419556339034427 4.8163090270974e-05 0.000175146286309899 0.00042444595960262 -1.89373940664916e-05 0.000663929341157562 -5.93422288087631e-05 0.000319062927592803 -7.85736880815692e-06 0.000105443526263433
"287" 4.57021459137608e-05 4.55523890364426e-05 0.000265487763199349 -0.000176917080130723 0.000415549872966873 0.000205439679655835 0.000417377030673212 4.8396956482769e-05 0.00017272025830136 0.000412328313023663 -2.26293185044708e-05 0.000658413119592904 -5.83075906217133e-05 0.000326157036697415 -4.03263663773313e-06 0.000114273626417057
"288" 4.7562352735503e-05 4.95875196102537e-05 0.00026889237053304 -0.000173066345392607 0.000414675791466321 0.000203736685673094 0.000414468873642415 4.87390969597533e-05 0.000169198653372625 0.00039955357154019 -2.72002216582015e-05 0.00065244911169178 -5.85640531148076e-05 0.000331941150616591 -1.82875876155764e-06 0.000122211725811629
"289" 4.96220362472194e-05 5.31267871075048e-05 0.000271408652134116 -0.000168958345673249 0.000413329534730616 0.000201975187463573 0.000410864781387594 4.92027623175519e-05 0.000164631727860804 0.000386220587306418 -3.26047303911877e-05 0.000646099766221628 -6.00854899698698e-05 0.000336422093581009 -1.20603624062536e-06 0.00012925134011369
"290" 5.18812130835635e-05 5.6156718350985e-05 0.000273019017545387 -0.000164599515044415 0.000411512425212394 0.000200168761989454 0.000406605539550445 4.97929553505627e-05 0.000159075674084576 0.000372425702247685 -3.87832121259844e-05 0.000639427570166945 -6.28407150668752e-05 0.000339615399978859 -2.11393720684756e-06 0.000135392194292022
"291" 5.43388452603741e-05 5.86732930195743e-05 0.000273736136207505 -0.000159997831241266 0.000409241394121686 0.000198326993607088 0.000401746780149055 5.05228523793023e-05 0.000152596476000064 0.000358275136783314 -4.56756864326768e-05 0.000632497902758906 -6.67838677641861e-05 0.000341544721015321 -4.4948257587191e-06 0.00014064344620617
"292" 5.6982145363676e-05 6.06720972580959e-05 0.000273561532804586 -0.000155166455698479 0.000406522299496436 0.000196460340560107 0.000396338420147485 5.13965761907851e-05 0.000145260262297461 0.000343865000026317 -5.32184042626291e-05 0.00062537591774242 -7.18745395535749e-05 0.000342250251634483 -8.27472512217809e-06 0.000145021957799793
"293" 5.98104764895746e-05 6.2151035247922e-05 0.000272502071015127 -0.000150114804395941 0.000403371641560289 0.000194580496479039 0.000390434138294001 5.24165072114834e-05 0.000137147162706439 0.000329295512676286 -6.13416188312154e-05 0.000618115926365926 -7.80522366834003e-05 0.000341768740730042 -1.33815945071383e-05 0.00014854669663303
"294" 6.28125505312347e-05 6.31194806727265e-05 0.000270578287964596 -0.000144857452492257 0.00039980659863577 0.000192700624021733 0.000384092686395834 5.35846290662307e-05 0.000128332452645039 0.000314655067165693 -6.99707889167139e-05 0.000610778259931395 -8.52641427121289e-05 0.000340147063949537 -1.97311326859886e-05 0.000151240223499152
"295" 6.59721675579791e-05 6.35785769189791e-05 0.000267806478732321 -0.000139411440365787 0.000395836210838992 0.000190833516536985 0.000377364441694488 5.48887591514649e-05 0.000118895400500365 0.000300035224828849 -7.90364531509604e-05 0.000603412793724063 -9.34473268373774e-05 0.000337441018587787 -2.72396017407335e-05 0.000153134925904361
"296" 6.92833276086542e-05 6.35458839211175e-05 0.000264216828215218 -0.000133794703242484 0.000391482894710652 0.000188991057055934 0.000370315911875052 5.63262643300099e-05 0.000108925327124096 0.000285524218146052 -8.84614767803094e-05 0.000596070559212414 -0.000102531962694623 0.000333710238788896 -3.58118229094812e-05 0.000154265513833562
"297" 7.27330775903417e-05 6.30332211364164e-05 0.000259840225872253 -0.00012802478206469 0.000386767049886814 0.000187185496675748 0.000362998667302566 5.78881307121746e-05 9.85060215361401e-05 0.000271205444580194 -9.8168939446711e-05 0.000588800834052883 -0.000112451204358418 0.000329016525014546 -4.53578844105839e-05 0.000154670770985369
"298" 7.63023674725319e-05 6.20629295041841e-05 0.000254709971098964 -0.000122131609036862 0.000381709725593995 0.000185425962708905 0.000355473480048465 5.95621883691349e-05 8.77257458813146e-05 0.00025715196994953 -0.00010808566130418 0.000581644794023578 -0.00012312863277984 0.000323431683839467 -5.57723098926265e-05 0.000154391793756426
"299" 7.99784510265481e-05 6.06529718661412e-05 0.000248870781162238 -0.000116130325098092 0.000376332339867232 0.000183727363584205 0.000347796962390541 6.13265393850672e-05 7.66738592273004e-05 0.000243438277696004 -0.000118128818243604 0.000574640042032906 -0.000134487740065595 0.000317026890885586 -6.69600480625174e-05 0.000153477073123412
"300" 8.37484004538889e-05 5.88298797720146e-05 0.000242361820574483 -0.000110051984800699 0.000370652884154448 0.000182099379783642 0.00034002145565935 6.31667617746e-05 6.54386629419592e-05 0.000230128431614418 -0.000128229521552782 0.000567816902901871 -0.000146454555383432 0.000309873701552188 -7.88164620410797e-05 0.00015197288187691
"301" 8.75930555564782e-05 5.66184820592769e-05 0.000235234135656208 -0.000103919647477552 0.000364701782740309 0.000180551166633738 0.000332204374057456 6.50603071088071e-05 5.4106183679358e-05 0.000217282435919337 -0.000138311945439675 0.000561204657551273 -0.00015894870114242 0.000302053673322157 -9.12348357860802e-05 0.000149934010053443
"302" 9.14994736098804e-05 5.40543656821449e-05 0.000227544658074268 -9.77655689391077e-05 0.000358501249417826 0.000179092771846368 0.000324398896027199 6.69899405036382e-05 4.27645581871422e-05 0.000204957654964189 -0.000148302982202279 0.000554833761325701 -0.000171887221763657 0.000293642859455666 -0.000104119578560175 0.000147409868360473
"303" 9.54465337245604e-05 5.11580892903283e-05 0.000219339750521483 -9.16134507801528e-05 0.000352069841850178 0.000177731148857594 0.000316644761697159 6.89240531057555e-05 3.1493897718618e-05 0.000193196408795027 -0.000158137157656647 0.000548716266676668 -0.000185195402125748 0.000284718959774988 -0.000117364826424142 0.000144454965878507
"304" 9.94272201538345e-05 4.79673463193022e-05 0.000210680360365008 -8.5494673390069e-05 0.000345436856150068 0.000176475698939401 0.000308991679924116 7.08374948328032e-05 2.03769968103044e-05 0.000182042941290242 -0.000167746511496645 0.000542869446401647 -0.000198788504848849 0.000275363639727918 -0.00013087542576119 0.000141129333589258
"305" 0.000103414424356077 4.45128146835115e-05 0.000201630538376878 -7.94410575464682e-05 0.000338626123861636 0.000175328000326257 0.000301483934842946 7.27052707832172e-05 9.49060460685346e-06 0.000171532805490723 -0.00017707016030719 0.00053730319175299 -0.00021259400962738 0.000265645740455845 -0.000144546931717303 0.000137482368579941
"306" 0.000107400194304675 4.08302829025379e-05 0.000192252634471996 -7.34780540055984e-05 0.000331661530088795 0.00017429674972394 0.000294159551893176 7.450308387525e-05 -1.08940398242137e-06 0.000161695220527996 -0.000186047980130719 0.000532022802337828 -0.000226526006749381 0.000255650638908014 -0.000158287899645525 0.000133571977676327
"307" 0.000111367485745808 3.69513055342496e-05 0.000182608465103561 -6.76400911292643e-05 0.000324569443163253 0.000173385231913093 0.00028705159734646 7.62005542485201e-05 -1.12958989341512e-05 0.000152552600650486 -0.000194624140507136 0.000527029999423392 -0.000240516333286231 0.000245449601259564 -0.000172006314240122 0.000129456828595915
"308" 0.000115293619261323 3.29103555328206e-05 0.00017276572756233 -6.19535169630647e-05 0.000317370686853047 0.000172592005715231 0.000280189384045352 7.77724909506323e-05 -2.10609891155475e-05 0.00014412524922731 -0.000202757438101537 0.000522320188753085 -0.000254489251007025 0.000235111588533221 -0.000185615785672695 0.000125187583204536
"309" 0.000119176110960693 2.8742397050431e-05 0.000162790870342524 -5.64438586810245e-05 0.000310093681373761 0.000171919815142027 0.000273608326933906 7.91966018790066e-05 -3.03258601650177e-05 0.000136420619647883 -0.000210388420608132 0.00051789122886832 -0.000268369014923416 0.000224710292501091 -0.000199023416796415 0.000120820334839142
"310" 0.000122993803899602 2.44789232689648e-05 0.000152752149516391 -5.11450472740114e-05 0.000302757569078957 0.000171368948817423 0.000267324140339563 8.04444400070396e-05 -3.90374351853723e-05 0.000129449794640902 -0.000217487350018419 0.000513727378114636 -0.000282089043663051 0.000214301574457278 -0.000212158216600904 0.000116405107029825
"311" 0.000126731993836283 2.01490541125309e-05 0.000142713521318755 -4.60801478123658e-05 0.000295388669821746 0.000170933226355712 0.000261359819538856 8.14979556305663e-05 -4.71396852100339e-05 0.000123212199089654 -0.000224013426486092 0.000509820295067644 -0.000295586445248145 0.000203954874995422 -0.000224941259889272 0.00011199377587755
"312" 0.000130384146370094 1.57918552486897e-05 0.000132747774904197 -4.12712447449326e-05 0.00028800919584373 0.000170612027214787 0.000255734117973382 8.23365348224874e-05 -5.45912109480732e-05 0.000117704970756437 -0.000229935400443395 0.00050615392352592 -0.000308793233472685 0.00019372542252248 -0.000237300637351067 0.000107634530163763
"313" 0.000133933016504129 1.14290182264142e-05 0.00012291882113424 -3.67431488188526e-05 0.000280642531053759 0.000170399122688743 0.0002504566550408 8.29460557364284e-05 -6.13545056995876e-05 0.000112919711053603 -0.000235229008907664 0.000502703759696377 -0.0003216513784882 0.000183662028689831 -0.000249172532970928 0.000103372700188498
"314" 0.000137370285219464 7.09835231415018e-06 0.000113292503079975 -3.25189699689209e-05 0.000273312549928663 0.000170288533777622 0.000245542664549366 8.33129119307934e-05 -6.7390631764129e-05 0.000108847565396207 -0.000239867674522695 0.000499459786576543 -0.000334103173624286 0.000173814970373347 -0.000260492618269688 9.92522711362287e-05
"315" 0.000140685525017772 2.81892293950841e-06 0.000103932209365485 -2.86114394889289e-05 0.000266034705175576 0.00017027285697312 0.000240992042006976 8.34273863277471e-05 -7.26741016149888e-05 0.000105468832215114 -0.000243834133855414 0.000496390005206011 -0.000346091856119056 0.000164224904685095 -0.000271206210335103 9.53140614149736e-05
"316" 0.000143869860470815 -1.3813635132854e-06 9.48968550393828e-05 -2.50391392624564e-05 0.000258836618884896 0.000170342702506796 0.000236814021680568 8.32781085960281e-05 -7.71810861347158e-05 0.000102765089253536 -0.000247119980384122 0.000493476328172886 -0.000357575740469392 0.000154932331256744 -0.000281259114689949 9.15935680984248e-05
"317" 0.000146909863958363 -5.47710233824327e-06 8.62546400001878e-05 -2.1816062471548e-05 0.000251738048179437 0.000170488171838846 0.000233008513913083 8.28713358622549e-05 -8.0893843870043e-05 0.00010071931709741 -0.000249712216642462 0.000490695231947339 -0.000368500490274988 0.000145970386691994 -0.000290611637477793 8.81283885616402e-05
"318" 0.000149805100825066 -9.44596832418612e-06 7.80573962302421e-05 -1.89502094117337e-05 0.000244756781631985 0.000170698870844905 0.000229573597984189 8.22109811967841e-05 -8.37985440812156e-05 9.93034297701016e-05 -0.000251607110761608 0.000488017768660712 -0.00037882685349818 0.000137366625410594 -0.00029921519247365 8.49521492110192e-05
"319" 0.0001525474240903 -1.32664416393132e-05 7.03593242125506e-05 -1.64494280529689e-05 0.00023791417982657 0.000170963054065646 0.000226507841934538 8.12988750635486e-05 -8.58890028879438e-05 9.84928434670251e-05 -0.000252803388629435 0.000485422414669461 -0.000388512178775363 0.000129142917004189 -0.000307038824451137 8.20904189713719e-05
"320" 0.000155129260188988 -1.69221146240962e-05 6.32118550070834e-05 -1.43176053897866e-05 0.000231228582578106 0.000171271168705657 0.000223803121787479 8.01483629070618e-05 -8.71663917408357e-05 9.82556042105428e-05 -0.000253304598843339 0.000482883830417944 -0.000397524591421315 0.000121316882032503 -0.000314047878804867 7.95678323620883e-05
"321" 0.000157544784803718 -2.03959799315049e-05 5.66686373458204e-05 -1.25558953852875e-05 0.000224720832064055 0.000171606983330372 0.000221456238436544 7.87797561243796e-05 -8.76311316489186e-05 9.85674328136413e-05 -0.000253119804514937 0.000480376789703852 -0.000405832585781439 0.000113902455841291 -0.000320220018957248 7.74072674861034e-05
"322" 0.000159794337896992 -2.36669615154089e-05 5.07670794897822e-05 -1.11617272546433e-05 0.000218409906894769 0.000171958950373881 0.000219457867792964 7.72117334906666e-05 -8.72877466119278e-05 9.93954008156928e-05 -0.000252251780087298 0.00047788179442992 -0.000413402782385158 0.00010691250206646 -0.000325528615000575 7.56308313472515e-05
"323" 0.000161875159657782 -2.67278674890964e-05 4.55503962833693e-05 -1.0129427791332e-05 0.000212309820148655 0.000172315382151716 0.000217799928385522 7.54721845029564e-05 -8.6151965750476e-05 0.000100706230340583 -0.000250721507132998 0.000475372356477573 -0.000420214084863241 0.000100343865716423 -0.000329960256306282 7.42502928735134e-05
"324" 0.000163784658834518 -2.95590763340265e-05 4.10544249575855e-05 -9.4486655922103e-06 0.00020643913171981 0.000172660785529476 0.000216469911586768 7.3592812092852e-05 -8.42408491589802e-05 0.000102468355144773 -0.00024854110210622 0.00047283271419616 -0.000426246082886308 9.4201184693929e-05 -0.000333502427475604 7.32776904412761e-05
"325" 0.000165525781426545 -3.21541298408581e-05 3.73097387815877e-05 -9.10872415323593e-06 0.000200818420788222 0.000172985261866426 0.000215461954593566 7.1605490355794e-05 -8.15707446454522e-05 0.00010465205808851 -0.00024572641263527 0.00047023959899705 -0.000431478106460612 8.84829762114263e-05 -0.000336143443411528 7.27247250516998e-05
"326" 0.00016709510466249 -3.4500127261337e-05 3.43466637577856e-05 -9.09138004888679e-06 0.000195461857692156 0.000173274628725827 0.000214761933954615 6.95514052589554e-05 -7.81682867202542e-05 0.000107219257276461 -0.000242302791492182 0.000467579646858421 -0.00043589698259056 8.31758669057172e-05 -0.00033788627919412 7.25927151585311e-05
"327" 0.000168500950430443 -3.65889491489107e-05 3.21843472415919e-05 -9.38195235768302e-06 0.000190384942699386 0.00017351989434188 0.000214354819670614 6.74691178439901e-05 -7.40638574517087e-05 0.000110143017573591 -0.000238293785968441 0.000464835803837226 -0.000439492558260473 7.82701090773544e-05 -0.000338729732605958 7.28862285845468e-05
"328" 0.000169741326229362 -3.84097401843953e-05 3.08435344079057e-05 -9.95722685969381e-06 0.00018560068150962 0.000173707103472798 0.00021423750498578 6.54082481819513e-05 -6.92863719063283e-05 0.000113390203759846 -0.000233721082603648 0.000461999084592641 -0.000442257179285893 7.37540626048639e-05 -0.000338680177683251 7.36046903963474e-05
"329" 0.000170827812177093 -3.99536983056061e-05 3.03329440384639e-05 -1.07935380292528e-05 0.000181130452491279 0.000173827083006696 0.000214394826347122 6.34137927132876e-05 -6.38707214197402e-05 0.000116931702154787 -0.000228613612085143 0.000459059799203223 -0.000444189935294283 6.96066681846023e-05 -0.000337749868394581 7.47413779353724e-05
"330" 0.000171763386123689 -4.1216249820212e-05 3.06613343280381e-05 -1.18628878275943e-05 0.000176981808394859 0.000173869937366779 0.000214818374488166 6.15376790227006e-05 -5.78573404985415e-05 0.000120732863230862 -0.000223002379214773 0.000456007034315962 -0.000445286867825695 6.58072911893731e-05 -0.00033594866769566 7.62886762578881e-05
"331" 0.000172557202929147 -4.21888613930224e-05 3.18321976175661e-05 -1.31371172169531e-05 0.00017316966671605 0.000173829142080218 0.000215493510683516 5.98321797545046e-05 -5.12816104713578e-05 0.000124769374520619 -0.000216916757755319 0.000452839651441612 -0.000445556577204828 6.23394990902821e-05 -0.000333303952335963 7.82369658913285e-05
"332" 0.000173213800897023 -4.28682455094109e-05 3.38376869395398e-05 -1.4586143070332e-05 0.000169702790647713 0.000173695748499303 0.000216407738862859 5.83429368327323e-05 -4.41917241991153e-05 0.000129011452815216 -0.000210391511238557 0.00044955261581982 -0.000445002257982574 5.9173547159601e-05 -0.000329836267502675 8.05699165736363e-05
"333" 0.000173752412110985 -4.32378883246443e-05 3.66753566258861e-05 -1.61740959179832e-05 0.000166601429663686 0.000173467560333193 0.000217562196764025 5.71309814821805e-05 -3.66272009396733e-05 0.00013343065125144 -0.0002034543286771 0.000446151734590334 -0.000443632715364851 5.62867220352216e-05 -0.000325572126526339 8.32768119114464e-05
"334" 0.000174179041553264 -4.32997985795024e-05 4.03280232374715e-05 -1.78692862523274e-05 0.000163868207677837 0.000173136112196832 0.000218937647367257 5.62396836079143e-05 -2.8641005880071e-05 0.000138003410314435 -0.000196147186628865 0.000442637551261578 -0.000441472424281794 5.36474056577402e-05 -0.000320551335556457 8.63275999282629e-05
"335" 0.000174511281695504 -4.30431181261936e-05 4.47762036594831e-05 -1.96329891756937e-05 0.000161515487905056 0.000172701087244851 0.000220529461758449 5.57224540636096e-05 -2.02729830853142e-05 0.00014270421439043 -0.000188499988014437 0.000439014932558485 -0.000438529708102436 5.1230090274764e-05 -0.00031480357320975 8.97093206003902e-05
"336" 0.000174763644306018 -4.24637832393185e-05 4.9997848699967e-05 -2.14282836406549e-05 0.000159545328375253 0.000172162779626643 0.000222327031097119 5.56268320804248e-05 -1.15814716492706e-05 0.000147509681905065 -0.000180554591770521 0.000435291638375654 -0.000434830557987209 4.90079148466317e-05 -0.000308372170688026 9.33907274074052e-05
"337" 0.00017495064281645 -4.15464645040197e-05 5.59638360614398e-05 -2.3220144369176e-05 0.000157972985757303 0.000171518946866267 0.000224325855272856 5.59985370629346e-05 -2.61358106423384e-06 0.000152397869069274 -0.000172346033735498 0.000431480145999891 -0.000430400155173223 4.69498390731098e-05 -0.000301304826477705 9.73475222276703e-05
"338" 0.000175094284871678 -4.02888930719455e-05 6.26379803853092e-05 -2.49671431120996e-05 0.000156794646702376 0.000170770929878566 0.000226516306662458 5.68789481311287e-05 6.57600525755046e-06 0.000157344706919871 -0.000163912472536834 0.000427589620253451 -0.000425264884409126 4.50233752031397e-05 -0.000293654741069118 0.000101548821384751
"339" 0.000175216001781182 -3.86793247878443e-05 6.99833864053646e-05 -2.66314029757485e-05 0.000156019806100017 0.000169925714126038 0.000228892230369192 5.83053176717401e-05 1.59422913470921e-05 0.000162334394513937 -0.000155295344897652 0.000423634125952589 -0.000419457926777497 4.32062276404441e-05 -0.000285469396219086 0.000105962334191553
"340" 0.000175332071494236 -3.67096754591329e-05 7.79545624100298e-05 -2.81764893048366e-05 0.000155649207945044 0.00016898357880836 0.000231442001833534 6.03123179021871e-05 2.54244193196791e-05 0.00016734587448105 -0.00014653304832329 0.000419629098569999 -0.000413017888933217 4.14628572130787e-05 -0.000276811631614461 0.000110553165494482
"341" 0.000175468890174651 -3.43690277296626e-05 8.65046885254206e-05 -2.95613713603841e-05 0.000155680561573529 0.00016795330520505 0.000234166521611331 6.29235958174722e-05 3.49778366291859e-05 0.000172360688219106 -0.000137663841311731 0.000415592246873284 -0.000405978624513742 3.97662981496932e-05 -0.000267740081166204 0.000115287616672869
"342" 0.000175650870232556 -3.16466920280794e-05 9.55856482103098e-05 -3.07507851609936e-05 0.00015611157746294 0.000166840210376182 0.00023705290224371 6.61623030693591e-05 4.45464230809514e-05 0.000177360779162209 -0.000128731584726346 0.000411537928523139 -0.000398387003473135 3.80936149871862e-05 -0.000258320459616668 0.000120127639305981
"343" 0.000175901172511266 -2.85318266008976e-05 0.000105138517100171 -3.17099548080771e-05 0.000156940476390511 0.000165655849061216 0.000240095928139021 7.0043584107975e-05 5.40806423275945e-05 0.000182330406116366 -0.000119774783274943 0.000407482463097196 -0.000390283662504034 3.64184838527759e-05 -0.000248623470537587 0.000125032912856919
"344" 0.000176248941645829 -2.5011885304559e-05 0.000115104778904993 -3.24031240491927e-05 0.000158158914335607 0.000164405485932357 0.000243289876354121 7.45724459132779e-05 6.35324063934594e-05 0.000187253414147367 -0.000110835361744036 0.000403448796172972 -0.000381721435083191 3.47175452696186e-05 -0.000238715397390352 0.000129965237023345
"345" 0.000176720733275926 -2.10734718490807e-05 0.000125424971006842 -3.27996610213964e-05 0.000159756738038608 0.000163100584443564 0.000246624017529183 7.97561828443336e-05 7.28510721643636e-05 0.000192112404450088 -0.000101952968339271 0.000399447383319214 -0.000372748667446478 3.29648814483008e-05 -0.000228673837842025 0.000134880828944484
