"V1" "V2" "V4" "V5" "V7" "V8" "V10" "V11" "V13" "V14" "V15" "V17" "V18" "V20" "V21" "V23"
"1" -0.000179476948055897 3.79603715889582e-05 6.95560489809209e-05 0.000112552878106684 -0.000263154004056194 -3.77723405716776e-05 0.000268684467954823 -0.000186750150375605 -7.2410197352819e-05 0.000172880752534879 -0.000839153294891872 0.000367815418335854 0.000245141612118544 0.000163442576195272 -6.40387284549918e-05 0.000196420263686051
"2" -0.000163577357994525 6.33495799551178e-05 0.00010881378692582 0.000128795259242317 -0.000254665338254359 -3.37475615116293e-05 0.00027397210060534 -0.000195877322939969 -6.05239791616335e-05 0.000177633738076221 -0.000839993634212287 0.000346905189675102 0.000235081249323744 0.000160037932410991 -4.61184601231218e-05 0.000209022289559394
"3" -0.000147473805594078 8.94571385528171e-05 0.000147249315323421 0.000144834149911321 -0.000245183043662732 -2.88210688642751e-05 0.000280122977043317 -0.000203406738424323 -4.93348589425086e-05 0.000182793042541734 -0.000840553268442591 0.000326078813629294 0.00022582666470921 0.000156246707457357 -2.79711983516176e-05 0.000222767943360271
"4" -0.000131167764305466 0.000116226848059193 0.000184768574069576 0.000160657770473786 -0.00023461698633368 -2.29134587761296e-05 0.00028721093866541 -0.000209136456225357 -3.88470436301429e-05 0.000188343636011818 -0.000840725358313024 0.000305477616382317 0.000217481682234265 0.000152117403714294 -9.71694708422761e-06 0.000237535342533987
"5" -0.000114668508768942 0.000143601458743202 0.000221282187747949 0.000176252162151978 -0.000222886183716931 -1.59498908272649e-05 0.000295298320553711 -0.000212895913152782 -2.90589595626737e-05 0.000194263351970731 -0.000840405143385069 0.000285238753372815 0.000210131339453647 0.00014769506111785 8.52213687175086e-06 0.000253181900172819
"6" -9.79917890098053e-05 0.000171520316462247 0.000256726014003339 0.000191609703955116 -0.00020992035613249 -7.87411549277981e-06 0.000304442461285077 -0.000214507222673605 -1.9971775055666e-05 0.000200518298306158 -0.00083948395842644 0.000265493733476162 0.000203848846039853 0.00014302006422044 2.66233109712182e-05 0.000269551449368908
"7" -8.11656867187244e-05 0.000199919648223857 0.00029103024933789 0.000206717512347327 -0.00019565420647657 1.36428718419045e-06 0.000314675530727739 -0.000213826228449778 -1.15657163647565e-05 0.000207076335555091 -0.000837854106129039 0.000246369756847326 0.000198699490451704 0.000138127629146847 4.44617154670995e-05 0.000286469331994834
"8" -6.42246426133578e-05 0.000228733583648807 0.000324148427264522 0.000221560834809746 -0.000180042887781623 1.18057879430254e-05 0.000326022276760424 -0.000210716629339066 -3.83068329347056e-06 0.000213888448093489 -0.00083541004374382 0.000227985138306768 0.000194732561310856 0.000133050810249563 6.19129753802858e-05 0.000303754080015726
"9" -4.72073918846513e-05 0.000257882404984793 0.000356031999197065 0.000236129221296821 -0.000163049700541184 2.34674641755001e-05 0.00033849115385449 -0.000205072538542686 3.25577054457593e-06 0.000220907489666252 -0.000832052336117922 0.000210452151334388 0.00019197815793932 0.000127818608076387 7.88548286040733e-05 0.000321210284039094
"10" -3.01642926659593e-05 0.000287288901660308 0.000386642578178647 0.000250402986145575 -0.000144657590909991 3.63660310657841e-05 0.000352077919738053 -0.000196798307420053 9.71705901285575e-06 0.000228076357627708 -0.000827686444456889 0.000193869895751517 0.000190460377439305 0.000122450232550389 9.51614747372282e-05 0.000338637006484226
"11" -1.31560914085555e-05 0.000316866048662355 0.000415944413574228 0.000264365957259751 -0.00012486388489496 5.04920292876347e-05 0.000366757386660084 -0.000185833115506134 1.55836261932937e-05 0.000235328929005001 -0.000822224670562574 0.000178329860681782 0.000190181734021798 0.000116969044303622 0.000110711505685242 0.00035583799204199
"12" 3.76391599606392e-06 0.000346514134429677 0.000443894963592185 0.000277993327318936 -0.000103688095376189 6.58261716813427e-05 0.000382490695240888 -0.000172148192001608 2.08879101041537e-05 0.00024260078400916 -0.000815586146006771 0.00016391576955118 0.000191131053069986 0.000111393983522664 0.00012539031734494 0.000372612945290541
"13" 2.05222405189895e-05 0.000376139323339037 0.000470467533459336 0.000291260923024098 -8.11660579737909e-05 8.23327548625433e-05 0.000399223337105874 -0.000155727222500188 2.56591673515286e-05 0.000249815755923069 -0.000807708310582212 0.000150690896856672 0.000193282269255329 0.000105733005106107 0.000139081226905171 0.000388766886844442
"14" 3.70511325988175e-05 0.00040562821472954 0.000495623284677177 0.000304143074531883 -5.73553936233683e-05 9.99632915785481e-05 0.000416889599869961 -0.000136598401558761 2.99386808023494e-05 0.000256894104679294 -0.000798537228393768 0.000138709221856398 0.000196586957003559 0.000100000725314789 0.000151669392922462 0.000404113039282368
"15" 5.32746812467331e-05 0.000434861541874473 0.000519325116807891 0.000316601793306766 -3.23321081566207e-05 0.000118640775121319 0.000435406576819376 -0.00011481395951884 3.37562332591418e-05 0.000263753898284945 -0.000788036482223018 0.000128012253678928 0.000200986562344157 9.42039079750718e-05 0.000163049971212144 0.000418479804703371
"16" 6.91146265584317e-05 0.000463720156394063 0.000541536633384619 0.000328603792771809 -6.19420905507365e-06 0.000138286048868113 0.000454669679746882 -9.04593601563348e-05 3.7149250829146e-05 0.00027030605336246 -0.000776183645960312 0.000118617484441058 0.000206401987728842 8.83499323057861e-05 0.000173126744099365 0.000431708347384923
"17" 8.4494658906069e-05 0.000492072321379744 0.000562219055919255 0.000340110019055382 2.09355812600352e-05 0.000158795871870955 0.000474570118055765 -6.36489681619573e-05 4.01508464986761e-05 0.000276459377334075 -0.000762973922741198 0.000110533954787532 0.000212739957077413 8.24385352780014e-05 0.000181797603950471 0.000443652080612917
"18" 9.93314003904854e-05 0.000519783731832244 0.000581323481487712 0.000351074414363301 4.8921426281002e-05 0.000180050751695864 0.000494980681814054 -3.45399701491086e-05 4.27943035746935e-05 0.000282120523177233 -0.000748421735543216 0.00010374982640629 0.000219886396975895 7.64723182077313e-05 0.00018897530554307 0.000454188404240713
"19" 0.000113546968831065 0.000546713646748857 0.000598811440781695 0.00036145117254238 7.76058435549339e-05 0.000201922134727662 0.000515762848811096 -3.30145892424918e-06 4.51121148603485e-05 0.000287199257818351 -0.000732560012955694 9.82425224360369e-05 0.000227722980451987 7.04534573696779e-05 0.000194587692178329 0.000463212360387824
"20" 0.000127055403898756 0.000572718516716486 0.000614631925189411 0.000371191046404462 0.000106808913026515 0.000224259823618043 0.00053676522070646 2.98499561103482e-05 4.71331134634602e-05 0.000291601982485673 -0.000715439349443883 9.39698162651244e-05 0.000236107890542668 6.43776275105824e-05 0.000198557848654593 0.000470645229567448
"21" 0.000139780821014532 0.000597653703940993 0.000628742990323537 0.000380241044251105 0.000136342463748641 0.000246907382484957 0.000557831203003595 6.4679833834346e-05 4.88818651269219e-05 0.000295237386819612 -0.000697129480825911 9.08709256803978e-05 0.000244894945907654 5.82443768904297e-05 0.000200830604034623 0.000476420319816756
"22" 0.000151639756398338 0.000621374208890165 0.00064109440932391 0.000388546022493741 0.000165996276237218 0.00026968834502459 0.00057879005200419 0.000100926124987933 5.03899540561551e-05 0.000298020211727053 -0.000677717163567715 8.88800509818028e-05 0.000253931022243704 5.20495996365761e-05 0.000201356661566798 0.000480504489345394
"23" 0.000162561188887654 0.00064373148456692 0.00065164016605386 0.000396049896924525 0.000195549527251585 0.000292426642382065 0.000599465292925815 0.000138297703471726 5.16788446988551e-05 0.000299866280920066 -0.00065730875879858 8.79131293006932e-05 0.000263048430510184 4.57935401672616e-05 0.000200100769379459 0.000482882165600004
"24" 0.000172464343950599 0.000664586567168303 0.000660341281585392 0.000402696640745815 0.00022476992437149 0.000314926877619586 0.000619673903025331 0.000176492582881656 5.2768736058667e-05 0.000300706730753855 -0.000636022000124811 8.78825303675723e-05 0.000272089290478102 3.94697348737482e-05 0.000197041018768271 0.000483554157327702
"25" 0.00018128122930057 0.000683802432631893 0.000667156669805529 0.000408431558701471 0.000253424413936106 0.000336995531533996 0.000639228603805423 0.000215187425132228 5.36871655746356e-05 0.000300472405539762 -0.000613987172329436 8.86901857810401e-05 0.000280882936132275 3.30800527483505e-05 0.000192171650857442 0.000482547576321022
"26" 0.000188941532527607 0.000701249504120396 0.000672056228275759 0.000413196389699984 0.000281269838424717 0.000358432816865051 0.000657942729982009 0.000254043484691799 5.44548679835081e-05 0.000299110934874287 -0.000591346762794396 9.02314987015913e-05 0.000289270571951721 2.66243787578078e-05 0.000185499833049195 0.000479903341538672
"27" 0.000195381918227764 0.000716802593605545 0.000675012091782535 0.000416939000287351 0.00030806245402829 0.000379035724914071 0.000675625066878469 0.000292721040437814 5.50915840659898e-05 0.000296579278720514 -0.000568257249431615 9.23995322997784e-05 0.000297096954051444 2.01063509552383e-05 0.000177046531703709 0.000475682162473767
"28" 0.000200541449012239 0.000730352602394906 0.000676009104802811 0.000419609395212535 0.000333558627551418 0.000398603209885109 0.000692085803583533 0.000330869770320561 5.56248597414484e-05 0.000292852406028498 -0.000544873660630882 9.50905796055957e-05 0.000304214428982325 1.35326347708978e-05 0.000166853433093331 0.000469954949809761
"29" 0.000204367050660964 0.000741800495735408 0.00067503726858273 0.000421160055487362 0.000357520780374225 0.00041693584661343 0.000707136630169863 0.000368140086846792 5.60800073897895e-05 0.000287914771877209 -0.000521360945499049 9.82020068487461e-05 0.000310490357759342 6.90663995678446e-06 0.000154975291409887 0.00046280498594037
"30" 0.00020680586403039 0.000751061676220422 0.000672105900156668 0.000421551017454474 0.000379725370659925 0.000433846624498401 0.00072060341679687 0.000404192736579645 5.64843127968995e-05 0.000281767912443363 -0.000497879585768746 0.000101636286089694 0.000315802883270717 2.42382448671769e-07 0.000141484968998981 0.000454325371057641
"31" 0.000207817851061858 0.000758065887218781 0.000667226840764283 0.000420745700597733 0.000399951859245813 0.00044914634264098 0.000732307672398255 0.000438695717368466 5.68659910560055e-05 0.00027443500431622 -0.00047459310716923 0.000105302548526525 0.000320051755754386 -6.44784287686666e-06 0.000126468444293613 0.000444617816542978
"32" 0.000207362686404026 0.000762759624217653 0.000660435097428218 0.000418714216427544 0.000417997494963986 0.000462665442337703 0.000742087869163735 0.000471328327804239 5.72568524626258e-05 0.000265947845295806 -0.000451664130539566 0.000109116211716562 0.000323155462371145 -1.31433060734472e-05 0.000110033449991077 0.000433788075637043
"33" 0.000205413154121964 0.000765111714244924 0.000651765517038908 0.000415436436727714 0.000433680127809743 0.00047424695743439 0.000749791092543895 0.000501788857737103 5.76972633407473e-05 0.000256362183051507 -0.000429236968446596 0.0001130115876742 0.000325053880609362 -1.98267647257095e-05 9.22950434730778e-05 0.00042194208785782
"34" 0.000201950872444937 0.000765103815767388 0.000641279953605518 0.000410895049821204 0.000446829650459248 0.000483742137013079 0.000755280023584182 0.000529803591113145 5.82201598773881e-05 0.000245745374687282 -0.000407464629863822 0.00011692189374318 0.000325700867485018 -2.646847286126e-05 7.3384354264942e-05 0.000409195522757876
"35" 0.000196963986679874 0.000762740251100474 0.000629043516987528 0.000405091228931462 0.000457306162927127 0.000491027891859169 0.000758434502943161 0.000555114417501686 5.88653957946548e-05 0.000234180206233786 -0.000386474720785642 0.000120799479473671 0.000325081413117232 -3.30460125885362e-05 5.34452988080068e-05 0.000395658916342723
"36" 0.000190449834219284 0.000758048800487168 0.000615144212168546 0.000398030237144414 0.000464991913643283 0.000495999691390297 0.00075914861482486 0.000577507593192167 5.96737316131265e-05 0.000221764479405907 -0.00036639190389729 0.000124609443728832 0.000323194388807553 -3.95265037070885e-05 3.26339028711654e-05 0.000381438781127499
"37" 0.00018241818234476 0.000751068081951296 0.000599670867835844 0.000389725664902284 0.000469789956551674 0.000498565595989641 0.000757337272338077 0.000596781805517535 6.06905093329705e-05 0.000208605732678343 -0.000347327593152875 0.000128322752850175 0.000320066740227337 -4.5877962728588e-05 1.11089453620549e-05 0.000366653061147932
"38" 0.000172893229778493 0.000741867498629215 0.000582736337601353 0.000380207235828458 0.000471637913659575 0.000498671973130257 0.000752939862844324 0.000612785486192696 6.195222738804e-05 0.000194824291374474 -0.000329378474699577 0.000131923216721312 0.000315735373467961 -5.20631469204981e-05 -1.09584344741769e-05 0.000351405179327174
"39" 0.000161909703315976 0.000730527165031769 0.000564455700455986 0.000369509766473156 0.000470496300493062 0.000496271344925681 0.000745913593173306 0.000625395790668383 6.35004987683766e-05 0.000180542375904639 -0.00031262215398665 0.00013540604861765 0.00031026397301249 -5.80494585435117e-05 -3.33973035587083e-05 0.00033580594820248
"40" 0.000149513767750883 0.000717157703207229 0.000544961012920693 0.000357686001738333 0.000466363637362952 0.000491354411926483 0.000736247168477635 0.00063453185338907 6.53741559045825e-05 0.000165893262085524 -0.000297124582852048 0.000138768965658027 0.000303724140235659 -6.37974798746953e-05 -5.60354350877227e-05 0.00031996049908241
"41" 0.000135769453096617 0.000701875626721999 0.0005243760545573 0.000344795217889856 0.000459250993720773 0.000483930806390328 0.0007239452846509 0.000640140700853189 6.76069765783181e-05 0.000151007667990627 -0.000282943608582139 0.000142018227626183 0.000296204794982735 -6.92703834352944e-05 -7.87010890622424e-05 0.000303984118073542
"42" 0.000120752094518626 0.000684818203312775 0.000502849748955808 0.000330906378637945 0.000449212878545817 0.000474031947924813 0.000709046119884545 0.000642217084189999 7.0228098912953e-05 0.000136019829582627 -0.000270109858996645 0.000145163477889341 0.000287804931134055 -7.44363422268198e-05 -0.000101220618941521 0.000287977366270354
"43" 0.000104558956226842 0.000666143347185625 0.000480526828831996 0.000316105516246076 0.000436325069614252 0.000461718405964297 0.000691607989412614 0.000640790002593689 7.32611932459747e-05 0.000121056897431337 -0.000258649400762307 0.000148220056648278 0.000278626760865685 -7.92565232633935e-05 -0.000123435365787228 0.000272048485968169
"44" 8.7291794658697e-05 0.000646018559177664 0.000457554434539298 0.000300484725712503 0.000420693858978376 0.000447071569732847 0.000671721367390756 0.000635918752461377 7.67219488385763e-05 0.000106241465614838 -0.000248565550333633 0.000151195195757536 0.000268781340649995 -8.37012865971316e-05 -0.000145184725843876 0.000256307771847631
"45" 6.90731913563545e-05 0.000624617789987193 0.000434076448321774 0.000284139962189554 0.000402442769854713 0.000430198755784818 0.000649492501305837 0.000627701651298034 8.06203054996675e-05 9.16945704221587e-05 -0.000239854654157512 0.000154100767016482 0.000258381340773662 -8.77383832644915e-05 -0.000166318767266527 0.000240868988102412
"46" 5.00378656308795e-05 0.000602132067755629 0.00041024818323303 0.000267185170058948 0.000381730785509435 0.000411220977110628 0.00062506160442699 0.00061626818161164 8.49565700383941e-05 7.75215810011904e-05 -0.000232497943476289 0.000156942526895789 0.000247537006914062 -9.13424788313487e-05 -0.000186707694118825 0.0002258411982641
"47" 3.03307829422765e-05 0.00057876070031159 0.000386209091374765 0.00024973600997661 0.000358728473515874 0.000390290456615773 0.00059858293221278 0.000601776551397789 8.97254181840572e-05 6.38226438721402e-05 -0.00022646626948138 0.0001597263801918 0.000236359494186802 -9.44872541580703e-05 -0.000206219179641561 0.0002113418959376
"48" 1.01197863551835e-05 0.000554694250726513 0.000362099338856759 0.000231912048333187 0.00033362680764799 0.000367563615880328 0.000570234518365476 0.000584408328657254 9.49128293763018e-05 5.06830103055403e-05 -0.000221714241320288 0.000162447378864385 0.000224952553664293 -9.71546935755113e-05 -0.000224740548360053 0.000197488088363686
"49" -1.04347803825349e-05 0.000530143733199462 0.000338058685406806 0.000213841275043012 0.000306636790381315 0.000343218657742504 0.00054021486859832 0.000564376695187012 0.000100490886307593 3.8178151721114e-05 -0.00021819175241615 0.000165100951877651 0.000213415280845019 -9.93247673210016e-05 -0.00024217649617108 0.000184392450669864
"50" -3.11461333415365e-05 0.000505307630336675 0.000314214367076994 0.000195652652672612 0.000277982995559115 0.000317450420129168 0.000508736136158596 0.000541905514414646 0.000106430063451043 2.63740943572723e-05 -0.000215834268464303 0.000167670500730839 0.000201842475992386 -0.00010098606307841 -0.00025843277838563 0.000172176345161544
"51" -5.18327029875721e-05 0.00048039023483925 0.000290692357565567 0.000177480729314267 0.000247896809578346 0.000290457443126304 0.000476025694868024 0.000517247365249954 0.000112695072529734 1.53244715657006e-05 -0.00021457067195013 0.000170140423396462 0.000190322254686678 -0.00010212888435879 -0.00027343980781515 0.000160951377147182
"52" -7.23002485546372e-05 0.000455584955145966 0.000267604385316856 0.000159453780966619 0.000216622805509914 0.000262450054486491 0.000442319752557388 0.000490655535866699 0.000119235270822649 5.06805596445451e-06 -0.000214315323425203 0.000172487439931338 0.000178929691495577 -0.000102745882691623 -0.000287136454891724 0.000150833555927691
"53" -9.23584974036811e-05 0.000431083867821727 0.000245059392176345 0.000141703344490501 0.000184408969621474 0.000233643575703139 0.000407861736974113 0.000462407433114218 0.00012600765982514 -4.36252589141981e-06 -0.000214985792557119 0.000174682485354224 0.000167737951512505 -0.000102833943768563 -0.000299470667394181 0.000141930839230568
"54" -0.000111816013990265 0.000407068015997819 0.000223158357086264 0.000124360912610614 0.000151511417390344 0.000204260469103401 0.000372904460036727 0.00043277753838066 0.000132954536754368 -1.29425247004767e-05 -0.000216476416725267 0.000176700802517652 0.000156814808310105 -0.000102391598299797 -0.000310407417687148 0.000134343428924174
"55" -0.000130472554887351 0.000383716700907169 0.000201994015493969 0.000107551462323438 0.000118184332751778 0.000174522047413191 0.00033770063566031 0.000402059357882643 0.000140024141654414 -2.06585825065294e-05 -0.000218681937142683 0.000178512005764181 0.000146214740050637 -0.000101420817611323 -0.000319919787123904 0.00012816578599501
"56" -0.000148144030106831 0.000361191243833543 0.000181648955265016 9.13951228734855e-05 8.46801122549599e-05 0.000144646437004213 0.000302500433783623 0.000370534322114755 0.000147160029534985 -2.75039673755095e-05 -0.000221490275293233 0.000180086368955171 0.000135993798932566 -9.9929418230603e-05 -0.000327989868782255 0.000123481747017598
"57" -0.000164648465624793 0.00033964211697363 0.000162202903752604 7.60084793723644e-05 5.1255141731918e-05 0.000114856974457165 0.000267548200337658 0.000338498014021351 0.00015430753501537 -3.34764444004173e-05 -0.000224775587664815 0.000181400550088916 0.000126202052771543 -9.79194457305871e-05 -0.000334610240129154 0.000120360097247014
"58" -0.000179809135541029 0.000319213129964471 0.000143722700109424 6.15039249140982e-05 1.81515135042464e-05 8.53667778239387e-05 0.000233094407074948 0.000306231726560963 0.000161406765236896 -3.85783014917846e-05 -0.000228410170175865 0.000182431598546577 0.00011688638847546 -9.54039478157818e-05 -0.000339781427563197 0.000118861172466448
"59" -0.000193463580396151 0.0003000351387394 0.000126279725478603 4.79850592850163e-05 -1.43819638769356e-05 5.63894359237815e-05 0.000199367153339133 0.000274025334636224 0.000168416809874729 -4.2818996278635e-05 -0.000232255455181 0.000183163757697821 0.000108091820006824 -9.23907943550293e-05 -0.000343514275912135 0.000119022595591785
"60" -0.000205459806099598 0.000282226149644801 0.000109932539171639 3.55519518938909e-05 -4.61150241560389e-05 2.81260504061836e-05 0.00016659879935446 0.000242163678027473 0.000175283570094559 -4.6205593547495e-05 -0.000236166622650442 0.000183586141909405 9.98604929658929e-05 -8.8894453830614e-05 -0.000345820622476758 0.000120868859047054
"61" -0.000215652632286265 0.000265887571986695 9.47338666572039e-05 2.42913766957152e-05 -7.68179718155554e-05 7.73947716389124e-07 0.000135000232961137 0.000210913904617383 0.000181972511913626 -4.87531495153492e-05 -0.000239990478867169 0.000183702093678204 9.22364198931956e-05 -8.49271301414217e-05 -0.000346722650788853 0.00012440371075708
"62" -0.000223918711416391 0.000251110579314297 8.07352041238362e-05 1.42882478757202e-05 -0.00010627425952127 -2.54802831722068e-05 0.000104771070083806 0.000180548722448639 0.00018844320149494 -5.04756965793494e-05 -0.000243574118901716 0.000183517687656783 8.526279782928e-05 -8.05055865911961e-05 -0.000346246108965897 0.000129615280968792
"63" -0.000230149276334703 0.000237980176488187 6.7983338740665e-05 5.61831031881607e-06 -0.000134277982349313 -5.04553817482333e-05 7.60990385169646e-05 0.000151328684574249 0.000194670671413064 -5.13890111989456e-05 -0.000246747181158863 0.000183055301142597 7.89854638794865e-05 -7.56465874273229e-05 -0.000344423149888055 0.000136465605188661
"64" -0.00023424599632725 0.000226560623141849 5.65219226677105e-05 -1.65284517846235e-06 -0.000160632673724913 -7.39857339414669e-05 4.91539949992624e-05 0.000123495053080874 0.0002006358002317 -5.15118469006964e-05 -0.000249349817361513 0.000182337742163889 7.34467522400741e-05 -7.03657098108969e-05 -0.000341289923450065 0.000144905195858425
"65" -0.000236138123872441 0.000216905580225557 4.63860273860401e-05 -7.46629695218661e-06 -0.00018515975743428 -9.59145175067144e-05 2.40947477347263e-05 9.72875979347043e-05 0.000206321326444134 -5.08592785471089e-05 -0.000251211004222798 0.000181407858234653 6.86954656414839e-05 -6.46834399078189e-05 -0.000336889309009343 0.000154857682847595
"66" -0.000235763374361772 0.000209061145068308 3.76152785569343e-05 -1.17700724677508e-05 -0.000207686553798336 -0.000116097038697911 1.05431666655985e-06 7.29324797369734e-05 0.000211724751393789 -4.94561592876638e-05 -0.000252158408449719 0.000180311604457472 6.4774545481575e-05 -5.86238993840964e-05 -0.000331263189437936 0.000166235155732696
"67" -0.000233076341190991 0.00020305735512186 3.02390290302395e-05 -1.45263570508331e-05 -0.000228062624003099 -0.000134401344583906 -1.98465645403523e-05 5.06328491655371e-05 0.000216844091839813 -4.73204618251629e-05 -0.000252024050205282 0.000179106607043843 6.17318493907207e-05 -5.22035090986864e-05 -0.000324459954330993 0.000178928666811589
"68" -0.000228059107844875 0.000198913841377439 2.42790072056874e-05 -1.56993523982397e-05 -0.000246150618616563 -0.000150712990444201 -3.85077119483154e-05 3.05843523639779e-05 0.000221687482298277 -4.44735446850828e-05 -0.000250643255469184 0.000177856314810176 5.96131663131081e-05 -4.54539555471915e-05 -0.000316533539833401 0.000192815506053211
"69" -0.000220702028546811 0.000196637905614058 1.9759442763768e-05 -1.52690226914354e-05 -0.000261831591647246 -0.000164925636345764 -5.48459807458113e-05 1.29601421892442e-05 0.00022627100943196 -4.09440166014312e-05 -0.000247852547408864 0.000176631584823263 5.84589180370975e-05 -3.83950833103697e-05 -0.00030754002677851 0.000207762920783113
"70" -0.000211015567485865 0.000196225576445949 1.66970453794815e-05 -1.32184920530139e-05 -0.000275002110290621 -0.000176953658396793 -6.87970696494532e-05 -2.08666086828874e-06 0.000230609492816755 -3.67549024205352e-05 -0.000243500301003077 0.000175504257522477 5.83073218559271e-05 -3.10564929656773e-05 -0.000297540202741183 0.000223625902746065
"71" -0.000199033317633929 0.000197660939334519 1.50952623845787e-05 -9.54918916199848e-06 -0.000285578615404434 -0.000186726225202062 -8.03162067175662e-05 -1.44215291699076e-05 0.000234729017265105 -3.19375289687429e-05 -0.000237441561890228 0.000174556497680966 5.91969045555978e-05 -2.34673948534998e-05 -0.000286596137571385 0.000240248493337777
"72" -0.000184802307770685 0.000200911885637317 1.49551240645502e-05 -4.266776124801e-06 -0.000293500927302392 -0.000194185216620232 -8.9377744416826e-05 -2.39396399139991e-05 0.00023865662595622 -2.65220501759009e-05 -0.000229551890638177 0.000173858795425013 6.1149934413403e-05 -1.56629091934292e-05 -0.00027477431576376 0.000257477838196257
"73" -0.000168378653699129 0.000205939833848465 1.62721768674043e-05 2.61000436929048e-06 -0.000298722857382744 -0.000199296981658174 -9.59743428428234e-05 -3.05496546087834e-05 0.000242416661993222 -2.05429324419036e-05 -0.000219716538433725 0.000173485669220759 6.41895201259415e-05 -7.67121751475481e-06 -0.000262145004632342 0.000275157644305142
"74" -0.000149844661269598 0.000212688831259734 1.9027524582188e-05 1.10533318714931e-05 -0.00030123007252632 -0.000202038585698794 -0.000100117897894337 -3.41990959915142e-05 0.000246039828137893 -1.40383748608001e-05 -0.000207841857682311 0.00017350786158212 6.83240618709782e-05 4.66749819572743e-07 -0.000248782707869292 0.000293126613676152
"75" -0.000129295345288192 0.000221092336296043 2.31902061167385e-05 2.1017513159041e-05 -0.000301023249125139 -0.000202415323623274 -0.000101834496737406 -3.48575951440987e-05 0.000249559281986205 -7.04726981836976e-06 -0.000193854298305662 0.000173990833119766 7.35528766694254e-05 8.71817159088876e-06 -0.00023475836399816 0.000311237023002002
"76" -0.000106829904097556 0.000231069368898321 2.87272608178001e-05 3.24528210360182e-05 -0.000298127065121675 -0.000200442120301977 -0.000101176931655131 -3.25223576123933e-05 0.000252998287955329 3.84146274854422e-07 -0.000177709358672289 0.000174983617835446 7.98605896607304e-05 1.70376667996929e-05 -0.000220154841509085 0.00032934374408542
"77" -8.25757740459951e-05 0.000242530610081726 3.5586874735646e-05 4.52912032227562e-05 -0.000292592304302344 -0.000196158437276342 -9.82074904233794e-05 -2.7228551446545e-05 0.000256383375555892 8.21048999366462e-06 -0.000159380136153233 0.000176534967871012 8.72243611343995e-05 2.53882549193628e-05 -0.000205048602338529 0.000347312841353528
"78" -5.66640878404939e-05 0.00025536990391205 4.37160745591974e-05 5.94596463422593e-05 -0.000284490110407682 -0.000189620123829903 -9.30025634299963e-05 -1.90277896464311e-05 0.000259739457601057 1.63827800988134e-05 -0.000138872014058998 0.000178677464342221 9.56038446910998e-05 3.37244181630812e-05 -0.000189521397006741 0.000365021083206397
"79" -2.9235357235347e-05 0.000269471859705952 5.30362614864518e-05 7.48661317348293e-05 -0.000273914876629437 -0.000180905670650288 -8.56667585530419e-05 -8.01940985134029e-06 0.000263086096804459 2.48470735706042e-05 -0.000116221197434924 0.000181428393439382 0.000104946077030595 4.20032203364832e-05 -0.000173654293804557 0.000382358698222363
"80" -4.47991001952748e-07 0.000284709072257534 6.34669532833032e-05 9.14105936579724e-05 -0.000260986856810418 -0.000170110176843819 -7.63104066231328e-05 5.68220394844761e-06 0.000266437579256163 3.3551673601116e-05 -9.1487754191288e-05 0.000184795262484694 0.000115182308033174 5.01751635678102e-05 -0.000157534581438627 0.000399236816123412
"81" 2.95402853638347e-05 0.000300941580633234 7.49165016431714e-05 0.000108984274650886 -0.000245847138610568 -0.000157344401429946 -6.50513983770142e-05 2.19270071552822e-05 0.000269806665001383 4.24440928200481e-05 -6.47574981342917e-05 0.000188773479567114 0.000126233625555698 5.8198991772102e-05 -0.000141237614004076 0.000415570895806663
"82" 6.05521828971417e-05 0.000318029492085593 8.72832689095554e-05 0.000127462748821893 -0.000228645260779725 -0.000142741823429124 -5.20376570676368e-05 4.05376723860255e-05 0.0002731985373819 5.14647290326271e-05 -3.61563638240477e-05 0.00019333689616359 0.000138006070098855 6.60192252094621e-05 -0.000124848525475414 0.000431302792079709
"83" 9.24148570012484e-05 0.000335810793142901 0.000100453206808138 0.000146718705497042 -0.000209567869081968 -0.000126446444673167 -3.74182982899101e-05 6.13083165941545e-05 0.000276614587492434 6.05614706407118e-05 -5.82820243824881e-06 0.000198459897060723 0.000150396922922711 7.35959499878818e-05 -0.000108447150741098 0.000446382277750234
"84" 0.000124941378651747 0.000354128308674237 0.000114305760647889 0.000166609176433746 -0.000188810533720224 -0.000108619813268197 -2.13518713440774e-05 8.40145438612172e-05 0.000280055057953572 6.96819691886323e-05 2.60550637147152e-05 0.000204093139148998 0.000163294893079246 8.08783489358387e-05 -9.21081903686845e-05 0.000460778513898969
"85" 0.000157943624971219 0.000372812729570821 0.000128714130757898 0.000186986932118363 -0.000166576593377034 -8.94374561362431e-05 -4.01029534570868e-06 0.0001084069714082 0.000283512789804666 7.87741367741587e-05 5.92955555800463e-05 0.000210180932947384 0.000176577074555534 8.78200504415395e-05 -7.5905793939069e-05 0.000474474390585523
"86" 0.000191230364997186 0.000391697552710253 0.000143548752275349 0.000207702902659361 -0.000143091703642347 -6.90819618697588e-05 1.44264968395732e-05 0.000134223894897824 0.000286979139258342 8.77921935797439e-05 9.36779314323923e-05 0.000216667409165962 0.000190123886927599 9.43789853578972e-05 -5.99083314237209e-05 0.000487460998014032
"87" 0.000224607530240528 0.000410608924446232 0.000158669068291519 0.000228593630821352 -0.000118587732353259 -4.77491651326385e-05 3.37743807858585e-05 0.000161182737517248 0.000290442119214368 9.66935837716651e-05 0.00012896273875814 0.00022347766156125 0.000203805418119164 0.000100510541439101 -4.41831899279739e-05 0.000499742995557061
"88" 0.000257875960487487 0.000429376429105658 0.000173943229665208 0.000249500875063248 -9.3304736988348e-05 -2.56391746826781e-05 5.38410638943087e-05 0.000188993354865803 0.000293889980066507 0.00010544189224511 0.000164901436017727 0.000230543974505155 0.00021749242095847 0.000106174918741839 -2.87859145878989e-05 0.000511329746479793
"89" 0.000290845967228998 0.000447831001706625 0.000189223710506395 0.000270262309832781 -6.74808811728268e-05 -2.95849548229242e-06 7.44395373820297e-05 0.00021736218648718 0.000297308100935018 0.000114001129946837 0.000201229649095321 0.000237784893077781 0.000231064220002421 0.000111335085007505 -1.37689914884887e-05 0.000522246955034815
"90" 0.000323324534794733 0.000465803953067792 0.000204375753842632 0.000290711174189106 -4.13684419984506e-05 2.00823261772047e-05 9.53654632891736e-05 0.000245981655086439 0.000300682098078051 0.000122352413285665 0.000237676502435213 0.000245133140693336 0.000244396417207384 0.000115960615991605 8.16225437344776e-07 0.000532511481775126
"91" 0.000355120628738733 0.000483139285735423 0.000219267634044521 0.000310690094895154 -1.5205769133631e-05 4.3279631395212e-05 0.000116431605583863 0.000274559453467538 0.000303998973485837 0.000130472914811853 0.000273967280649004 0.00025250786509679 0.000257377973185493 0.000120015279536714 1.49370183937812e-05 0.000542152804547105
"92" 0.000386049537514534 0.000499684126653541 0.000233766169401245 0.000330038194205162 1.07628265511513e-05 6.6422534523024e-05 0.000137443919705477 0.000302797447860196 0.000307242343552456 0.000138356789729534 0.000309823981936119 0.000259848548647689 0.000269900743803199 0.00012348052168836 2.85570569857701e-05 0.000551195299041896
"93" 0.000415933800900661 0.000515293184949669 0.000247742931891686 0.000348603888797481 3.63070603120668e-05 8.93133900116532e-05 0.000158216755439845 0.000330409504657908 0.000310400085253423 0.000145997422377383 0.00034497089177917 0.000267085253853154 0.000281872853505093 0.000126333840557266 4.16493617924107e-05 0.000559667067587417
"94" 0.000444604389663303 0.00052983274160531 0.000261081546961333 0.000366237877190162 6.11990283491293e-05 0.000111750029138538 0.000178566037092592 0.0003571172831104 0.000313465906579334 0.000153402571978371 0.000379135671590874 0.000274161903775271 0.000293207822885779 0.000128557161978989 5.42023925709554e-05 0.000567594796520847
"95" 0.000471897891191142 0.000543179885913171 0.000273671458912604 0.000382800252306868 8.52290356528831e-05 0.000133551392960467 0.000198312848290447 0.000382660203641849 0.000316422921119378 0.000160579355589182 0.000412064005363791 0.000281028251572258 0.000303837447160396 0.000130140330547947 6.61962474424814e-05 0.000574994591853655
"96" 0.000497665775467539 0.000555226803607262 0.000285407731617499 0.000398164016007468 0.000108192902523254 0.000154538974807595 0.00021729754597697 0.000406795928458658 0.000319272747072351 0.000167547339328804 0.00044350113954779 0.000287643543639775 0.000313702351002778 0.000131076602939771 7.76341297812738e-05 0.000581891783133094
"97" 0.000521768400476153 0.000565874141482899 0.000296199058022884 0.000412203537415986 0.000129907274428277 0.00017454504688737 0.000235359758267613 0.000429297756029247 0.000322000849656844 0.000174328989153443 0.000473211837282508 0.000293970832921084 0.000322756920879061 0.000131363679176395 8.8510754516163e-05 0.000588295405596277
"98" 0.000544081777338705 0.000575044196691019 0.000305962804626777 0.000424814947423613 0.000150208384436983 0.000193422568349694 0.000252356708837815 0.000449964460377248 0.000324606654745013 0.000180949030495328 0.000500977413854051 0.000299987561829749 0.000330969250334234 0.000131005735496206 9.88374664224906e-05 0.000594215724273038
"99" 0.000564496171776372 0.000582665454684679 0.000314624048089344 0.000435901437512542 0.000168943018515349 0.000211032856924885 0.000268161791384402 0.00046861619886108 0.000327085821013294 0.0001874372303374 0.000526594368177296 0.000305668476747221 0.000338317135910846 0.000130007509918615 0.000108619635242271 0.000599663415118046
"100" 0.000582917385663066 0.000588686506903806 0.000322122024574908 0.000445379926618513 0.00018598200749066 0.000227260921802958 0.000282659168489474 0.000485101569017043 0.000329429655479649 0.00019382352411853 0.000549878680018935 0.000311005504810152 0.000344795996844388 0.000128380504607152 0.000117874145630702 0.000604638561270186
"101" 0.000599265994972733 0.000593070718122526 0.000328401998929086 0.000453181023315052 0.000201219101823738 0.000241996957671511 0.000295743093548681 0.000499287415607847 0.000331640043479845 0.000200143309176561 0.000570671834940721 0.000315989191543657 0.000350403107528981 0.00012613868763891 0.000126618409325261 0.000609145737361172
"102" 0.000613485643847232 0.000595790061027046 0.000333425297205736 0.00045925072568956 0.000214563540068733 0.0002551608469073 0.000307339581624649 0.000511076298597574 0.000333709509285031 0.000206425104948361 0.000588826818773645 0.000320616975272657 0.000355150972301792 0.000123299342443834 0.000134871471724527 0.000613178764852494
"103" 0.000625530539822988 0.000596837852718524 0.000337158111827785 0.00046355040920691 0.00022594782882102 0.000266682596837332 0.000317380270785702 0.000520390950827149 0.000335627978810463 0.000212701425282263 0.000604231275044671 0.000324889740927159 0.000359060194380233 0.000119881552757957 0.000142654923834305 0.000616736008933396
"104" 0.000635382179302423 0.000596220471970103 0.000339581188306554 0.000466054079634512 0.000235326418794845 0.000276513159520214 0.000325812040206545 0.0005271837716775 0.000337391414474541 0.000218994500818891 0.000616786662937257 0.000328812598870381 0.000362153659146309 0.000115908412287376 0.000149981974029949 0.000619812990793901
"105" 0.000643030937338803 0.00059395524811194 0.000340679724451607 0.000466751515555317 0.000242676463883051 0.000284622526529844 0.000332613293449842 0.000531432635250279 0.0003389846440605 0.000225326766707516 0.000626418642993311 0.000332386119212803 0.000364459801790583 0.000111405784241262 0.000156879524718688 0.000622408401664578
"106" 0.000648490737195743 0.000590072065376482 0.000340452340872494 0.000465646795553249 0.000247991394240935 0.000290993893749318 0.000337762141469213 0.000533137658631718 0.000340393673702514 0.000231716152109518 0.000633080668362372 0.000335616160667366 0.000366016206534169 0.000106395837249857 0.000163361301558751 0.00062451798979134
"107" 0.000651795481139008 0.000584612915156686 0.000338905875772518 0.000462763168741126 0.000251290689195883 0.000295632749819006 0.000341270971000014 0.00053233072949816 0.000341603316029713 0.000238170738737549 0.00063674319609613 0.000338504154057237 0.000366855660341713 0.000100905776427338 0.000169446019889637 0.000626138083763792
"108" 0.000652995951126315 0.000577632018150963 0.000336055847020064 0.000458129898254736 0.000252608339308098 0.000298560090664714 0.000343154317300464 0.000529060287126079 0.000342594280577437 0.00024469656011402 0.00063740179968494 0.00034105697784796 0.000367015827263027 9.49637352808683e-05 0.000175146041151913 0.000627269804442812
"109" 0.000652158988961538 0.000569192528042388 0.000331923420470253 0.000451793799596163 0.000251994670424928 0.000299812613409262 0.000343452665404522 0.000523397830259578 0.000343340414006987 0.000251287742303225 0.000635074711022939 0.000343268555670449 0.000366535761812322 8.85971189163817e-05 0.000180473219724558 0.000627911922014719
"110" 0.000649362295430572 0.000559367728398958 0.000326541534586982 0.000443815256352939 0.000249525819746671 0.000299439243597879 0.000342217619527308 0.000515439190403803 0.000343817239500511 0.000257935883087653 0.000629802330283337 0.000345139064031672 0.000365453164376995 8.18335287073525e-05 0.000185433346773491 0.000628069258222955
"111" 0.000644709799185609 0.000548238421893789 0.000319946478777968 0.000434263700519491 0.000245284957231998 0.00029750428495524 0.000339514277824755 0.000505295393732361 0.000343992113844694 0.000264624413993002 0.000621642954691711 0.000346657660909752 0.000363799889241674 7.46993726460399e-05 0.000190032116465502 0.000627743335429409
"112" 0.000638304025257798 0.00053588793921172 0.000312187573358364 0.000423220235624416 0.000239372296851685 0.00029408917396319 0.00033542192008385 0.000493095388021325 0.000343838634677471 0.000271326452494626 0.000610680417370996 0.000347821919957585 0.000361614251489346 6.72227750263099e-05 0.000194272125243812 0.0006269443894815
"113" 0.000630275012762848 0.000522412860528237 0.00030331673998272 0.000410776172815381 0.00023190464703717 0.000289277490653172 0.000330029856523482 0.000478982992965395 0.000343320339468195 0.000278013872851217 0.000597011041149836 0.000348612904367919 0.00035892699584959 5.94277628197724e-05 0.000198151857133117 0.000625672742165419
"114" 0.000620752659140073 0.000507912031272411 0.000293392746494509 0.000397036354442495 0.000223009924448701 0.000283170196299595 0.000323437326883523 0.000463119257262505 0.000342402027409353 0.000284645464520944 0.000580757240912716 0.000349020643010862 0.000355766906521377 5.13444398613357e-05 0.000201664594163534 0.000623939865773182
"115" 0.000609876425058665 0.000492483616663633 0.000282483819988776 0.000382102080641674 0.000212820298800371 0.000275876687990659 0.000315755283255643 0.000445672853320484 0.000341052830209487 0.000291184292507295 0.000562052605408173 0.000349029576319879 0.000352168435994441 4.29948458761512e-05 0.000204804604574211 0.000621749024017906
"116" 0.000597801491362508 0.000476237387319446 0.000270661800757198 0.000366095182491332 0.000201485575891581 0.000267512626669116 0.000307094906734613 0.000426826492107589 0.000339235082560804 0.000297582465058925 0.000541051367813575 0.000348624845492965 0.000348155658427847 3.44056779542814e-05 0.000207562300762378 0.00061910752755605
"117" 0.000584672994144805 0.000459278286962196 0.000258011454248444 0.00034913410639066 0.000189153681087488 0.000258195039349181 0.000297576504803043 0.000406767914571519 0.000336914020251264 0.000303786662938976 0.00051791950111068 0.000347781665323228 0.00034375430207898 2.55968020919815e-05 0.000209927183996597 0.000616016358249488
"118" 0.000570655751113709 0.000441718603924903 0.000244613288100208 0.000331345187354685 0.000175988602455449 0.00024805157331028 0.000287319197197663 0.000385693014677145 0.000334062033860739 0.000309749830295784 0.000492844197542801 0.000346494230654634 0.000338992201153275 1.65961684948958e-05 0.000211880553563537 0.00061247727329048
"119" 0.000555903365255855 0.000423668582013774 0.000230564786790847 0.000312859438128041 0.000162150677910993 0.000237214118785757 0.000276456334708076 0.000363802630004065 0.000330651150382556 0.000315411529996404 0.000466015418508665 0.00034474110642938 0.000333891278239052 7.42523878813691e-06 0.000213411821747425 0.000608488709657906
"120" 0.000540582800897366 0.000405238965565624 0.000215958880222747 0.000293810848554053 0.000147807952114891 0.000225811372062913 0.000265107263042797 0.000341300995937546 0.000326653084968197 0.000320718532133923 0.000437642120600536 0.00034250711739254 0.000328477293425618 -1.89235419199061e-06 0.00021450554343997 0.000604049010636732
"121" 0.000524846225943223 0.000386538468737013 0.00020089744592068 0.000274332008325049 0.000133125463396853 0.00021397586744664 0.000253402464171353 0.000318392669435331 0.00032204786713467 0.000325615383792915 0.000407936741332359 0.000339787164574232 0.000322773703038851 -1.13394518175403e-05 0.000215144101952229 0.000599147902756762
"122" 0.000508849370880852 0.000367679881474945 0.000185489182872237 0.000254560325292162 0.000118271760306759 0.000201841031728315 0.000241457949771883 0.000295286219237137 0.000316820471456288 0.000330044493127604 0.000377127945714036 0.000336569075720808 0.000316806911978441 -2.08931466724655e-05 0.000215312272899528 0.000593775731037252
"123" 0.000492748924507309 0.000348765955757647 0.000169838551979539 0.000234629289001252 0.00010340966222019 0.0001895358938924 0.00022939751203661 0.000272179473416073 0.000310960102647548 0.00033395332964709 0.000345444084503818 0.000332848422936369 0.000310599244176168 -3.05271585529574e-05 0.000214991078559024 0.000587919472610885
"124" 0.000476683973365881 0.000329904321409012 0.000154062450202695 0.000214673513976654 8.87040316048406e-05 0.000177186840410124 0.000217335831730632 0.00024927379505285 0.0003044616520175 0.000337289366674932 0.000313114117958914 0.000328625056287424 0.000304176084248662 -4.02277405055453e-05 0.00021416663109861 0.000581563427671405
"125" 0.000460797628903589 0.000311197666492718 0.000138270652431138 0.00019482301201852 7.43121296917502e-05 0.000164920594496333 0.000205382646226692 0.00022676357673423 0.000297325835203734 0.000340004992721971 0.000280381268097309 0.00032390555222392 0.000297564568978957 -4.99710724584375e-05 0.000212825470465642 0.000574688809306936
"126" 0.000445224967711218 0.000292739824418964 0.000122579888716461 0.000175207246577153 6.03872941378713e-05 0.000152852687341194 0.000193641311401487 0.000204833857885469 0.000289561253217151 0.000342054261139298 0.00024747558398916 0.000318695568110635 0.000290790373456461 -5.9735532383717e-05 0.000210947821843118 0.000567274614623325
"127" 0.000430087028425359 0.000274626186025228 0.000107104065146466 0.000155950591980886 4.70700043249088e-05 0.000141094809234083 0.000182210628613482 0.000183662723403112 0.000281177106902589 0.000343393117721577 0.000214634990431707 0.000313000705344366 0.000283876655054428 -6.94998691532557e-05 0.000208528041501804 0.000559304257004793
"128" 0.000415497735217249 0.000256945670928931 9.19543610707853e-05 0.000137168952091683 3.44992122182277e-05 0.000129755901528272 0.000171178633943782 0.0001634178637182 0.000272198306405201 0.00034398503579252 0.000182088008460279 0.000306842635192042 0.000276848653710425 -7.92465297960291e-05 0.000205550437549938 0.000550755672533955
"129" 0.000401566104785924 0.000239776676211928 7.72392440852343e-05 0.000118975649408574 2.28001483407186e-05 0.000118928283945496 0.000160626975830895 0.000144253819701887 0.000262644988508285 0.000343796623038183 0.000150057051847059 0.00030023709819351 0.000269733012264655 -8.895347308992e-05 0.000202008394386793 0.000541612622802942
"130" 0.000388384641726169 0.000223196405463743 6.30672597837801e-05 0.000101477498342464 1.20876124836638e-05 0.000108707776588035 0.000150623545093028 0.000126314890726875 0.000252551519542919 0.000342801397218724 0.000118757146049374 0.000293202211411783 0.000262551052948783 -9.85944541982499e-05 0.000197892029906083 0.000531859942320835
"131" 0.000376042554002886 0.000207272494079722 4.9535356168889e-05 8.47720561599916e-05 2.46465169804176e-06 9.91688420348794e-05 0.000141236347953959 0.000109723689039861 0.000241954051743376 0.000340974078092993 8.83922168985605e-05 0.000285762618646738 0.000255325022429469 -0.000108154471380777 0.000193195941862022 0.000521488936277633
"132" 0.000364609312092575 0.000192065770361876 3.67408631231913e-05 6.89474130433745e-05 -5.97883263024613e-06 9.03792445678708e-05 0.000132517743011475 9.45957178620046e-05 0.000230897133973243 0.000338296975693026 5.91565020955974e-05 0.000277941094810647 0.000248072102362788 -0.000117605884971168 0.000187916612630827 0.000510490457548994
"133" 0.000354151776163361 0.0001776314828145 2.47715031869697e-05 5.40857049927518e-05 -1.31656967949774e-05 8.24015255079491e-05 0.000124508764430146 8.10209279228145e-05 0.000219421565667955 0.000334759209437694 3.12267510656505e-05 0.000269764461320872 0.000240809959587875 -0.000126931285341755 0.000182052738368972 0.000498863963308273
"134" 0.000344721582264543 0.000164008091323616 1.37041327319786e-05 4.02564027560874e-05 -1.90377338775704e-05 7.52826704250494e-05 0.000117251757298101 6.90778315616222e-05 0.000207583054754906 0.00033035368208987 4.76349323247318e-06 0.000261257732467004 0.000233553825781054 -0.000136101580071166 0.000175607690971869 0.000486620314519425
"135" 0.000336362102190469 0.00015123320950291 3.60900175463321e-06 2.75191314014502e-05 -2.35451534753122e-05 6.90543829677992e-05 0.000110765367188274 5.88236383474639e-05 0.000195435555422127 0.000325078745336717 -2.0084229616378e-05 0.000252446638967624 0.000226312667257163 -0.000145094560591832 0.000168584438791247 0.000473770750044604
"136" 0.00032910003396827 0.000139335977269492 -5.45034018929315e-06 1.59288183449931e-05 -2.66557445723131e-05 6.37476838695193e-05 0.0001050670292642 5.0297482039551e-05 0.000183034433809582 0.000318938553545202 -4.31905722893029e-05 0.000243356629490539 0.000219094603834431 -0.000153889323820342 0.000160990298081069 0.000460341134807117
"137" 0.000322960208766116 0.000128328654894012 -1.34284508372987e-05 5.52077805518832e-06 -2.8354994437226e-05 5.93710402004562e-05 0.000100165631474149 4.35231592544915e-05 0.000170445954090976 0.000311947031407506 -6.44439237664849e-05 0.000234013634981528 0.000211906858970908 -0.00016245782240826 0.000152836116655746 0.000446358332097169
"138" 0.000317951513344263 0.000118223205357077 -2.02845597959785e-05 -3.67273586086314e-06 -2.86388772584999e-05 5.59306915493347e-05 9.60557045058286e-05 3.84981374574407e-05 0.000157729755361554 0.000304120362919546 -8.37540603152808e-05 0.000224446117951973 0.000204750601130643 -0.00017077133966645 0.000144131944762273 0.000431864391775287
"139" 0.000314069018934297 0.000109019031047887 -2.59878023278051e-05 -1.16362575381034e-05 -2.75217685003685e-05 5.34113750729783e-05 9.27288154517512e-05 3.52059330807769e-05 0.000144953596145714 0.000295480312302348 -0.000101053752068613 0.000214673048179077 0.000197621478057036 -0.000178809633483902 0.000134896991008965 0.000416903367730148
"140" 0.000311305748023274 0.000100705812417055 -3.05227676468482e-05 -1.83585832974003e-05 -2.50304686613083e-05 5.1799188623991e-05 9.01642933826278e-05 3.36160516205346e-05 0.000132186523827249 0.000286057454826922 -0.000116287511045176 0.000204718860246379 0.000190519264367518 -0.000186541535984463 0.000125149380004785 0.000401534402221835
"141" 0.000309639362323728 9.32633575394036e-05 -3.38882341328414e-05 -2.38470073304791e-05 -2.12083874290499e-05 5.10620092938133e-05 8.83372299070481e-05 3.36756607151258e-05 0.000119496958655863 0.000275885772470051 -0.000129423793408004 0.0001946091985022 0.000183436988030421 -0.000193939917588517 0.000114913516910343 0.000385819334474395
"142" 0.000309037812889738 8.66739237797066e-05 -3.60798102885178e-05 -2.8109077083646e-05 -1.61055102639155e-05 5.11604538215196e-05 8.72125445076788e-05 3.5315238524003e-05 0.000106952220834636 0.000265005902257205 -0.000140446768318865 0.00018436279974756 0.000176364653480487 -0.000200976659782703 0.000104213351989118 0.000369826390651851
"143" 0.000309467011901447 8.09029584176716e-05 -3.71166280521585e-05 -3.11712754905934e-05 -9.78828307292446e-06 5.20449646870914e-05 8.6752546456469e-05 3.84556124127911e-05 9.46288864580229e-05 0.000253463778357371 -0.000149362169305635 0.000174006708230437 0.000169296967332107 -0.00020761901860759 9.3081977437101e-05 0.000353627161113252
"144" 0.000310879534174243 7.59121424452908e-05 -3.70219580048843e-05 -3.30626207660333e-05 -2.33451141047187e-06 5.36632467328109e-05 8.6906438773761e-05 4.30015134029731e-05 8.25961135728661e-05 0.000241312629797205 -0.000156187988318773 0.000163559847224055 0.000162224227664025 -0.000213845054161322 8.15484303365311e-05 0.000337303539576718
"145" 0.000313218653327698 7.16567381592706e-05 -3.58306159276892e-05 -3.38216197715631e-05 6.17307600581597e-06 5.59491211841474e-05 8.76302448014459e-05 4.88437013077335e-05 7.09224792018571e-05 0.000228608047463326 -0.000160956905646625 0.000153048264204395 0.000155139828300682 -0.000219619532976679 6.96527029407136e-05 0.000320936626383941
"146" 0.000316423852288098 6.80934459336925e-05 -3.35817769806845e-05 -3.34974987583697e-05 1.56393930338364e-05 5.88389493648962e-05 8.88623729612051e-05 5.58714591664543e-05 5.96839124767102e-05 0.000215412181294825 -0.000163723359164406 0.000142490780296277 0.000148030445613864 -0.000224914177676779 5.74343116863247e-05 0.000304606191768288
"147" 0.000320425070482589 6.51679703652661e-05 -3.03312181580326e-05 -3.21465322198536e-05 2.59620173758119e-05 6.22533650301476e-05 9.054753915617e-05 6.39556458506927e-05 4.89467664167468e-05 0.000201790829806175 -0.000164545455135566 0.000131919084267344 0.000140892129319637 -0.000229700489046001 4.4932732727997e-05 0.000288402705205549
"148" 0.000325155792140484 6.28250436310285e-05 -2.6127099938364e-05 -2.98251332374823e-05 3.70412643826943e-05 6.61204727384328e-05 9.26224720300577e-05 7.29689770305418e-05 3.87834113976395e-05 0.000187814721115275 -0.00016349923459479 0.00012135546855054 0.000133719808298877 -0.000233947975001469 3.21977420218684e-05 0.000272403116263405
"149" 0.000330528290418907 6.10114123092445e-05 -2.10388652041439e-05 -2.6602408220264e-05 4.876358654486e-05 7.03599301108241e-05 9.50259297603499e-05 8.27741814717371e-05 2.92609419988411e-05 0.000173556006923099 -0.000160664230255321 0.000110828730679362 0.000126512814710806 -0.000237629880045991 1.92744871550129e-05 0.000256688521107078
"150" 0.000336469451410974 5.96663953773067e-05 -1.51290639121947e-05 -2.25468444332133e-05 6.10202964628482e-05 7.48913043153079e-05 9.76943362527226e-05 9.32351667324351e-05 2.04437627278013e-05 0.000159089999017904 -0.000156136616505209 0.000100369229333457 0.000119266495919348 -0.000240717642000853 6.21520473599234e-06 0.000241339851355926
"151" 0.000342885572320544 5.87338386666542e-05 -8.47342620581069e-06 -1.77350732771626e-05 7.36967665981305e-05 7.96334414055727e-05 0.000100560198482368 0.000104207561030894 1.23996820688128e-05 0.00014449786955155 -0.000150010400079592 9.00065945000695e-05 0.000111985790089601 -0.000243184279840672 -6.92666447002238e-06 0.000226428943070344
"152" 0.000349693275720828 5.81577941181532e-05 -1.14261465061919e-06 -1.22407788911062e-05 8.66796411240579e-05 8.45053443319695e-05 0.000103563983782348 0.000115556334445843 5.18234463160026e-06 0.000129853676725802 -0.000142391984651265 7.97711974571656e-05 0.00010467517644022 -0.000245009286874392 -2.01035059613366e-05 0.000212023759541406
"153" 0.000356802017063234 5.78786457745841e-05 6.78121323974701e-06 -6.14207525858924e-06 9.98620278733073e-05 8.94290796815903e-05 0.000106641018320265 0.000127145494425491 -1.14484589758653e-06 0.000115236721520758 -0.000133389646854493 6.96980323013769e-05 9.73403637842183e-05 -0.000246169304862944 -3.3256732394107e-05 0.000198188182929904
"154" 0.000364121582288883 5.78451958395157e-05 1.52221816084781e-05 4.79888892597633e-07 0.000113133670210061 9.43293881339466e-05 0.000109733848102001 0.000138843113460506 -6.53571990353466e-06 0.000100728511936775 -0.000123112809647582 5.98224088210387e-05 8.99920139048281e-05 -0.000246642441469147 -4.63329427521593e-05 0.00018497565800038
"155" 0.000371562166267565 5.80063854057137e-05 2.41000953503119e-05 7.54570893177121e-06 0.000126389843214256 9.91325764068057e-05 0.000112780934113486 0.000150518182926159 -1.09408357683023e-05 8.64048784350901e-05 -0.000111677188475963 5.01759063744677e-05 8.26453822234206e-05 -0.000246412866546808 -5.92797706274491e-05 0.000172438382610001
"156" 0.000379036185404028 5.83146458469484e-05 3.33374631889473e-05 1.49779733927599e-05 0.000139535091056029 0.000103770066865349 0.000115733598344742 0.000162050302957334 -1.43195246772741e-05 7.2337290315995e-05 -9.91918695748576e-05 4.07919281638255e-05 7.53089975246242e-05 -0.000245468388981812 -7.2043604183149e-05 0.000160612398565379
"157" 0.000386452949568644 5.87255668276176e-05 4.28509765422822e-05 2.26958502056372e-05 0.000152473185022622 0.00010818160985901 0.000118537318358709 0.000173323846520903 -1.6634915897729e-05 5.85981703270435e-05 -8.57724823872072e-05 3.17046710348289e-05 6.8004652940737e-05 -0.000243799243845007 -8.45720965925873e-05 0.000149533251206356
"158" 0.00039373038942358 5.91961719050686e-05 5.25620301257118e-05 3.06271798421131e-05 0.000165122770863027 0.000112305957127082 0.000121149747696277 0.000184235079364057 -1.78594978140483e-05 4.52550560314296e-05 -7.15326869068443e-05 2.29444018323914e-05 6.07446839488702e-05 -0.000241397964848945 -9.68132813985674e-05 0.00013922886581413
"159" 0.000400783967599427 5.96939699060227e-05 6.23964415510129e-05 3.8697544870684e-05 0.000177400852952819 0.000116092742243646 0.000123530053489462 0.000194679270302875 -1.79743621951544e-05 3.23693173986799e-05 -5.65807967816646e-05 1.45379158111834e-05 5.35447995875435e-05 -0.000238268153551539 -0.000108725740266328 0.000129713620468424
"160" 0.000407541220310772 6.01810510135308e-05 7.22781000188943e-05 4.68337643356193e-05 0.000189235440107863 0.00011949459100867 0.000125643585080681 0.000204574712310326 -1.69636078294381e-05 1.99977286533769e-05 -4.10243844754803e-05 6.51480923939537e-06 4.6427323696801e-05 -0.000234407855877269 -0.000120260520627742 0.000120999009546002
"161" 0.000413926309798744 6.06321192922875e-05 8.21369147134906e-05 5.49746556807684e-05 0.000200568342044271 0.000122472030838931 0.000127458284090342 0.000213836232623015 -1.48244012159303e-05 8.18813655234518e-06 -2.49695504307058e-05 -1.10587183337948e-06 3.94019359359316e-05 -0.000229827099279416 -0.000131379587214528 0.000113091162069453
"162" 0.000419872611293007 6.10276288210042e-05 9.18999350688634e-05 6.30515509658332e-05 0.000211340154843255 0.000124993380721579 0.000128951528579598 0.00022239906259794 -1.15636378831613e-05 -3.0128774427329e-06 -8.51542736744241e-06 -8.30573131622054e-06 3.24875825525464e-05 -0.000224539255799193 -0.000142043284656762 0.000105982240141928
"163" 0.000425317369563701 6.13409791693528e-05 0.000101504513840545 7.10072214546542e-05 0.000221507882091492 0.000127032096083951 0.000130101711790793 0.000230200466723958 -7.19089097362026e-06 -1.35722004877959e-05 8.2398071130505e-06 -1.50686646999005e-05 2.56951613736538e-05 -0.00021856288847196 -0.000152218802178684 9.96616892889689e-05
"164" 0.000430201031156998 6.15589643835648e-05 0.000110881778969166 7.87876107770547e-05 0.000231028382907852 0.000128566275134381 0.00013089267691803 0.000237188295923561 -1.73041064830866e-06 -2.34583663477696e-05 2.5200801594526e-05 -2.13872724341964e-05 1.90379060875517e-05 -0.000211920718345557 -0.000161877205558366 9.41199125071602e-05
"165" 0.000434479589314798 6.16694372859131e-05 0.000119977488141821 8.63410436243558e-05 0.000239875570378785 0.000129583968933273 0.000131320855079642 0.000243328860821901 4.78540759448129e-06 -3.26510371641961e-05 4.22811268800603e-05 -2.72566703256682e-05 1.2522797948272e-05 -0.000204642882539426 -0.000170990366766492 8.93294241909405e-05
"166" 0.000438108483520139 6.16641742068546e-05 0.000128732754804548 9.36226189188605e-05 0.000248027376609323 0.00013007442467231 0.000131379466209863 0.000248585848692821 1.23107685859631e-05 -4.11403815955987e-05 5.93992533784567e-05 -3.26842441894051e-05 6.15638584181864e-06 -0.000196762774388405 -0.000179544112436604 8.52668638449292e-05
"167" 0.000441047974212741 6.15376901585117e-05 0.000137096830914137 0.00010059118903806 0.000255469565592578 0.000130041994905344 0.000131067905838216 0.000252944032023722 2.08029410352889e-05 -4.89154295584879e-05 7.64769249517179e-05 -3.76723833637479e-05 -5.89530865225013e-08 -0.000188320069919346 -0.00018751855409878 8.19001119557447e-05
"168" 0.000443268173061708 6.12831856566491e-05 0.000145020562108282 0.000107207251184336 0.000262194872533915 0.000129485731373416 0.000130391002393154 0.000256386074828458 3.01964116752325e-05 -5.59809578228342e-05 9.34405596266077e-05 -4.223185488912e-05 -6.11986995446866e-06 -0.000179353940558218 -0.000194902609627902 7.91927405011908e-05
"169" 0.000444750883443295 6.09008870963562e-05 0.000152453613125136 0.000113442035093581 0.000268201668401019 0.000128417536317583 0.000129356015995156 0.000258912015247771 4.04259138124158e-05 -6.23452134183565e-05 0.00011022238576941 -4.6387264299518e-05 -1.20326276688798e-05 -0.000169915796818097 -0.000201688148946925 7.71136239986491e-05
"170" 0.000445473047644253 6.03892880373804e-05 0.000159363516232526 0.000119267007585403 0.000273496381207131 0.000126848932153512 0.000127979058053687 0.00026052592290826 5.14125352650381e-05 -6.8022530650543e-05 0.00012675969002765 -5.01599930307148e-05 -1.77974122351508e-05 -0.000160053776504644 -0.000207869777484217 7.56175492771857e-05
"171" 0.000445428705810704 5.97547594524541e-05 0.000165705624767667 0.000124656854842791 0.000278094795881036 0.000124799250537604 0.000126270000702971 0.00026123795885894 6.30749425401163e-05 -7.30363512854921e-05 0.000143002547876081 -5.35743407136538e-05 -2.34241257359602e-05 -0.000149825062695634 -0.000213451018322673 7.46627316551143e-05
"172" 0.000444611249010549 5.89924881687287e-05 0.000171450393782825 0.000129594544343031 0.000282008157417197 0.000122288172423812 0.000124244639158859 0.000261068093469492 7.53245956750396e-05 -7.74122511696897e-05 0.000158896630169881 -5.66685484881067e-05 -2.89241324076458e-05 -0.000139287753669699 -0.000218432611549939 7.42064391134217e-05
"173" 0.000443029193345356 5.81117910337343e-05 0.00017656749217747 0.000134064380726442 0.000285263504024915 0.000119344854506491 0.000121921602582098 0.000260040467532912 8.806195203668e-05 -8.11845667322899e-05 0.000174397342662709 -5.94740633805959e-05 -3.43065247870004e-05 -0.000128503098042181 -0.000222823549517945 7.42029480214012e-05
"174" 0.000440685916566026 5.71115822109679e-05 0.000181032685914177 0.000138055889606387 0.00028788303634136 0.000115992638975506 0.000119323550576817 0.000258189350142214 0.000101191679394736 -8.43882766227101e-05 0.000189474747944599 -6.20317094183835e-05 -3.95817607691685e-05 -0.000117531436830659 -0.000226632411629454 7.46041274232861e-05
"175" 0.00043759545407581 5.599635387677e-05 0.00018482019828332 0.000141559550945578 0.000289895984179463 0.00011226511557602 0.000116469020213963 0.000255545649936554 0.000114604630324424 -8.70648140436717e-05 0.000204087595461212 -6.43802565704143e-05 -4.47659755316499e-05 -0.000106436236457325 -0.000229870261855294 7.53644353094943e-05
"176" 0.000433778896022878 5.47716884517552e-05 0.000187917500549338 0.000144575633889487 0.000291335306828485 0.000108189508769277 0.000113378041817242 0.000252154284602859 0.000128195625490246 -8.92579904734538e-05 0.000218219553580172 -6.65649640884277e-05 -4.98696566347708e-05 -9.5284918829078e-05 -0.000232551882731798 7.64369110469835e-05
"177" 0.000429256912375672 5.34313201332814e-05 0.000190305906896926 0.000147098777838827 0.000292233621490723 0.000103805110777951 0.000110067697659778 0.000248058437642383 0.000141854802702477 -9.10111228554398e-05 0.000231846765417826 -6.86247206712013e-05 -5.49080958444494e-05 -8.41403584611564e-05 -0.000234692151532403 7.77745412408936e-05
"178" 0.000424064813858623 5.19874574865574e-05 0.000191980760132497 0.00014913620526633 0.000292627329302452 9.91415841664259e-05 0.000106560310356459 0.000243305860463776 0.000155472166423424 -9.23758722200055e-05 0.000244957491490513 -7.06062179409565e-05 -5.98934233364158e-05 -7.3065587725389e-05 -0.000236306007343152 7.93303413681245e-05
"179" 0.00041822742727695 5.04357981911116e-05 0.000192935916821948 0.000150691638725911 0.000292550672314672 9.42372695300078e-05 0.000102876354383631 0.000237949265148213 0.000168938351763008 -9.33969473539249e-05 0.000257547216437024 -7.25511293061885e-05 -6.48392423785076e-05 -6.21278845568572e-05 -0.000237413017758448 8.10600916334142e-05
"180" 0.000411781590602271 4.87724932211975e-05 0.000193163595627456 0.000151774221491894 0.000292040323783601 8.91241060797365e-05 9.90284691609041e-05 0.000232036576707518 0.000182147839872338 -9.41228321416343e-05 0.000269608287458612 -7.44995531428696e-05 -6.97516176285509e-05 -5.13866262958897e-05 -0.000238031090135997 8.29191644237544e-05
"181" 0.000404769970733505 4.70032226227839e-05 0.000192671816448102 0.000152399549222961 0.00029113855945123 8.38398482018495e-05 9.50348916268053e-05 0.000225627529726775 0.000194987580838542 -9.46033011792578e-05 0.000281149455390872 -7.6487883803548e-05 -7.4643772478284e-05 -4.09021334355143e-05 -0.000238178341665031 8.48628065602393e-05
"182" 0.000397233483464449 4.51262186187278e-05 0.000191465912077007 0.000152575883499441 0.000289873355018961 7.8415168024021e-05 9.09076137804449e-05 0.000218778126788128 0.00020736247008722 -9.48833571026991e-05 0.000292176254174474 -7.8555339012691e-05 -7.95161360515571e-05 -3.0731548914949e-05 -0.000237873415663127 8.6853024104643e-05
"183" 0.000389215058764363 4.31352347300285e-05 0.000189553954286002 0.000152324410585732 0.000288286120909602 7.28864977030772e-05 8.66626600253067e-05 0.000211539803219262 0.000219170371009238 -9.50097603813055e-05 0.000302705553716903 -8.07329542812731e-05 -8.43786860515529e-05 -2.09306829864848e-05 -0.000237131736077011 8.88490601091659e-05
"184" 0.000380760667032404 4.10308563502421e-05 0.000186950132659971 0.000151662251037279 0.000286410879152574 6.72851230552055e-05 8.23050212363468e-05 0.000203974942595976 0.000230323473250112 -9.5023776954333e-05 0.000312753456384426 -8.30463513767611e-05 -8.92247402644079e-05 -1.15452119602333e-05 -0.000235970189752878 9.08113830819846e-05
"185" 0.000371915936197292 3.88088250389032e-05 0.000183673861683674 0.000150609327519524 0.000284277684891816 6.16431795291468e-05 7.78459041648623e-05 0.000196138105704256 0.000240731554910044 -9.49676203054881e-05 0.000322340423265339 -8.55231920121855e-05 -9.40574845502136e-05 -2.62672131562675e-06 -0.000234410476066156 9.27064240611167e-05
"186" 0.000362730369341339 3.64643042609984e-05 0.000179737136800937 0.000149188272720931 0.000281917524649122 5.59882062525473e-05 7.32883876773991e-05 0.000188076912227665 0.000250317015126837 -9.48768421856572e-05 0.000331494087948714 -8.8181071528909e-05 -9.88687628992508e-05 5.78660684351013e-06 -0.000232465082692103 9.45026973581966e-05
"187" 0.000353251987302995 3.39923578535975e-05 0.000175172972857095 0.000147422362406504 0.000279359042587851 5.03506782779114e-05 6.86341666711842e-05 0.000179855497733204 0.000259011100981381 -9.47874525624257e-05 0.000340238986354216 -9.10316332072836e-05 -0.000103652396483674 1.36554234520611e-05 -0.000230146699468181 9.61685378328113e-05
"188" 0.000343529433401285 3.13890832912511e-05 0.000169999584181978 0.000145338296946378 0.00027662993335871 4.47523907712887e-05 6.38851058546472e-05 0.000171521331750669 0.000266751341660669 -9.47294530511078e-05 0.000348609059526146 -9.40875663364044e-05 -0.000108396147185351 2.09498589839201e-05 -0.000227468952375514 9.76795104583903e-05
"189" 0.00033361405425904 2.86501617240421e-05 0.000164249658746237 0.000142960137407938 0.000273750911558898 3.92210493247167e-05 5.90454592244269e-05 0.000163122156478553 0.000273481444481757 -9.47296089674059e-05 0.000356630771360681 -9.73514589768068e-05 -0.000113088504976124 2.76435514478631e-05 -0.000224447578035772 9.90114621108085e-05
"190" 0.00032355108575933 2.57694438146039e-05 0.000157952362504017 0.000140315803949396 0.000270742326036367 3.37741740648702e-05 5.41055456604208e-05 0.000154703301961587 0.000279162896635555 -9.48093608560008e-05 0.000364338898888373 -0.000100824126986186 -0.000117709943510995 3.3714823232803e-05 -0.000221086521426223 0.000100146956457846
"191" 0.000313388924873772 2.27421365155255e-05 0.000151140105113854 0.000137431501523761 0.000267624381615254 2.84316019214583e-05 4.90640383816109e-05 0.000146308116352145 0.000283758743234558 -9.49876032551695e-05 0.000371767308780809 -0.000104493843777549 -0.000122241451392554 3.91474428080688e-05 -0.000217400325781269 0.000101067646240067
"192" 0.000303176074546097 1.95630015715768e-05 0.000143848102233439 0.000134335531623795 0.00026440634879165 2.32109380004059e-05 4.39170365488843e-05 0.000137980092857791 0.000287247219064936 -9.52797406113821e-05 0.000378944876341415 -0.000108353785553708 -0.000126664830497892 4.39357955364849e-05 -0.000213391440609641 0.000101764569836486
"193" 0.000292958754667212 1.62287964416675e-05 0.000136116345236052 0.000131057585952706 0.000261105589068064 1.81256992412911e-05 3.86566522578624e-05 0.000129748714915915 0.00028961406501679 -9.56949462576225e-05 0.000385907519138065 -0.000112385519090275 -0.000130955205271423 4.80772761435025e-05 -0.000209071561687598 0.000102225279132525
"194" 0.000282776565003975 1.27359193044253e-05 0.000127975248262429 0.000127621489059915 0.000257726922840775 1.31890730188291e-05 3.32751867279964e-05 0.000121650913657285 0.000290856642320478 -9.62363450575384e-05 0.000392684974024593 -0.000116568359642532 -0.000135085233336709 5.15710040456451e-05 -0.000204438418053617 0.000102448712585355
"195" 0.000272676651006233 9.07942582402021e-06 0.000119466837452443 0.000124057693887501 0.000254274873629134 8.40970131108985e-06 2.77597034808537e-05 0.00011371193018359 0.000290985997500438 -9.69118447891085e-05 0.00039930457711812 -0.000120879501425649 -0.000139035989333165 5.44278351130571e-05 -0.000199499421041129 0.00010243678065682
"196" 0.000262700783386849 5.25854501463138e-06 0.000110629124334951 0.000120392159232634 0.000250755757822366 3.7934194532789e-06 2.21077585774987e-05 0.000105955966454266 0.00029001706171946 -9.77134628926389e-05 0.000405794046962394 -0.000125286082299966 -0.000142773200461209 5.66652219923313e-05 -0.000194257317804975 0.000102187160565177
"197" 0.000252883751927981 1.27125156466086e-06 0.000101502865543308 0.000116652948235743 0.00024716336763412 -6.54052426217961e-07 1.63099233125782e-05 9.84001550534597e-05 0.000287980041935676 -9.86389671955677e-05 0.000412176211045895 -0.000129760012797167 -0.000146277153363461 5.82998718426204e-05 -0.000188710097040476 0.000101713781725659
"198" 0.000243263998151099 -2.88442192372198e-06 9.2125275647742e-05 0.000112864373902701 0.000243501303120494 -4.92910508481048e-06 1.03577439371642e-05 9.10569900850089e-05 0.000284911766176916 -9.96732075236827e-05 0.000418474979324989 -0.000134262760457817 -0.000149517547584222 5.93587257070855e-05 -0.000182853826155116 0.00010102678871604
"199" 0.000233874700072322 -7.20569465058389e-06 8.25363792448819e-05 0.000109051677597551 0.000239758542923227 -9.03018492159387e-06 4.24022957036315e-06 8.39417676114881e-05 0.000280858409282903 -0.000100807773043012 0.000424702787021385 -0.00013875762477447 -0.000152465472718763 5.98734781636026e-05 -0.000176692100428545 0.000100137363359823
"200" 0.000224747399260182 -1.16903969048425e-05 7.27789054283563e-05 0.00010524085255349 0.000235934731031909 -1.29581194152408e-05 -2.04730187551499e-06 7.70588519681427e-05 0.000275875747751172 -0.000102024421775512 0.000430884480852245 -0.000143204491611802 -0.000155097519172582 5.98779771484704e-05 -0.000170218563761392 9.90643612798307e-05
"201" 0.000215916935520379 -1.63380522423372e-05 6.28873255700447e-05 0.000101453626324991 0.0002320177201771 -1.67137108313442e-05 -8.5077884510037e-06 7.04103569408319e-05 0.000270029510420201 -0.000103303867741909 0.000437022307088225 -0.000147559272544717 -0.000157388182397418 5.94162147205974e-05 -0.000163433439828183 9.78302531026975e-05
"202" 0.000207407269328638 -2.11410776694272e-05 5.29009087823357e-05 9.77120926094419e-05 0.000228000090703246 -2.03022803303383e-05 -1.51443766622799e-05 6.39945191699444e-05 0.00026338675544067 -0.000104624709745623 0.000443128758866533 -0.000151783899101331 -0.000159314221095586 5.85279195517272e-05 -0.000156327098631972 9.64597931749842e-05
"203" 0.000199241482688814 -2.60939484237949e-05 4.28606350752021e-05 9.40363696189109e-05 0.000223869386508034 -2.37248725603963e-05 -2.19642406603572e-05 5.78073987510221e-05 0.000256030852075019 -0.000105960691862194 0.000449205616605847 -0.000155830419669427 -0.000160848529311003 5.72630647421643e-05 -0.000148895053656964 9.49732113972107e-05
"204" 0.000191445333922673 -3.11874777136967e-05 3.2802770078834e-05 9.04495956148979e-05 0.000219619308739508 -2.69870871986087e-05 -2.89584086243479e-05 5.18428977454115e-05 0.000248041166843819 -0.000107290619426315 0.000455257417284075 -0.000159660566804522 -0.000161979074713548 5.56690984481925e-05 -0.000141138771880608 9.34007492972189e-05
"205" 0.000184037613512932 -3.64115711238602e-05 2.27606210962514e-05 8.69679798292819e-05 0.000215234278538682 -3.00952896780107e-05 -3.61322600468014e-05 4.6088935706464e-05 0.000239506382853035 -0.000108585655134968 0.000461280303878968 -0.000163227860155678 -0.000162680493965117 5.38003075021243e-05 -0.000133047142397014 9.17721962638095e-05
"206" 0.000177035982960539 -4.17549446618404e-05 1.27742145140787e-05 8.36104452590478e-05 0.000210705757946404 -3.30508338574476e-05 -4.34775145668259e-05 4.05334933204271e-05 0.000230520633817231 -0.000109817174208326 0.000467270206573322 -0.000166492125477004 -0.000162943272628026 5.17108396170464e-05 -0.000124615407866527 9.01126051629053e-05
"207" 0.00017045513007072 -4.72015315457848e-05 2.87814548645491e-06 8.03936951211096e-05 0.000206022565628218 -3.58634518465046e-05 -5.09866677781744e-05 3.51634790040246e-05 0.000221181059264464 -0.000110957717641334 0.000473213921157997 -0.000169412509078378 -0.000162752450558993 4.94598950705178e-05 -0.000115839758458871 8.8454924517493e-05
"208" 0.000164309087741251 -5.27387915331418e-05 -6.89613583843059e-06 7.73311208786282e-05 0.000201179515281601 -3.8535924963109e-05 -5.8646641749773e-05 2.99640934936547e-05 0.000211585306304654 -0.000111979376946942 0.00047910636565829 -0.00017195164622874 -0.00016209907267271 4.70961690917207e-05 -0.000106716880755274 8.68254409206716e-05
"209" 0.000158604865125021 -5.83409851402311e-05 -1.65100542155816e-05 7.44394757154682e-05 0.000196171311761512 -4.10692376817877e-05 -6.64432297911674e-05 2.49213889692211e-05 0.000201828485512489 -0.000112858407431988 0.000484929427353569 -0.000174077569362112 -0.000160976742161716 4.46801991082362e-05 -9.72445866518877e-05 8.52538451114317e-05
"210" 0.000153354486064927 -6.39934278593067e-05 -2.59361422932148e-05 7.17323395491664e-05 0.000190990821275194 -4.34702581164512e-05 -7.43651596039414e-05 2.00193461915113e-05 0.0001920166861043 -0.000113564799926836 0.000490671214926309 -0.000175753093838678 -0.000159384852836527 4.2266729572068e-05 -8.74176829100526e-05 8.37659716699614e-05
"211" 0.000148566986176931 -6.96763971736754e-05 -3.51431323715797e-05 6.9218560185087e-05 0.000185631179410824 -4.57440738148258e-05 -8.23898665329105e-05 1.52344774800096e-05 0.000182244766342358 -0.000114073392275306 0.000496308552396151 -0.000176955560767271 -0.000157323431378605 3.9912784133414e-05 -7.72364821474941e-05 8.23921721764858e-05
"212" 0.000144239972532181 -7.53594489479538e-05 -4.40969095799434e-05 6.69113313747545e-05 0.000180096640546021 -4.78884491982484e-05 -9.04965124909146e-05 1.05581352601499e-05 0.000172609648461295 -0.000114362938772896 0.000501825044105341 -0.000177658607512049 -0.000154802362191114 3.76650267130039e-05 -6.67013294953096e-05 8.11548873376883e-05
"213" 0.00014037643391947 -8.10227079839434e-05 -5.27699788880152e-05 6.48207349413514e-05 0.000174388317972996 -4.99044486258605e-05 -9.86546854894451e-05 5.96943348581027e-06 0.00016320651454983 -0.000114412503051155 0.000507199539520371 -0.000177841956111226 -0.000151826536337633 3.55768543839139e-05 -5.58168885114542e-05 8.00732157406638e-05
"214" 0.000136977261426523 -8.66389150656808e-05 -6.11347579167545e-05 6.29529339697879e-05 0.000168508792697145 -5.17921732555282e-05 -0.000106844838308493 1.45487116220559e-06 0.000154126182811416 -0.000114201516930448 0.000512407348310292 -0.000177496385034031 -0.000148413279269354 3.36935978195774e-05 -4.45818551053961e-05 7.91715365620331e-05
"215" 0.000134041602687583 -9.21779258309684e-05 -6.9161229625467e-05 6.13182611007971e-05 0.000162467297217809 -5.35479540414576e-05 -0.000115031388260807 -2.99548420749361e-06 0.000145455422769377 -0.000113719278139715 0.000517428297249604 -0.000176610186592349 -0.00014458004005423 3.20623762637565e-05 -3.3011399006804e-05 7.84653814143674e-05
"216" 0.0001315642957391 -9.7609648567815e-05 -7.6823691048901e-05 5.99231953481118e-05 0.000156274487871188 -5.5169883354845e-05 -0.000123185065184098 -7.39505915411367e-06 0.000137271722457862 -0.000112951759543905 0.000522235363981187 -0.000175180611150976 -0.000140352465619946 3.07157711817332e-05 -2.11085397531026e-05 7.79668169566513e-05
"217" 0.000129539803736998 -0.000102911478710417 -8.41049973928064e-05 5.87694428205743e-05 0.000149944168418928 -5.66532453517796e-05 -0.000131271490645213 -1.17566211578623e-05 0.000129653731740489 -0.00011188852973131 0.000526807021765851 -0.000173209738405951 -0.00013575663801455 2.96941852343233e-05 -8.88503429815514e-06 7.76891788558455e-05
"218" 0.000127961807849977 -0.000108047138675275 -9.09753006529436e-05 5.78644696238386e-05 0.000143489915038767 -5.79944631037409e-05 -0.00013925598241518 -1.60909688222288e-05 0.000122666454001129 -0.000110527687046519 0.00053111569591504 -0.000170709984198156 -0.000130825162830428 2.90275630393209e-05 3.64544076540643e-06 7.76389588432348e-05
"219" 0.000126816325545292 -0.000112991128074029 -9.74142253108762e-05 5.72082044906302e-05 0.000136933111014988 -5.91836548482028e-05 -0.00014709970645548 -2.04002127770782e-05 0.000116370926360362 -0.000108868127787742 0.000535139376813417 -0.000167698811825832 -0.000125596402622179 2.87395047830037e-05 1.64642219175385e-05 7.78222899914903e-05
"220" 0.000126100670614747 -0.000117711493485882 -0.000103402679735626 5.68031106258526e-05 0.000130294200106811 -6.02139117073974e-05 -0.00015476873122862 -2.46926305153636e-05 0.00011081954622901 -0.000106912594016289 0.00053885414001117 -0.000164192454253617 -0.000120107789124719 2.88499158193208e-05 2.95506305931992e-05 7.8238789194059e-05
"221" 0.000125794199830613 -0.00012218109509499 -0.000108922365561344 5.66489334967902e-05 0.000123594059927158 -6.10802626862606e-05 -0.000162228908935681 -2.89701150376352e-05 0.000106056346741656 -0.000104669211824047 0.000542238527611093 -0.000160226528828687 -0.000114406837859087 2.93726534453019e-05 4.28870327617096e-05 7.88848192383007e-05
"222" 0.000125887300947864 -0.000126370955105403 -0.000113957694176859 5.67427953047802e-05 0.000116862385736393 -6.17694890478259e-05 -0.000169435926260059 -3.32343035960554e-05 0.000102116254171926 -0.000102150714569883 0.000545265460638658 -0.000155833491751206 -0.000108546937350453 3.03205613641218e-05 5.64440477931044e-05 7.97571144493679e-05
"223" 0.000126367350541214 -0.000130258551090163 -0.000118499261273547 5.70830446996904e-05 0.000110123244583436 -6.22728437070809e-05 -0.000176359327021462 -3.74889204252311e-05 9.90244519982862e-05 -9.93715579431568e-05 0.000547915812440306 -0.000151055896393073 -0.000102575302688238 3.16914342367647e-05 7.01978670555399e-05 8.08471608492276e-05
"224" 0.000127212647508253 -0.000133816116650676 -0.000122528839286077 5.76625879699836e-05 0.000103408283339432 -6.25820288559861e-05 -0.000182959430354381 -4.17275755861656e-05 9.67988875181906e-05 -9.63532227689325e-05 0.00055017178752561 -0.000145943005911106 -9.65537925866338e-05 3.34857268400914e-05 8.41151049449403e-05 8.21416179326014e-05
"225" 0.000128403520749729 -0.000137025121601563 -0.000126043798575183 5.84753278691898e-05 9.67453069960474e-05 -6.26887154132132e-05 -0.00018920719560184 -4.59535762900044e-05 9.54427503716031e-05 -9.31197879100173e-05 0.000552010695840584 -0.000140551134704022 -9.05429501820949e-05 3.56955452190218e-05 9.81624701605815e-05 8.36234798782781e-05
"226" 0.000129925784733723 -0.000139861623061328 -0.000129032220342534 5.95148068478315e-05 9.01660923558544e-05 -6.25838230554934e-05 -0.000195068847180051 -5.01543403431282e-05 9.49555577611844e-05 -8.96976310331949e-05 0.000553418174896322 -0.000134932254115887 -8.46012639501818e-05 3.83031981176525e-05 0.00011230151423977 8.5274141108497e-05
"227" 0.000131752892817965 -0.000142316507125456 -0.000131493600580866 6.07675537593599e-05 8.37025351090893e-05 -6.22553736018009e-05 -0.000200515169360985 -5.43317803655926e-05 9.53286065626746e-05 -8.61182499681892e-05 0.000554379751776459 -0.000129157134595465 -7.87959164449998e-05 4.12939261746282e-05 0.000126500842229546 8.70747015192141e-05
"228" 0.000133867358660535 -0.000144368567163219 -0.000133427449888695 6.22240606179048e-05 7.73858201429191e-05 -6.17001743732939e-05 -0.000205518550422413 -5.84742869634632e-05 9.65364472909597e-05 -8.24182007464185e-05 0.000554878711699808 -0.000123293083004179 -7.31950690287791e-05 4.46407677448601e-05 0.000140713504656964 8.90001397165441e-05
"229" 0.00013624004651673 -0.000146014007231146 -0.000134834001947278 6.38704238031872e-05 7.1245569829022e-05 -6.09065943321529e-05 -0.000210061007904702 -6.25771240497303e-05 9.85492918860724e-05 -7.86340883192395e-05 0.000554907932881205 -0.000117413003245704 -6.78678697637634e-05 4.83163754564169e-05 0.000154897891478678 9.10226407293876e-05
"230" 0.000138851403641732 -0.000147242581197202 -0.00013571417264858 6.56939519776951e-05 6.53127588884335e-05 -5.98710014635249e-05 -0.000214116947454953 -6.66320304798977e-05 0.000101331301073318 -7.48062339955078e-05 0.000554457986663874 -0.000111590949291463 -6.28809241973645e-05 5.22832530845781e-05 0.000169015421203083 9.31118016694872e-05
"231" 0.000141671094873619 -0.000148052019340259 -0.00013608130534448 6.76717536763668e-05 5.96203202589407e-05 -5.85903714522824e-05 -0.000217672748374003 -7.06330595062043e-05 0.000104834602380642 -7.09780906304078e-05 0.000553520250630618 -0.000105907491549677 -5.83038126709843e-05 5.65077801985928e-05 0.00018301114338849 9.52383048903765e-05
"232" 0.000144676342097898 -0.000148447656913071 -0.000135944859811583 6.97915446404208e-05 5.41906915549014e-05 -5.70600462988056e-05 -0.000220720333048084 -7.45710919404988e-05 0.000109005549918019 -6.71922363889077e-05 0.000552093073983181 -0.000100442066552275 -5.42055222205967e-05 6.09480176965424e-05 0.000196845198612055 9.73708377588111e-05
"233" 0.000147830822401525 -0.000148434014270336 -0.000135318081340666 7.2026946624281e-05 4.90512221681905e-05 -5.52848603853262e-05 -0.000223257287808001 -7.84395113196316e-05 0.000113782991027375 -6.34944677481191e-05 0.000550171892946331 -9.52744383967714e-05 -5.0655788530775e-05 6.55589534340371e-05 0.000210469964062757 9.94721733293516e-05
"234" 0.000151107623145834 -0.000148019131635897 -0.000134216459847128 7.4361834762154e-05 4.42267907836463e-05 -5.32603842203467e-05 -0.000225273520865186 -8.22288605340675e-05 0.000119100242859527 -5.99319352740901e-05 0.000547765795626886 -9.04844869104755e-05 -4.7717893976849e-05 7.02933606386841e-05 0.000223834577230838 0.000101501389597034
"235" 0.000154479284407686 -0.000147218296133885 -0.00013266057643956 7.67686407211095e-05 3.97362915612507e-05 -5.09901003446972e-05 -0.000226775310359623 -8.59316662274144e-05 0.000124887962569581 -5.65532073746575e-05 0.000544872854385265 -8.6155431596657e-05 -4.54540338338054e-05 7.51017964618292e-05 0.000236890963811611 0.000103430050277757
"236" 0.000157909598978344 -0.000146050024348182 -0.000130667563312852 7.92248434323937e-05 3.56007960900263e-05 -4.84847123676991e-05 -0.000227776682726345 -8.95442435073716e-05 0.000131067106912046 -5.34019495006443e-05 0.00054150446237576 -8.23602367668702e-05 -4.39258641493726e-05 7.99377722058839e-05 0.00024959087120424 0.000105213540940766
"237" 0.000161369772267027 -0.000144538288134334 -0.000128270853620795 8.17053573840062e-05 3.18353026574251e-05 -4.57483060754674e-05 -0.000228282839698873 -9.30620311230891e-05 0.000137556604063255 -5.05269754907055e-05 0.000537669320603412 -7.91763514437151e-05 -4.31872280003536e-05 8.47476155271089e-05 0.000261890290298037 0.000106814651627645
"238" 0.000164824055703093 -0.000142706708260378 -0.000125490131340774 8.41827985847232e-05 2.84521114422604e-05 -4.27927074764177e-05 -0.000228319464441816 -9.64767077984216e-05 0.000144275309866933 -4.79729783652062e-05 0.000533384800898029 -7.66743474091996e-05 -4.32917585490303e-05 8.9481074145046e-05 0.000273738977930225 0.000108194104459026
"239" 0.000168239800012133 -0.000140584414582431 -0.000122360475283519 8.66295766230053e-05 2.54586150191449e-05 -3.96315421643498e-05 -0.000227906366643076 -9.97921761908304e-05 0.000151138715055409 -4.57858753887796e-05 0.000528665218437818 -7.49200675233896e-05 -4.42870483547416e-05 9.40860898456678e-05 0.000285096014009064 0.000109315382059778
"240" 0.000171582179480472 -0.000138212303925417 -0.00011891302849332 8.90163779823522e-05 2.28616049848635e-05 -3.62785016681007e-05 -0.000227075307858958 -0.000103004070084221 0.000158058067432941 -4.40052870180745e-05 0.000523530731887232 -7.39721962030178e-05 -4.62095921634518e-05 9.85169662903318e-05 0.000295915939635259 0.000110136354117918
"241" 0.000174819524092773 -0.000135621913842008 -0.000115180908267374 9.1317686947808e-05 2.06588990047813e-05 -3.27544649413284e-05 -0.000225859955559725 -0.000106109960822873 0.0001649507260484 -4.26722612761501e-05 0.000518007338983136 -7.38879430981497e-05 -4.90967587667433e-05 0.000102723309908474 0.000306161049971165 0.000110624933522507
"242" 0.000177917052472906 -0.000132855974252971 -0.000111206060126843 9.34996757164547e-05 1.8853877198224e-05 -2.90771822944478e-05 -0.000224295166620533 -0.000109120585772189 0.000171731156193393 -4.18238624961522e-05 0.00051211461499297 -7.47131490837266e-05 -5.29777379203051e-05 0.000106661469881094 0.0003157901951288 0.000110740761333675
"243" 0.000180837036270739 -0.000129956606527175 -0.000107021345999121 9.55387318070417e-05 1.74367331460755e-05 -2.52702856529394e-05 -0.000222421708596716 -0.000112030895640321 0.000178314948528111 -4.14929411354838e-05 0.000505884768102805 -7.64880688230977e-05 -5.78711612370147e-05 0.000110287526578205 0.000324771415403067 0.000110452522523153
"244" 0.000183548781504567 -0.000126972680514916 -0.000102669620721386 9.74022336379952e-05 1.63964303969545e-05 -2.13597605400582e-05 -0.000220289606202168 -0.000114849894123069 0.00018462144482633 -4.17081597916117e-05 0.0004993507067288 -7.92427532788813e-05 -6.37902711770945e-05 0.000113565706230543 0.000333071793225368 0.000109729432812182
"245" 0.000186016352484511 -0.000123945945142417 -9.81912211698151e-05 9.9063943634058e-05 1.57241656780671e-05 -1.73695894084668e-05 -0.000217946579338587 -0.000117585706883946 0.000190577346771189 -4.24990838284024e-05 0.000492542512923377 -8.29967239568557e-05 -7.07418207724403e-05 0.000116459023149982 0.000340664217541635 0.0001085349120292
"246" 0.000188215333498504 -0.000120929889326349 -9.36301609192177e-05 0.000100494097107245 1.5396421660575e-05 -1.33315037942706e-05 -0.000215446166105706 -0.000120250709004559 0.000196107621185272 -4.38844219030731e-05 0.000485497445201901 -8.77674188195975e-05 -7.87259896221996e-05 0.000118937925193676 0.000347531121833433 0.000106852337305986
"247" 0.000190103724271711 -0.000117973486909031 -8.90250621032376e-05 0.000101668182225034 1.53970524387496e-05 -9.27273030884747e-06 -0.000212839477432746 -0.000122852480858291 0.00020114446977121 -4.58836268170732e-05 0.000478252813674779 -9.3552835462454e-05 -8.77307128364568e-05 0.000120976663477896 0.000353641976370909 0.0001046501849999
"248" 0.000191662097819965 -0.000115126195116566 -8.44233873821187e-05 0.000102559274045863 1.57008854418746e-05 -5.22645258767143e-06 -0.000210182497572351 -0.000125401595090884 0.000205629661631568 -4.85077414698445e-05 0.00047084893453438 -0.000100347099246299 -9.77389878301149e-05 0.000122556506416246 0.000358993458586673 0.000101912391348396
"249" 0.000192855655344331 -0.000112436692958261 -7.98633799565011e-05 0.000103144717306079 1.62829261225645e-05 -1.22525466527129e-06 -0.000207531892336312 -0.000127917993411692 0.000209504741723572 -5.17682262692251e-05 0.000463328840499272 -0.000108136243104087 -0.000108722397771125 0.000123663675781827 0.000363569460442399 9.86229680884736e-05
"250" 0.000193659533717351 -0.000109959395554032 -7.53900651642079e-05 0.000103400332475825 1.71117215007265e-05 2.70064023332654e-06 -0.000204952571386776 -0.000130414380652348 0.000212724430035001 -5.56642203257986e-05 0.000455728549636325 -0.00011688923329833 -0.000120648101019793 0.000124284867999089 0.000367366399686027 9.4764789447961e-05
"251" 0.000194054416927607 -0.00010773994522212 -7.10472442387808e-05 0.000103306164160389 1.81535343944658e-05 6.51121368223414e-06 -0.000202492418475695 -0.000132908459384063 0.000215248383395684 -6.01968272209911e-05 0.000448097030008614 -0.000126568730663208 -0.000133476136696491 0.000124422039844116 0.000370385955266278 9.0338683896339e-05
"252" 0.000194010474692888 -0.000105824786623676 -6.68685523053628e-05 0.000102846251221839 1.93799436343168e-05 1.01788661168081e-05 -0.000200214773594723 -0.000135413579566002 0.00021704050636909 -6.53572073164539e-05 0.000440477579576973 -0.000137132452653978 -0.000147156387436873 0.000124073037583437 0.000372633561394736 8.53345659671063e-05
"253" 0.000193514365705589 -0.000104259939540918 -6.28970488092217e-05 0.000102001169901513 2.0753108031546e-05 1.36676816551333e-05 -0.000198175370998789 -0.000137957103987979 0.000218081618168659 -7.11318176024153e-05 0.000432911370893963 -0.00014851825082155 -0.000161631158493394 0.000123250982094442 0.000374117206796112 7.9758099433048e-05
"254" 0.000192549232101137 -0.000103086335903295 -5.91682346709425e-05 0.000100758753740247 2.22348147062076e-05 1.69437265531195e-05 -0.000196426952911943 -0.000140551718609037 0.000218350333573077 -7.75065509327617e-05 0.000425447171823077 -0.00016066394444137 -0.000176839446851263 0.000121969065481472 0.000374857134514124 7.36170077122971e-05
"255" 0.000191097620652572 -0.000102343705611194 -5.57175860778116e-05 9.91077530540662e-05 2.3790405496271e-05 1.9975809148337e-05 -0.00019501765667332 -0.000143221160558741 0.000217841930390206 -8.44568585815513e-05 0.000418123228434338 -0.000173494269365542 -0.000192712375690583 0.000120245236625612 0.000374869059655946 6.69175947778197e-05
"256" 0.000189154730712816 -0.000102069390238476 -5.2574581365773e-05 9.70407974664759e-05 2.53807417259291e-05 2.27307663262568e-05 -0.000194001058197279 -0.000145983851793454 0.000216555927244916 -9.19583490175704e-05 0.000410986078583413 -0.000186930566298341 -0.000209171465578484 0.000118109394756755 0.000374184473339443 5.9681577728921e-05
"257" 0.000186706400517685 -0.000102291268151685 -4.97673750053113e-05 9.455086606287e-05 2.69702420748162e-05 2.51850564063772e-05 -0.000193419085110779 -0.000148852768161407 0.000214500935007079 -9.99748593854089e-05 0.000404075840460313 -0.000200881633935708 -0.000226138138425927 0.000115588467794747 0.000372829723337904 5.19306399726396e-05
"258" 0.000183756925745096 -0.000103036043896685 -4.73233917038104e-05 9.16391650951176e-05 2.85186501230778e-05 2.73082661409665e-05 -0.000193310937929328 -0.000151853035868952 0.000211692749098022 -0.000108476533226518 0.000397437206177176 -0.000215253056379753 -0.00024352475204133 0.000112722930036438 0.000370842138185858 4.36875646722408e-05
"259" 0.000180296329337127 -0.000104328892254684 -4.52638098017685e-05 8.83039803608373e-05 2.99947697149866e-05 2.90765095161434e-05 -0.000193712302172314 -0.000154998686819571 0.000208155269211254 -0.000117418781584772 0.0003911058838424 -0.000229944231839692 -0.000261247158504116 0.000109546270459372 0.000368260485516527 3.49901566419607e-05
"260" 0.00017633539807827 -0.000106182547185821 -4.36037832369559e-05 8.45486079825227e-05 3.1363809965142e-05 3.04668414887157e-05 -0.000194651845228631 -0.000158301941889924 0.000203920258158272 -0.000126758768896301 0.000385121336637678 -0.000244850796417151 -0.00027920598079123 0.000106108028133515 0.000365130002201473 2.58702526022559e-05
"261" 0.000171876045473416 -0.000108609919705146 -4.23620163796834e-05 8.03850025772804e-05 3.25926910495053e-05 3.14621770127115e-05 -0.00019615442398949 -0.000161783575762049 0.000199026939474705 -0.000136447976412328 0.000379516525201013 -0.000259863333642432 -0.000297307465026419 0.000102453169393145 0.000361497394499536 1.63707582408537e-05
"262" 0.000166928229290138 -0.00011161476224618 -4.15450578230983e-05 7.58188285147349e-05 3.36511623828105e-05 3.20506054900993e-05 -0.000198236175284997 -0.000165449679293198 0.000193520700260806 -0.000146437945438539 0.00037432671308288 -0.000274870882287219 -0.000315456992338168 9.86331369099002e-05 0.000357414684193736 6.53877491921277e-06
"263" 0.000161508079974213 -0.000115197645215769 -4.11609530548391e-05 7.08660629670456e-05 3.45153755878487e-05 3.22155137061966e-05 -0.000200911165474744 -0.000169310929052202 0.000187449933503136 -0.000156671120848388 0.000369583008172651 -0.000289758411371574 -0.000333550276923195 9.47014831372579e-05 0.000352934003731826 -3.57692752841937e-06
"264" 0.000155632563189335 -0.000119354407205799 -4.12102051755786e-05 6.55433256727882e-05 3.51554152331883e-05 3.19513880172972e-05 -0.000204181135977078 -0.000173374314965671 0.000180873000350629 -0.000167093116788348 0.000365311332618666 -0.000304414774556056 -0.00035148977683005 9.07120941363773e-05 0.000348117335394326 -1.39230508260588e-05
"265" 0.000149317473783542 -0.000124069158276171 -4.16880068604548e-05 5.98703866678382e-05 3.556035923492e-05 3.12546018760632e-05 -0.000208046933392386 -0.000177641663410842 0.000173845472292569 -0.000177645471905003 0.000361536836642992 -0.000318720046198173 -0.000369173142608861 8.67206133145477e-05 0.000343017157497163 -2.44457341446321e-05
"266" 0.000142589914871054 -0.000129325291292814 -4.25919244805754e-05 5.38703414136751e-05 3.57088982952544e-05 3.01260556246372e-05 -0.000212493905008539 -0.000182111637742918 0.000166435834965388 -0.00018826716708537 0.000358281032170301 -0.00033257111270646 -0.000386504870362571 8.27831930572278e-05 0.000337695281823869 -3.50798835053801e-05
"267" 0.000135470989079598 -0.00013510056905883 -4.39071527688802e-05 4.75675235966908e-05 3.55874153966171e-05 2.85728112516939e-05 -0.000217512523623434 -0.000186786657784662 0.000158706999501529 -0.000198899041258947 0.000355562641448236 -0.000345849888977334 -0.000403385282529535 7.89556695095846e-05 0.000332218442295162 -4.57633901077003e-05
"268" 0.000127994844938452 -0.000141362616085498 -4.56197170490212e-05 4.09914917688762e-05 3.51931021565594e-05 2.66018013332483e-05 -0.000223075054074469 -0.000191649400695469 0.000150730798186556 -0.000209474097422534 0.000353398650948334 -0.000358448072305025 -0.000419712930912009 7.5295332974189e-05 0.000326645036579805 -5.64362555235526e-05
"269" 0.000120189920886325 -0.000148079245951699 -4.77111911499832e-05 3.4170499896079e-05 3.45180279726925e-05 2.42283927556756e-05 -0.000229151700100507 -0.000196700689148991 0.000142574516359578 -0.000219930911128498 0.0003517982617991 -0.000370263593381351 -0.000435403061957376 7.18530073023791e-05 0.000321036582046579 -6.70264542501134e-05
"270" 0.000112086499923315 -0.000155209700632183 -5.01568720662461e-05 2.71373980777643e-05 3.35637374302847e-05 2.14675958303555e-05 -0.000235710034820831 -0.000201919705236301 0.000134312520250247 -0.0002302047399161 0.000350770810975684 -0.000381198509426539 -0.000450357933208239 6.86823369802464e-05 0.000315461924516666 -7.74710783712192e-05
"271" 0.000103726579449132 -0.000162709056506463 -5.29350750807585e-05 1.9924621215927e-05 3.23369601599724e-05 1.83465401371763e-05 -0.000242706682574251 -0.000207291002807241 0.000126012689110803 -0.000240234139912367 0.000350321168737458 -0.000391157006062177 -0.000464495389775669 6.58342390775027e-05 0.000309978207055657 -8.76985857597487e-05
"272" 9.51379534974558e-05 -0.000170528882929379 -5.60115736740187e-05 1.25717578349697e-05 3.08471122893337e-05 1.48888213535214e-05 -0.000250091793598719 -0.000212790464617221 0.00011774321942044 -0.000249956103830748 0.000350450817525207 -0.000400048626452942 -0.000477729191831674 6.33506478426187e-05 0.000304646576860963 -9.7643670406649e-05
"273" 8.6368059779757e-05 -0.000178617674438706 -5.93568726349046e-05 5.11256579092145e-06 2.91055053884002e-05 1.11262020572748e-05 -0.00025781522711579 -0.000218395128833413 0.000109576712830319 -0.000259307706219497 0.000351161167712494 -0.00040779716921073 -0.000489985608590543 6.12794719917432e-05 0.000299528568741904 -0.00010723412607428
"274" 7.74467782956083e-05 -0.000186918847283804 -6.29385186212945e-05 -2.41419734220604e-06 2.71342640332072e-05 7.09214080392005e-06 -0.000265818375270049 -0.000224076486669399 0.000101576708196191 -0.000268230011896986 0.000352442274541105 -0.000414323150669367 -0.000501191825849941 5.96536994798006e-05 0.000294675304072501 -0.000116407377306348
"275" 6.8418890421759e-05 -0.000195378014129863 -6.67193706746826e-05 -9.97122304781166e-06 2.49491135452516e-05 2.82042371268289e-06 -0.000274038224097125 -0.000229803493634377 9.38049217047744e-05 -0.000276663394858339 0.000354287200301897 -0.000419565306556107 -0.000511280935930779 5.85110599212124e-05 0.000290148747767573 -0.00012509332214025
"276" 5.93208239611612e-05 -0.00020393101011175 -7.06554711556432e-05 -1.75191138405094e-05 2.25804553662513e-05 -1.6439653161344e-06 -0.000282415648792331 -0.000235543180591796 8.63217933519117e-05 -0.000284551304001786 0.000356683954636642 -0.000423464125619088 -0.000520193741704688 5.78793456323978e-05 0.000285991500043035 -0.000133235329226699
"277" 5.01947179846343e-05 -0.00021251504924475 -7.47138550730616e-05 -2.50208171453526e-05 2.00535356442381e-05 -6.2598267029629e-06 -0.000290878664948677 -0.00024125935818565 7.91809931026367e-05 -0.0002918429327075 0.000359621777889717 -0.000425972191438435 -0.000527876660429446 5.77822977265699e-05 0.000282256386445397 -0.000140766261635168
"278" 4.10782510811885e-05 -0.00022107073412155 -7.88493033621848e-05 -3.24355473019423e-05 1.74039625793475e-05 -1.09856450657509e-05 -0.000299361604139237 -0.000246908482767643 7.24331109844034e-05 -0.000298486373449639 0.000363077111841747 -0.000427051001938056 -0.000534282976729077 5.82361690886109e-05 0.000278986924462671 -0.000147633182113741
"279" 3.20076700630552e-05 -0.000229532330586196 -8.30258370073191e-05 -3.97269917929585e-05 1.46621417302041e-05 -1.57710152777991e-05 -0.000307788521204497 -0.000252456602767154 6.61249644891393e-05 -0.000304434818204987 0.000367034425050657 -0.000426669332619493 -0.000539377855565341 5.92564477765124e-05 0.000276217231528181 -0.000153780428400239
"280" 2.30177580130102e-05 -0.000237840527609496 -8.71938419132485e-05 -4.68594530985587e-05 1.18636182853039e-05 -2.05712292838109e-05 -0.000316093378885602 -0.000257860655879051 6.02936116086021e-05 -0.000309643833340144 0.000371468733259177 -0.000424812758888145 -0.000543127938737066 6.08458460652761e-05 0.00027398290036353 -0.000159156402362345
"281" 1.41448402571578e-05 -0.00024593089168881 -9.13172286694709e-05 -5.37971755988036e-05 9.04683839804474e-06 -2.53360475124871e-05 -0.000324205570735991 -0.000263079758916924 5.49756139515396e-05 -0.000314074890786404 0.000376354384890239 -0.000421467299723443 -0.000545509822723767 6.30044531745821e-05 0.000272312823978897 -0.000163721205629497
"282" 5.42335542240055e-06 -0.000253744640597468 -9.53535913741052e-05 -6.05044786105563e-05 6.25458945674003e-06 -3.00201626879552e-05 -0.000332056929377989 -0.000268066678883107 5.01994153041934e-05 -0.00031769530212912 0.000381664534658702 -0.000416639074947407 -0.000546514293110001 6.57290463410181e-05 0.000271228855796335 -0.000167429777093279
"283" -3.11810674824214e-06 -0.000261222726653591 -9.92610068409139e-05 -6.69522776846682e-05 3.5200586229463e-06 -3.45731358632937e-05 -0.000339576028073409 -0.00027278617424712 4.59845112608244e-05 -0.000320471206623074 0.000387368129246913 -0.000410334895467757 -0.000546129101248831 6.90070583003295e-05 0.000270750564026009 -0.000170251972553728
"284" -1.14484293510124e-05 -0.00026831023674875 -0.000102999477548771 -7.31090246102554e-05 8.85966853520554e-07 -3.89493350941791e-05 -0.000346702239641782 -0.000277193622105187 4.2345533704148e-05 -0.000322380269085964 0.000393434374921933 -0.000402583215268508 -0.000544362404958017 7.28172690703235e-05 0.000270889847512138 -0.00017216062932548
"285" -1.95482757176287e-05 -0.000274955769426172 -0.000106529352105032 -7.89445410909047e-05 -1.60562666083975e-06 -4.31025950107727e-05 -0.000353376331484149 -0.000281249160168614 3.92945988926986e-05 -0.000323403875986206 0.000399835138273627 -0.000393415022527491 -0.000541222173996349 7.71362082110039e-05 0.000271647671799304 -0.000173129062912985
"286" -2.73893236760583e-05 -0.000281110554236088 -0.000109818865218837 -8.44378300533165e-05 -3.91841753838549e-06 -4.69921259320373e-05 -0.000359539825886795 -0.000284917541036904 3.68339236668597e-05 -0.000323523606839036 0.00040652918524919 -0.000382871972792007 -0.000536732770582336 8.19387884555524e-05 0.000273027132092133 -0.000173145209745303
"287" -3.49557530425802e-05 -0.00028672990785953 -0.000112829899499584 -8.95646015788343e-05 -6.01477432970715e-06 -5.05729839949759e-05 -0.0003651404793895 -0.000288156220382179 3.49604110820313e-05 -0.000322734501996016 0.000413487811727711 -0.000371008765514823 -0.000530917519100892 8.71816355832977e-05 0.000275016613102868 -0.000172201944803845
"288" -4.22321727385943e-05 -0.000291773616921093 -0.000115528899873016 -9.43062418204771e-05 -7.85898139869387e-06 -5.38102927222384e-05 -0.000370134543071611 -0.000290941952031453 3.36628503369675e-05 -0.000321032484052183 0.000420673611381637 -0.000357888989927787 -0.000523818836613177 9.28308479827671e-05 0.000277607253519121 -0.000170296871376894
"289" -4.92021962291962e-05 -0.000296210012878996 -0.000117887158283307 -9.86446297406312e-05 -9.4157059283695e-06 -5.66681204261923e-05 -0.000374483069116538 -0.000293239334325736 3.29285453520853e-05 -0.000318420110214083 0.000428051674890401 -0.000343584872765209 -0.000515481460173901 9.88399616883446e-05 0.000280774851700655 -0.000167435173181825
"290" -5.58586642755901e-05 -0.000300011599919444 -0.000119882562720925 -0.000102565837819503 -1.06587345504467e-05 -5.91160870543756e-05 -0.000378149539382355 -0.00029502342030889 3.27353608816079e-05 -0.000314908169027069 0.000435584822020209 -0.000328180887776044 -0.000505960618946936 0.000105160409977561 0.000284497475778461 -0.0001636284359926
"291" -6.21948673213255e-05 -0.000303148521220488 -0.000121481398337633 -0.000106059185153858 -1.1558747163404e-05 -6.1130239355786e-05 -0.000381110445927309 -0.000296271609301599 3.30607621326398e-05 -0.000310511370660479 0.000443241822384827 -0.000311760888091697 -0.000495313375193513 0.000111739587991946 0.00028874066092179 -0.000158901683613357
"292" -6.8205042909199e-05 -0.00030561020921155 -0.000122670121770069 -0.000109117762162211 -1.20882301209575e-05 -6.26829234216882e-05 -0.000383340423380295 -0.000296970919712658 3.38716911859941e-05 -0.000305247363712293 0.000450985608365669 -0.000294429060614547 -0.00048361497662009 0.000118522174357389 0.000293466648517001 -0.000153275498312187
"293" -7.3892584742349e-05 -0.000307381703962857 -0.000123431237444088 -0.000111737168177256 -1.22312055111908e-05 -6.37601968874296e-05 -0.000384834165524332 -0.000297103860408475 3.51402062404041e-05 -0.000299147126808047 0.000458784851558309 -0.000276283170727661 -0.000470937404447172 0.000125450723980967 0.000298633054636682 -0.000146785898547074
"294" -7.92595804056466e-05 -0.000308458289426366 -0.000123747290649028 -0.000113915468727079 -1.19685889613454e-05 -6.43502725499432e-05 -0.000385587089463614 -0.000296666374648928 3.68222154515784e-05 -0.000292241956540703 0.000466606537939103 -0.000257439930277391 -0.000457366125188082 0.000132465956990093 0.000304193406520942 -0.000139475594063573
"295" -8.43076739537769e-05 -0.000308840348183366 -0.00012360675187496 -0.000115653811451875 -1.12914424537132e-05 -6.44445350421542e-05 -0.000385595259842504 -0.00029565672839013 3.88825181014908e-05 -0.000284568365495467 0.000474423381465388 -0.000238011574500125 -0.000442986299797656 0.000139508884298421 0.000310094155544899 -0.000131390498479354
"296" -8.90513459905137e-05 -0.000308541911176173 -0.000123012863880767 -0.000116959026649417 -1.01923906067388e-05 -6.4041413425731e-05 -0.000384881311593192 -0.000294076874571346 4.12759315050682e-05 -0.000276169700667172 0.000482204973751685 -0.000218115968919383 -0.000427892077857294 0.00014651849062199 0.000316279036530175 -0.000122579747884526
"297" -9.34993106237506e-05 -0.000307569082152301 -0.000121954887697277 -0.000117837010429115 -8.67036777558845e-06 -6.31430331595165e-05 -0.000383453763116724 -0.000291938268182674 4.39598352805865e-05 -0.000267097038990708 0.000489930383746001 -0.000197880360748841 -0.000412182997987927 0.0001534368174813 0.000322688455969536 -0.000113106007995096
"298" -9.766240964166e-05 -0.000305947345236311 -0.000120437783127468 -0.000118299428299668 -6.72798546393145e-06 -6.17589184154878e-05 -0.000381344549939826 -0.000289249478449882 4.688982495592e-05 -0.000257399141796715 0.000497571689608445 -0.000177423520460439 -0.000395955751829507 0.000160206632205529 0.000329262188872038 -0.000103029240589176
"299" -0.000101555425119266 -0.000303699162414909 -0.000118470860694815 -0.000118359489936085 -4.37422359129029e-06 -5.99004732301514e-05 -0.000378583399060875 -0.000286037854587174 5.00229363454929e-05 -0.0002471330293647 0.000505114671794961 -0.000156872240946891 -0.000379315674055244 0.000166772091584979 0.000335932507152577 -9.24232902505363e-05
"300" -0.000105195165365631 -0.000300860572309263 -0.000116059895236623 -0.000118030440585412 -1.61911029086498e-06 -5.75868081691193e-05 -0.000375211039920291 -0.000282319531442727 5.33126732689007e-05 -0.000236360507324208 0.000512541178421707 -0.000136349680341702 -0.000362366012106593 0.000173079458853831 0.000342634694764686 -8.13545602953853e-05
"301" -0.000108594967643385 -0.000297464759093957 -0.000113221882080861 -0.000117331827554896 1.51780845838797e-06 -5.48409070712556e-05 -0.000371272046474962 -0.000278128204364168 5.67163329773529e-05 -0.000225144623309662 0.000519838229524901 -0.000115981201155127 -0.000345210658438929 0.00017907985424929 0.000349301351055913 -6.99017284107726e-05
"302" -0.000111779472597849 -0.000293558173056297 -0.000109975651450771 -0.000116282436310488 5.0089185810449e-06 -5.16910939593082e-05 -0.000366817026893275 -0.000273498706334755 6.0192283823351e-05 -0.000213551291848747 0.000526997264614656 -9.58810278768114e-05 -0.000327956471945729 0.000184731687793626 0.00035586980100861 -5.81407476909446e-05
"303" -0.000114757933929159 -0.000289184142166921 -0.000106346387973815 -0.0001149038873239 8.83372395563696e-06 -4.81647025956086e-05 -0.000361906544672952 -0.000268466440948588 6.37052653052208e-05 -0.000201647060771568 0.000534012327971351 -7.61640532538014e-05 -0.000310701556349975 0.000189994343787421 0.000362272687816745 -4.61576909910401e-05
"304" -0.000117554507914917 -0.000284401208689818 -0.000102359475585592 -0.000113221520990514 1.29551025292686e-05 -4.43043983598378e-05 -0.000356601111127228 -0.000263081534462285 6.72143528155202e-05 -0.000189503526167754 0.000540878003771169 -5.69395388603772e-05 -0.000293547721006981 0.000194835175571873 0.000368443410770825 -3.40322773803607e-05
"305" -0.00012018575131152 -0.000279257974932377 -9.80454700055596e-05 -0.000111258143963025 1.73385591708803e-05 -4.01422828106578e-05 -0.00035096266650404 -0.000257381834105995 7.06919179520066e-05 -0.000177187706724704 0.000547599674124187 -3.83059443780856e-05 -0.000276587640324275 0.000199226254804031 0.000374320614046107 -2.18464410831494e-05
"306" -0.000122668671411573 -0.00027381469769887 -9.34384092372276e-05 -0.000109038495589116 2.19454099313188e-05 -3.57224903117511e-05 -0.000345056792246247 -0.000251419977519564 7.41065236455992e-05 -0.000164772990710745 0.000554179560878518 -2.03564546923004e-05 -0.00025991724370268 0.000203146289577092 0.000379844807776814 -9.68902611734499e-06
"307" -0.00012501583284252 -0.000268134786183321 -8.85766038207887e-05 -0.000106590166843232 2.67320667688068e-05 -3.10865233124073e-05 -0.000338959481255777 -0.00024524452103024 7.74359374204626e-05 -0.000152327304511819 0.000560629046150416 -3.17565082320707e-06 -0.000243619299518043 0.000206580810210172 0.000384962113322399 2.35898296365557e-06
"308" -0.000127245005008977 -0.000262280084684668 -8.34992487269665e-05 -0.000103941974086563 3.16516495958459e-05 -2.62849035984951e-05 -0.000332738518754102 -0.000238911844289521 8.06623843505088e-05 -0.000139921812629125 0.000566951648951323 1.31620202378651e-05 -0.000227773452922938 0.000209523588285193 0.000389619484132045 1.4214270984296e-05
"309" -0.000129367896482885 -0.000256314543470085 -7.82490132318913e-05 -0.00010111818962737 3.66525903563767e-05 -2.13602575110807e-05 -0.00032646696469923 -0.000232476623173157 8.37673196873862e-05 -0.000127622842158134 0.000573168854213393 2.85939312512973e-05 -0.000212449788424744 0.000211975494698537 0.000393769799265863 2.57978128495517e-05
"310" -0.000131394851664592 -0.000250306512970636 -7.28748700168033e-05 -9.81495776800554e-05 4.16895931976603e-05 -1.63671487410138e-05 -0.000320215494666593 -0.000225996203287761 8.67466262716983e-05 -0.000115493673603091 0.000579288620974588 4.30691489741916e-05 -0.000197716390418192 0.000213940039589663 0.000397370351220282 3.70287244118488e-05
"311" -0.000133337105615613 -0.000244316470436645 -6.74166283474868e-05 -9.50612600538823e-05 4.67085584684548e-05 -1.13466012528629e-05 -0.000314055961164947 -0.000219520822581566 8.95940890425275e-05 -0.000103599893517419 0.000585331167459628 5.65487777889415e-05 -0.000183624034769271 0.000215434032826542 0.000400384451365057 4.78265628797298e-05
"312" -0.000135201499516389 -0.000238416564902235 -6.19303082337572e-05 -9.18828707467591e-05 5.16563098460019e-05 -6.35436561574406e-06 -0.000308054354001907 -0.000213110189928306 9.23085530895756e-05 -9.19997942245176e-05 0.000591312165569651 6.90043566648382e-05 -0.000170225583732206 0.000216475537043383 0.000402779381226848 5.81232092395383e-05
"313" -0.000136993643826824 -0.000232663138624521 -5.64568137965554e-05 -8.86442737833058e-05 5.64793007877307e-05 -1.43832867934783e-06 -0.000302280967173436 -0.000206820794247517 9.48961449291938e-05 -8.07497561185735e-05 0.000597248659520578 8.04160882161821e-05 -0.000157557383110115 0.00021709267461921 0.000404535644756318 6.78504024664912e-05
"314" -0.000138713282714406 -0.000227120564788814 -5.10477615361629e-05 -8.53682850346331e-05 6.11245881683228e-05 3.3570731305655e-06 -0.000296797940205712 -0.000200703202107172 9.73657360301402e-05 -6.99016067649082e-05 0.000603160924856473 9.0784390925569e-05 -0.000145649958483889 0.000217314605897311 0.000405627295382238 7.693886698357e-05
"315" -0.00014035914025875 -0.000221845513566425 -4.57498709294221e-05 -8.20822227230232e-05 6.55448583499933e-05 7.98168532945577e-06 -0.000291661668414901 -0.000194812393076704 9.97294230615092e-05 -5.95047150848204e-05 0.000609059991861609 0.000100111966703012 -0.000134525221342099 0.000217179095668729 0.000406043753183613 8.53307021777052e-05
"316" -0.00014193100406396 -0.000216894299009439 -4.0612932499869e-05 -7.88102602619495e-05 6.96841786972013e-05 1.2395390397498e-05 -0.000286926762210906 -0.000189190682791906 0.000102003790201242 -4.96024622879988e-05 0.000614965131076268 0.000108419146249559 -0.000124190812807819 0.00021672894543243 0.000405777993642447 9.2972652400063e-05
"317" -0.000143422671632695 -0.000212317622402479 -3.56824256393795e-05 -7.55821272289414e-05 7.34984630100879e-05 1.65510972856475e-05 -0.000282644775585999 -0.000183892435572034 0.000104211956531496 -4.02320491763158e-05 0.000620881685491242 0.000115735460173421 -0.000114653865983224 0.000216006713909111 0.000404829932720347 9.98120965256878e-05
"318" -0.000144830871757015 -0.000208163445832492 -3.0996847932505e-05 -7.24147799094814e-05 7.69398345221008e-05 2.04109268551725e-05 -0.000278850375898299 -0.000178953226096967 0.000106370954273922 -3.14303140891689e-05 0.000626823892697616 0.000122095363540618 -0.000105910228737933 0.000215062732969219 0.000403203395916324 0.000105810436550065
"319" -0.000146138081357226 -0.000204476556238323 -2.6606553155618e-05 -6.93360560335121e-05 7.9965663410491e-05 2.39383813068765e-05 -0.000275590600635553 -0.000174419653277623 0.000108508496519518 -2.32228646159424e-05 0.000632792764798732 0.000127546504674869 -9.79471051750897e-05 0.000213944147948916 0.000400905781834822 0.0001109269936296
"320" -0.000147336973058504 -0.000201284995842982 -2.25411495184361e-05 -6.63627244021929e-05 8.25400617726282e-05 2.71006533514531e-05 -0.000272886132416549 -0.000170317458841159 0.000110642399364075 -1.5638296814426e-05 0.000638786538502534 0.000132142501246455 -9.07421886805314e-05 0.000212702770860513 0.000397956471295675 0.000115131321513387
"321" -0.000148411342660977 -0.000198627112903282 -1.88451891740636e-05 -6.35203532289047e-05 8.46257045213139e-05 2.98662755105003e-05 -0.000270761656925742 -0.000166684388026394 0.000112805968992842 -8.69096719316716e-06 0.000644801591684653 0.000135944400456482 -8.42719639822753e-05 0.000211392626875771 0.000394374575523034 0.000118405682658473
"322" -0.000149350693471404 -0.000196524617955922 -1.55410941208196e-05 -6.08226951227758e-05 8.6193868756807e-05 3.22123458134269e-05 -0.000269229434395986 -0.000163543168566122 0.000115016900657899 -2.39991520227005e-06 0.000650823997552096 0.00013901736405106 -7.85052283931791e-05 0.000210061901325046 0.000390180059099562 0.000120727188659426
"323" -0.000150132870326067 -0.000194996996478 -1.26631419259882e-05 -5.82910787506317e-05 8.7215668532264e-05 3.41110906108791e-05 -0.000268302632237622 -0.000160913845937022 0.000117301359771805 3.23077053282958e-06 0.000656831902409563 0.000141431143730575 -7.34004617711182e-05 0.000208762533729624 0.00038540910514413 0.000122088485067617
"324" -0.000150738829738807 -0.000194052511270612 -1.02318246315069e-05 -5.59409014775005e-05 8.76732884022729e-05 3.5551358089197e-05 -0.000267974629390165 -0.000158814318654425 0.000119680827974714 8.19225810367429e-06 0.000662805649176999 0.000143255006441326 -6.89216224167773e-05 0.000207538107403016 0.000380087111728407 0.000122485671491063
"325" -0.00015115326139961 -0.000193699131819546 -8.26663853302286e-06 -5.37845396094427e-05 8.75527583872081e-05 3.65162418032615e-05 -0.00026824142130058 -0.000157249638900545 0.000122174991850031 1.24847249531169e-05 0.00066871314857656 0.000144569028284505 -6.50163847982251e-05 0.000206435180571479 0.000374254265749316 0.000121924353878423
"326" -0.000151352831083391 -0.000193934466538089 -6.78021346044145e-06 -5.18410051374143e-05 8.6843689455298e-05 3.69965799222961e-05 -0.00026908498148283 -0.000156229200505951 0.000124796871398402 1.61156042864061e-05 0.000674509995602677 0.000145440002510964 -6.1645559507854e-05 0.000205493776532924 0.000367945529963393 0.000120416675043294
"327" -0.000151315957494901 -0.000194749500833571 -5.78096335912243e-06 -5.01179897518047e-05 8.55442534968566e-05 3.69891733786499e-05 -0.00027047650853623 -0.00015574796457171 0.000127564421003069 1.9090468518315e-05 0.000680153865794586 0.000145947861067286 -5.87508563443472e-05 0.000204753299686959 0.000361200059278032 0.000117979866395292
"328" -0.000151026581688613 -0.000196126962424961 -5.27624582739142e-06 -4.8628913434097e-05 8.36521060352364e-05 3.64956241974093e-05 -0.000272394421045381 -0.000155798401872066 0.000130484394959666 2.14228300730238e-05 0.000685590315454798 0.00014616049369367 -5.62828458776156e-05 0.000204241262953348 0.000354062894385801 0.000114640707695668
"329" -0.00015046273587437 -0.000198049801010506 -5.26646083034453e-06 -4.73824530651059e-05 8.11795584851392e-05 3.55235670959902e-05 -0.000274792505864962 -0.00015636990379412 0.000133565331426188 2.31299541025101e-05 0.000690763754894091 0.000146152862569369 -5.41848433987857e-05 0.000203988756959071 0.000346575191135877 0.000110431300136899
"330" -0.000149603148043323 -0.000200489115935004 -5.74626642801375e-06 -4.63857784707117e-05 7.81389411026538e-05 3.40760057484398e-05 -0.000277631932701305 -0.000157441683405161 0.000136804061413936 2.4231611944254e-05 0.000695603721833503 0.000145989210300622 -5.24060063226046e-05 0.000204014835885407 0.000338776403819345 0.000105387369064718
"331" -0.000148431446714271 -0.000203411064503976 -6.70471919689556e-06 -4.56476559826679e-05 7.45509089642352e-05 3.21754460484444e-05 -0.00028086125442632 -0.000158988383812308 0.000140197529030428 2.47499400132169e-05 0.000700044576698094 0.00014572993932071 -5.0892031488643e-05 0.000204336608676205 0.000330717815320644 9.9556681748723e-05
"332" -0.000146925612268676 -0.0002067776564193 -8.13050209607297e-06 -4.51726954669359e-05 7.04372337160881e-05 2.9839290692932e-05 -0.000284424226843631 -0.000160979989991205 0.000143741596342129 2.47128499728881e-05 0.000704008568590019 0.000145437590442971 -4.95884059475737e-05 0.000204963753525825 0.000322440982323463 9.29866229519809e-05
"333" -0.000145076776683473 -0.000210545222306427 -1.00081214410379e-05 -4.49629044945079e-05 6.58317870562611e-05 2.70870208771267e-05 -0.000288257591768133 -0.000163385220934094 0.000147419492840544 2.41458109742068e-05 0.000707415558779445 0.000145161780528672 -4.84440568870977e-05 0.000205900270776855 0.000313988683254198 8.57364800632918e-05
"334" -0.000142862422688877 -0.000214665904020642 -1.23136742371017e-05 -4.50247043419936e-05 6.0767288152662e-05 2.39522432348241e-05 -0.000292301081614196 -0.000166160512048134 0.000151216243709128 2.30827340644193e-05 0.000710186529204481 0.000144952966554756 -4.74033354608182e-05 0.000207148102869661 0.000305401359068843 7.78612221629036e-05
"335" -0.000140280627931903 -0.000219087214327473 -1.50251682079717e-05 -4.53561290603557e-05 5.52870563612447e-05 2.04630815497131e-05 -0.00029648125683309 -0.000169258783156578 0.00015511059087659 2.1558273341146e-05 0.000712235521139645 0.00014485044090789 -4.6421373892343e-05 0.000208695938082096 0.000296726049107323 6.94268098996763e-05
"336" -0.000137315290868127 -0.000223752833940438 -1.81139495651669e-05 -4.59558333106736e-05 4.94350385528257e-05 1.66604435853576e-05 -0.000300730053125865 -0.000172630571277877 0.000159074912902715 1.960425099113e-05 0.000713476246527492 0.000144893962200755 -4.54449938765767e-05 0.000210531332056503 0.000288001915422773 6.04956986482462e-05
"337" -0.000133962102340473 -0.00022860635946499 -2.15510279282399e-05 -4.68246455873535e-05 4.32574351819627e-05 1.25768924735885e-05 -0.000304972818262388 -0.000176223738448179 0.000163081562030688 1.72591955350354e-05 0.000713823112078023 0.000145111522451194 -4.443326634384e-05 0.000212639188495726 0.000279266767659644 5.11461486599336e-05
"338" -0.000130220266168665 -0.000233589380665063 -2.5306916715117e-05 -4.79609419593924e-05 3.68056328934884e-05 8.25797990113511e-06 -0.00030913709809226 -0.000179980538897437 0.000167097111275015 1.45606178103265e-05 0.000713196941403027 0.000145525040242108 -4.33410811266214e-05 0.000214998159179465 0.000270560127567417 4.14446569516468e-05
"339" -0.000126085804066345 -0.000238641489867601 -2.93432175264203e-05 -4.93565316057165e-05 3.01355710873977e-05 3.74799384917038e-06 -0.000313146121517038 -0.000183837938586063 0.000171086290297764 1.15495429524666e-05 0.000711509102606181 0.000146158175262985 -4.21252261933025e-05 0.000217576909506368 0.000261917837708024 3.14636320069487e-05
"340" -0.000121569101229676 -0.000243698241744529 -3.36293010820961e-05 -5.10089394600021e-05 2.33082984729216e-05 -9.04562838532075e-07 -0.000316929357837143 -0.000187736439736929 0.000175005823954479 8.2626699037409e-06 0.000708687017805465 0.000147017791505388 -4.07514524216324e-05 0.000220349699165444 0.000253369004757399 2.12775898706641e-05
"341" -0.000116674885752166 -0.00024870058249109 -3.81280340295176e-05 -5.2909523407685e-05 1.63771518285817e-05 -5.65612100098754e-06 -0.000320414271269949 -0.000191611650356751 0.000178817300899262 4.74224817602212e-06 0.000704657207237901 0.000148110577351931 -3.91834775565113e-05 0.000223276067569707 0.000244947218147168 1.09599390732904e-05
"342" -0.000111415990869642 -0.000253584071232457 -4.27972852291514e-05 -5.50526467166011e-05 9.40484261706959e-06 -1.04525267487188e-05 -0.000323526684652078 -0.000195390286588253 0.000182475455858058 1.02664187118078e-06 0.000699347209812378 0.000149437993935169 -3.73906195266159e-05 0.00022632203069832 0.000236682670345271 5.77518540105552e-07
"343" -0.00010581008179146 -0.000258295160419193 -4.76094001192455e-05 -5.74293501256087e-05 2.45378476478398e-06 -1.52433924775506e-05 -0.000326208655797509 -0.000199018258539702 0.00018593767796919 -2.8439874334364e-06 0.000692697484184259 0.000150994249565718 -3.534696436053e-05 0.000229447621801762 0.000228594662537689 -9.79440289318589e-06
"344" -9.98794138519657e-05 -0.000262773275542791 -5.25204555852651e-05 -6.00303467950715e-05 -4.4177326047296e-06 -1.99827352846789e-05 -0.000328392862698225 -0.000202422827109414 0.000189155737288734 -6.83146937557707e-06 0.000684654629378884 0.000152766748895513 -3.30284827097381e-05 0.000232605252801889 0.000220709918498403 -2.00918380705898e-05
"345" -9.36426806215818e-05 -0.000266963508210818 -5.74953413783627e-05 -6.2845192703105e-05 -1.11452351327711e-05 -2.46160248345728e-05 -0.00033002364252862 -0.000205538182599059 0.000192081501479277 -1.08955395907395e-05 0.000675175119320862 0.000154741793044508 -3.04174436320769e-05 0.000235756506614876 0.000213046559738694 -3.02502303905745e-05
"346" -8.71427285442928e-05 -0.000270815947257824 -6.24999477453995e-05 -6.5862931715197e-05 -1.76755615537661e-05 -2.91017322751865e-05 -0.000331050666287051 -0.000208307350825686 0.0001946706077299 -1.50022834002095e-05 0.000664215934840438 0.000156890686650394 -2.74972490381483e-05 0.000238852608936955 0.000205619404082247 -4.02127004872051e-05
