"V1" "V2" "V4" "V5" "V7" "V8" "V10" "V11" "V13" "V14" "V15" "V17" "V18" "V20" "V21" "V23"
"1" -0.0005971003283384 -0.000456560186745912 -0.000418174503296075 -0.000256029510555207 -0.000328289167957513 -0.000348914930752105 -0.000704698981200202 -0.000301031846446033 -0.000459119163067077 -0.000425574613089403 -0.000501414914236113 -0.000460383210361133 -0.00049510403937911 -0.000577041283726746 -0.000120637830664538 -0.000425579271559538
"2" -0.00057905368956838 -0.000433911086100028 -0.000411754432052618 -0.000253199209015421 -0.000324596442104049 -0.000349409151379447 -0.000704936306068956 -0.000292849702300008 -0.000459455417652356 -0.000433472861012101 -0.000509288668777168 -0.000473473988610169 -0.000503272231767227 -0.0005833854640026 -0.000130242975995229 -0.000456790460644853
"3" -0.000562631467317853 -0.000411952602270413 -0.000404513002615809 -0.000249826343642104 -0.000320288546457116 -0.000349805992991832 -0.00070444239723624 -0.000285205160029463 -0.000459665355081639 -0.000441956901084705 -0.000518206012481575 -0.00048733109208657 -0.000511968554963105 -0.00059083081896894 -0.000141051650194846 -0.000489352830804996
"4" -0.000548062350159249 -0.000391078835317651 -0.000396517489538849 -0.000245977620521572 -0.000315379603580146 -0.000350096604518286 -0.000703228854248338 -0.000278223948117579 -0.000459805188205372 -0.000450960215694583 -0.000528110060334185 -0.000501830195773691 -0.000521158941287542 -0.000599285704289999 -0.000153002062385589 -0.000522964364108504
"5" -0.000535566287687911 -0.000371688863642884 -0.000387828355098783 -0.000241731762185694 -0.000309884146445554 -0.000350277533731234 -0.000701312669117945 -0.000272037111463445 -0.000459935165799215 -0.000460405059791547 -0.000538925711959907 -0.000516835149515853 -0.000530803814868831 -0.000608638711202749 -0.000166018213440739 -0.000557310631685423
"6" -0.000525357745360098 -0.00035419908038455 -0.000378535498994682 -0.000237173924622644 -0.000303823719101085 -0.000350333458996688 -0.00069871510389061 -0.000266761891806351 -0.000460113037225544 -0.000470204889695285 -0.000550564269798208 -0.000532196012061546 -0.000540842989630859 -0.000618752198133364 -0.000180011217233494 -0.000592061230246791
"7" -0.00051762844098391 -0.000339017492552527 -0.000368726815338158 -0.00023239839641904 -0.000297226725792522 -0.000350258923274172 -0.000695460621520237 -0.000262520515437279 -0.000460391728656498 -0.00048026284819799 -0.00056292523898415 -0.000547746739067731 -0.000551214182543985 -0.000629469921761769 -0.000194870020127418 -0.000626879181217497
"8" -0.000512553350897763 -0.000326543027925298 -0.000358498161256956 -0.000227506158727413 -0.000290120310689899 -0.000350037541455592 -0.000691577406987931 -0.000259421903779749 -0.000460822840391247 -0.000490476893737405 -0.000575886354972396 -0.000563316559740146 -0.000561842276803898 -0.000640617790577509 -0.00021047215137751 -0.000661413308993356
"9" -0.000510281294204895 -0.000317162453205044 -0.000347959440344837 -0.000222605430428571 -0.000282550471340096 -0.00034965814537342 -0.000687097927942025 -0.00025757489741487 -0.000461454477121307 -0.000500736006235576 -0.000589318061496858 -0.000578724514552599 -0.00057264601001927 -0.000652007857597648 -0.00022668298774386 -0.00069531276989343
"10" -0.000510943236123313 -0.000311231027130405 -0.00033722259145876 -0.00021781116185798 -0.00027455564124117 -0.000349112108028972 -0.000682061178599234 -0.00025707393604175 -0.000462328549934236 -0.000510918615022599 -0.000603075848529826 -0.000593785027607246 -0.000583530115222934 -0.000663429679335403 -0.000243349305000102 -0.000728225571592311
"11" -0.00051463832629333 -0.000309086638196438 -0.000326409200287434 -0.000213243228731913 -0.000266194752127312 -0.000348388206586921 -0.000676500386981105 -0.000258007250507942 -0.000463491983052815 -0.000520903462794479 -0.000617005034345534 -0.000608307057258903 -0.000594399473056284 -0.000674667130190435 -0.00026031823030766 -0.000759794998119041
"12" -0.000521419605605583 -0.00031100737723058 -0.000315641042339093 -0.000209026455861681 -0.000257525450462984 -0.00034747775668574 -0.00067046547338274 -0.000260452239894448 -0.000464979663092901 -0.000530561592143657 -0.00063093899381972 -0.000622105514751538 -0.000605144063155445 -0.0006854961885709 -0.000277418874634185 -0.000789674364400568
"13" -0.000531320771696106 -0.000317232532692538 -0.000305055056769455 -0.000205287278032197 -0.000248619611413711 -0.000346378181679316 -0.000663995115259892 -0.000264475221168792 -0.000466826504905827 -0.000539762969899717 -0.000644710224425787 -0.000634992627941533 -0.000615660933965808 -0.000695681966340829 -0.000294480775973256 -0.000817520701443201
"14" -0.000544339334933716 -0.000327951192690955 -0.000294783560478233 -0.000202160684367754 -0.000239560559559941 -0.000345092602282865 -0.000657147420636047 -0.00027013567272427 -0.000469072756128699 -0.000548374229677294 -0.000658138420838465 -0.000646794573324927 -0.00062583450072595 -0.000704989231185792 -0.000311328671289725 -0.000842998556841208
"15" -0.000560410731239977 -0.000343279383236105 -0.000284961334886895 -0.000199772451560975 -0.000230433163560124 -0.000343622807581393 -0.000649970342327921 -0.000277476546421192 -0.000471741641385363 -0.000556262466231303 -0.000671041120754345 -0.000657333694090181 -0.000635551613699644 -0.000713181277026162 -0.000327782019303123 -0.000865793502703561
"16" -0.000579462931372582 -0.000363283606011087 -0.00027573079536673 -0.000198258435102925 -0.00022133477018312 -0.000341981912249693 -0.000642520517850439 -0.000286529556786954 -0.000474867613654239 -0.000563300970282609 -0.0006832362507533 -0.000666456712186232 -0.000644701613308229 -0.000720027422833996 -0.000343668722514917 -0.000885600099343237
"17" -0.000601352334626998 -0.000387948941228449 -0.000267227557184392 -0.00019774504853392 -0.000212376332117345 -0.000340185913335116 -0.000634855446572991 -0.000297313159159715 -0.000478478332326508 -0.000569360775182866 -0.000694536500032684 -0.000674012588399654 -0.000653172669775849 -0.000725297964151078 -0.000358811763434073 -0.000902130091850861
"18" -0.00062591145039995 -0.000417197101675404 -0.000259589689603724 -0.000198361586939637 -0.000203667258545749 -0.000338254490968546 -0.000627038202366403 -0.000309835227642555 -0.000482594149567537 -0.000574322468888489 -0.000704763581460198 -0.000679876291817907 -0.000660861773270756 -0.000728772252631492 -0.000373042793307725 -0.000915125658145343
"19" -0.000652932062597156 -0.00045087860970705 -0.000252948164880013 -0.000200224378355071 -0.000195325097082036 -0.000336218684935665 -0.000619131714975956 -0.000324092757032737 -0.000487242264597202 -0.000578072571351012 -0.000713738025828468 -0.000683930671049566 -0.000667664152887166 -0.000730243522951355 -0.000386203473345415 -0.000924346943175965
"20" -0.000682162066959585 -0.000488780346368813 -0.000247426181824009 -0.000203450397501666 -0.000187477738205332 -0.000334109084747552 -0.000611203813916303 -0.000340060686635548 -0.00049244079258548 -0.000580509450328879 -0.000721292906893586 -0.000686083087515133 -0.000673484875107855 -0.00072951479598447 -0.000398137716151712 -0.000929587597612903
"21" -0.000713317801498036 -0.000530621980850525 -0.000243147736775524 -0.000208142552428515 -0.000180244197668601 -0.000331960190744868 -0.000603316832971398 -0.000357708998167531 -0.000498203805932745 -0.000581534959198291 -0.000727267320306848 -0.00068625768413523 -0.000678239049215649 -0.000726402433122771 -0.000408706512692689 -0.000930664712274506
"22" -0.000746087565325241 -0.000576070931982907 -0.000240220974628227 -0.000214397214282383 -0.000173747452895667 -0.00032981354323395 -0.000595541546306866 -0.000376985660963631 -0.000504544210155784 -0.000581073958424324 -0.000731507108748713 -0.000684401070880772 -0.000681841953329108 -0.00072073968841582 -0.000417778802534234 -0.00092743435201879
"23" -0.000780129536696472 -0.000624741126045853 -0.000238740755694872 -0.000222292485015685 -0.000168109259319958 -0.000327709878086165 -0.000587935434332527 -0.000397830654531521 -0.000511465478523027 -0.000579054609331012 -0.000733879961162756 -0.000680475184090637 -0.000684222867981107 -0.000712380846787494 -0.00042523547460894 -0.00091978243437467
"24" -0.000815078634542085 -0.00067620078246391 -0.000238795618098945 -0.000231897771791522 -0.000163443403926174 -0.000325688998667323 -0.000580572299147206 -0.000420163703932962 -0.000518965327274211 -0.000575430692343763 -0.00073426149608432 -0.000674466013033347 -0.000685321274190202 -0.000701188557423592 -0.000430975922139376 -0.000907637252323945
"25" -0.000850548892005153 -0.000729986943860766 -0.000240452586833233 -0.000243264229765662 -0.000159852444691779 -0.000323792584244938 -0.000573507069572726 -0.000443894741732901 -0.000527033378605807 -0.000570163625127187 -0.000732543877060659 -0.000666377691550163 -0.000685074823064053 -0.000687051211253075 -0.00043490488276228 -0.000890961819252522
"26" -0.000886156928533732 -0.000785612429284269 -0.000243769729168151 -0.000256423822672946 -0.000157427222542958 -0.000322055989038169 -0.000566797652313357 -0.000468912077476513 -0.000535646134427322 -0.000563236177477867 -0.00072863825614018 -0.000656230313776282 -0.000683439847441073 -0.000669873533539943 -0.000436948286055029 -0.000869758536961993
"27" -0.000921495295536409 -0.000842569027354449 -0.000248778705566543 -0.000271394568676602 -0.000156245959385233 -0.000320515805133259 -0.000560499344915058 -0.000495089212296696 -0.000544774687975816 -0.000554649469624367 -0.000722475034308661 -0.000644062198993221 -0.000680370992305303 -0.000649579292825126 -0.00043704367083742 -0.000844071338494393
"28" -0.000956167336001338 -0.000900349810210641 -0.000255500359715771 -0.000288170496483254 -0.000156371279912309 -0.000319195919433334 -0.000554653131949733 -0.00052229216599637 -0.000554373377317558 -0.000544421959847376 -0.000714001312489981 -0.000629926841691483 -0.00067583773054078 -0.0006261087641828 -0.000435143765698462 -0.000813980488399304
"29" -0.000989773682178715 -0.000958438376017399 -0.000263934535539389 -0.000306729207694885 -0.000157845780356476 -0.000318120619993805 -0.00054930048374151 -0.000550358169650641 -0.000564388181629529 -0.000532591979906514 -0.000703185301930711 -0.000613894272392783 -0.000669805380128646 -0.000599422629410995 -0.000431212028367029 -0.000779613886101815
"30" -0.00102193464558092 -0.00101633612587139 -0.000274059168562659 -0.000327025544128767 -0.000160689668704961 -0.000317301022117273 -0.000544472730271098 -0.00057912278816079 -0.000574743159226164 -0.000519213188649122 -0.000690015443088736 -0.000596046096073497 -0.000662250327104786 -0.00056950198881643 -0.00042523208689766 -0.00074112811287727
"31" -0.0010522779827519 -0.00107355752211798 -0.000285833193503443 -0.00034899697555152 -0.000164904521381182 -0.000316743324156923 -0.00054019058126775 -0.000608403073121119 -0.000585360005149791 -0.000504362287987892 -0.000674497278165494 -0.000576471586233877 -0.000653152867231256 -0.000536343110767284 -0.000417195026689437 -0.000698726675799869
"32" -0.00108045871103845 -0.00112964011634276 -0.000299200775361211 -0.000372559099124456 -0.000170469911828726 -0.000316445002749893 -0.000536463440963934 -0.000637998696797036 -0.000596135660824955 -0.000488127373477797 -0.000656662558854346 -0.000555274779206196 -0.000642493062425969 -0.000499961727815891 -0.000407107557552935 -0.0006526482929409
"33" -0.00110615066149496 -0.00118414934157685 -0.000314081166204066 -0.0003976098725889 -0.000177346831531428 -0.000316392606192191 -0.000533297490715563 -0.000667703510435108 -0.000606962536668787 -0.000470618353680186 -0.000636558409905121 -0.000532567525621874 -0.000630256949126479 -0.000460395199470227 -0.000394991153646224 -0.000603162098953402
"34" -0.00112905710250207 -0.00123668079958594 -0.000330375676954689 -0.000424027222856829 -0.000185473034921149 -0.00031656458873023 -0.000530680002210376 -0.000697304902163807 -0.000617715724838906 -0.000451958672730716 -0.000614253827182202 -0.000508470178136861 -0.000616432629849614 -0.000417700699480325 -0.000380880582416361 -0.000550574692743088
"35" -0.0011489115854161 -0.00128686143958423 -0.000347968551069922 -0.00045167298151748 -0.000194763433850065 -0.000316933964076572 -0.000528594097908415 -0.000726570635285888 -0.000628262387923961 -0.000432287953287479 -0.00058983809762177 -0.000483110900114033 -0.00060101035473538 -0.000371954755884953 -0.00036482162709844 -0.000495218290725801
"36" -0.00116547787918285 -0.00133435821145509 -0.000366732926785278 -0.000480395936262288 -0.000205118102397834 -0.000317460937780274 -0.000527007152307933 -0.000755276907079837 -0.000638457872333385 -0.000411759981160436 -0.000563415829189961 -0.000456623473129055 -0.000583978698025667 -0.000323254439990731 -0.000346877122179198 -0.000437463116976957
"37" -0.00117856158244217 -0.00137886945670957 -0.000386522554504826 -0.000510028429590948 -0.00021642113884011 -0.000318102243196174 -0.000525881474028684 -0.000783183331520792 -0.000648155766217154 -0.000390537736634027 -0.00053511435831612 -0.000429151513787195 -0.000565338051081773 -0.000271724169532486 -0.000327122042955038 -0.000377689640527872
"38" -0.00118799139446772 -0.00142012471710716 -0.000407172206326714 -0.000540390259464956 -0.000228536741425064 -0.000318808938340323 -0.000525169636372496 -0.000810057514708527 -0.000657200957222866 -0.000368797497956165 -0.000505074406591409 -0.000400843394138252 -0.000545088021174943 -0.000217504840478113 -0.000305645047754283 -0.000316311786872313
"39" -0.00119364851948019 -0.00145789572044009 -0.000428513583897831 -0.000571294936916528 -0.000241325995104074 -0.000319525688644024 -0.000524812746128994 -0.00083566489371525 -0.000665437835248548 -0.000346723512489841 -0.000473455919947845 -0.000371853442040737 -0.000523232348678835 -0.000160772347230791 -0.000282548872852285 -0.000253755418645556
"40" -0.00119542402460209 -0.00149197129611887 -0.000450362941104491 -0.000602543089857475 -0.000254628350511036 -0.000320197292523672 -0.000524749589334526 -0.000859771630273104 -0.000672716072379117 -0.000324505047682532 -0.000440437584647043 -0.000342344740834911 -0.000499782596698025 -0.000101714732036843 -0.000257955716625505 -0.000190464760790766
"41" -0.00119326202449048 -0.00152217835472606 -0.000472530193408256 -0.000633933361248008 -0.000268283714127751 -0.000320761826479752 -0.000524906267842828 -0.000882154058695275 -0.000678881997443751 -0.000302343606889539 -0.000406207331454287 -0.000312485474981369 -0.00047475429836875 -4.05562724673825e-05 -0.000231998124591132 -0.000126892915374305
"42" -0.00118713456417417 -0.00154837055974939 -0.000494817010242765 -0.000665256417220917 -0.000282122184129855 -0.000321162932551989 -0.000525207564232439 -0.000902595284313299 -0.000683797838873476 -0.000280437628671027 -0.000370968067759412 -0.000282450736608936 -0.000448176025532614 2.24568638027045e-05 -0.000204824471340964 -6.35046121997587e-05
"43" -0.00117703449393426 -0.00157040884003264 -0.000517023940914708 -0.000696306568097152 -0.000295979096432063 -0.000321341218679335 -0.000525579883801411 -0.000920894959606869 -0.00068732974624911 -0.000258991635142747 -0.000334938383858245 -0.00025242153471928 -0.000420081075398132 8.70461383282001e-05 -0.00017659923603681 -7.61412916011969e-07
"44" -0.00116300009258698 -0.00158818965710877 -0.000538940042601746 -0.000726874292963866 -0.000309684224574432 -0.000321241556907903 -0.000525941093131475 -0.000936858159398512 -0.000689359754976288 -0.00023820650845577 -0.00029834535516771 -0.00022258391699274 -0.000390516537921397 0.000152915642053294 -0.000147500709835599 6.08722624901133e-05
"45" -0.00114508039818119 -0.00160161375535619 -0.000560362432251919 -0.000756752708611816 -0.000323069731235573 -0.00032081233326593 -0.000526212499687749 -0.00095031063192762 -0.000689784925212517 -0.000218287708102379 -0.000261425093594346 -0.000193133811557699 -0.000359544625650591 0.000219740535954576 -0.00011772031653988 0.000120935149073072
"46" -0.00112336048996932 -0.00161060637322495 -0.000581087043310938 -0.000785738911599769 -0.000335976120146077 -0.000320005552424588 -0.000526310685007615 -0.00096109204287319 -0.000688521504145822 -0.000199429320688866 -0.000224422201443536 -0.000164267827239898 -0.000327231454727033 0.000287167270842067 -8.7467661502462e-05 0.000178980928570228
"47" -0.00109794938319795 -0.00161509858231754 -0.000600912340796637 -0.000813639331434233 -0.000348253787227809 -0.000318782463981862 -0.000526165538568107 -0.000969067892340918 -0.000685500697072902 -0.000181827738921709 -0.000187589770604926 -0.000136186469141055 -0.000293670537083972 0.000354831499768288 -5.69602895984748e-05 0.000234574481129798
"48" -0.0010689656499483 -0.00161503765581588 -0.000619643320901003 -0.000840265095391497 -0.000359754028909909 -0.000317108579672179 -0.000525698434667914 -0.000974121652776712 -0.000680679474096351 -0.000165666902359478 -0.000151176719698241 -0.000109095970935188 -0.00025895813299145 0.000422345080853531 -2.64249951712534e-05 0.000287301587351
"49" -0.00103657559554787 -0.001610377182967 -0.000637088747347763 -0.000865438178718466 -0.00037034721332149 -0.00031495804584012 -0.00052484125784303 -0.000976160761667769 -0.000674036693706435 -0.000151124874622198 -0.000115444851466947 -8.31976504941624e-05 -0.000223215992360807 0.000489300179320013 3.89753256955199e-06 0.000336770268168413
"50" -0.00100093683214203 -0.00160109026568096 -0.000653068403538509 -0.000888992392250454 -0.000379911613862474 -0.000312313815336377 -0.000523537398848996 -0.000975113341368759 -0.000665573404695271 -0.000138368492797372 -8.06477972141776e-05 -5.87008209596057e-05 -0.000186578489366135 0.000555286219078365 3.37639533371563e-05 0.000382614229471011
"51" -0.000962242819762974 -0.00158715288884324 -0.000667418230968896 -0.000910772275686499 -0.000388341308082802 -0.000309166970953429 -0.000521727949102202 -0.000970938617874616 -0.000655313779827401 -0.000127551760999629 -4.70364643664986e-05 -3.58009412571422e-05 -0.000149193526320794 0.000619880131229688 6.29220177165413e-05 0.000424501774128259
"52" -0.000920705036879342 -0.00156856102966235 -0.000679976867218449 -0.000930639357822094 -0.000395543869086236 -0.000305515543367668 -0.000519363123870394 -0.000963615448593397 -0.000643307892812084 -0.000118817711057712 -1.48605986365728e-05 -1.46983110987535e-05 -0.000111225660627517 0.00068266272733948 9.11244409227659e-05 0.000462128503695762
"53" -0.000876544637434672 -0.00154532041643842 -0.000690606225253785 -0.000948466404524346 -0.00040144644191281 -0.000301368675752357 -0.000516406014685814 -0.000953156351745852 -0.000629623075857478 -0.000112291682588106 1.56403563284137e-05 4.42112847959862e-06 -7.28601995540841e-05 0.000743213197687998 0.00011811496615625 0.00049523782703888
"54" -0.000830017956347105 -0.00151746494222238 -0.000699177159080782 -0.000964144986292761 -0.000405984895765768 -0.000296744974430348 -0.000512826115584981 -0.000939594097294358 -0.000614359444237289 -0.000108084218757258 4.42340159292451e-05 2.1375276962362e-05 -3.42963317445146e-05 0.000801115998514632 0.000143648611428885 0.000523603260688605
"55" -0.000781378488012302 -0.00148503955464832 -0.000705582652844537 -0.000977582369412695 -0.000409112454324264 -0.000291667969195913 -0.000508602789450859 -0.000922986659537844 -0.000597625135740702 -0.000106291360785218 7.07040733418061e-05 3.59985427114852e-05 4.26253466402052e-06 0.000855982374284921 0.000167481050787343 0.000547047569312629
"56" -0.00073091237011273 -0.00144811834789548 -0.000709730122411682 -0.000988706066131682 -0.000410803477242777 -0.000286170083152785 -0.00050372437011739 -0.000903426151113407 -0.00057955954196077 -0.000106984575580741 9.48486007267818e-05 4.81370283501183e-05 4.2589669703426e-05 0.000907427639000968 0.000189380371503633 0.000565431358873898
"57" -0.000678919240347044 -0.00140679314787087 -0.000711549113556862 -0.000997456074297495 -0.000411044752437824 -0.000280290889349859 -0.000498186807888797 -0.000881024122503914 -0.000560315071886243 -0.000110226197641817 0.00011647571347863 5.76558502031747e-05 8.04530787399038e-05 0.0009551015391729 0.000209126278215944 0.00057866711513637
"58" -0.000625708895070793 -0.00136119563131526 -0.000710979394077652 -0.00100379544178929 -0.000409832091013919 -0.000274076462777201 -0.00049199543828235 -0.000855916871274331 -0.000540057020303252 -0.000116050637164282 0.000135424576445332 6.44364477019985e-05 0.00011760769864458 0.000998673803611734 0.000226512117404378 0.000586707257486569
"59" -0.000571608871791884 -0.00131147885741258 -0.000707994587214821 -0.00100770050622898 -0.000407184397787322 -0.000267578626018709 -0.00048516951729645 -0.000828261311816117 -0.000518973741400836 -0.000124476974286256 0.000151542162075442 6.83791650227874e-05 0.000153808199283122 0.00103785442203175 0.00024134682473207 0.000589547968615645
"60" -0.000516968329233369 -0.00125783256815757 -0.000702577517528082 -0.00100917141252755 -0.000403128906696717 -0.000260850211772017 -0.000477727615575555 -0.000798245506884015 -0.000497258859729227 -0.000135503737779745 0.000164704087973601 6.94100039449639e-05 0.000188799707556353 0.00107238133554668 0.000253459467584844 0.000587233901823632
"61" -0.000462135082832681 -0.00120047984852519 -0.000694731222517524 -0.00100822227332235 -0.000397708308710267 -0.000253949888473018 -0.000469708660646926 -0.00076607048468011 -0.000475115298539124 -0.000149107269699056 0.000174807198856589 6.74748754568672e-05 0.000222323142597238 0.00110204503344579 0.000262706546986468 0.000579849310509871
"62" -0.000407482555355597 -0.00113968908932446 -0.000684485387340583 -0.00100488499902018 -0.000390969795071894 -0.000246939163406457 -0.000461150481023584 -0.000731960190677562 -0.000452757288150884 -0.000165249122165565 0.00018177643084097 6.25467621773516e-05 0.000254128630969818 0.00112666881397654 0.000268956139452248 0.000567518727514383
"63" -0.000353380468305063 -0.00107574686376871 -0.000671884019314757 -0.000999207956834506 -0.000382982495754487 -0.000239879672703269 -0.000452104244256659 -0.000696149687056963 -0.000430400964579473 -0.000183864511007792 0.000185554718639484 5.46228234635992e-05 0.000283960075645327 0.00114611646450319 0.000272110933375122 0.000550407247963247
"64" -0.000300205191384933 -0.00100899435032714 -0.000656983758965587 -0.000991257590463358 -0.000373808958073143 -0.000232828926337689 -0.000442623573994352 -0.000658893354642131 -0.000408266881121301 -0.000204878321698027 0.000186119946149576 4.37230814009674e-05 0.000311569719776093 0.0011603102285095 0.000272100353596752 0.000528711474593521
"65" -0.000248348065245899 -0.000939800522551394 -0.00063986857971279 -0.000981113976610797 -0.000363530489834645 -0.000225850518846465 -0.00043276771899446 -0.000620455323364613 -0.0003865708043375 -0.000228189170822214 0.000183465003763062 2.98960895358807e-05 0.000336724699380498 0.00116920630568837 0.000268870775420739 0.000502664635661983
"66" -0.000198178981783211 -0.000868563519066098 -0.000620633442491498 -0.000968869265600854 -0.00035223016972759 -0.000218998079120336 -0.000422608165452345 -0.000581115400679232 -0.000365531549602218 -0.000253682769323255 0.000177617940840474 1.3215071506167e-05 0.000359198010370683 0.00117281741556599 0.000262408342365739 0.0004725291129366
"67" -0.000150081178349393 -0.000795727744637682 -0.00059939039919889 -0.000954632581764878 -0.000339997421056964 -0.000212324730906075 -0.000412212213828057 -0.000541153032224601 -0.000345356906581448 -0.0002812232151157 0.00016862575282381 -6.22281940696613e-06 0.000378779033814827 0.00117119042724018 0.00025272138477172 0.000438592311439955
"68" -0.000104418154485731 -0.000721759238801448 -0.000576258777902577 -0.000938521196620078 -0.00032692273278921 -0.000205881229188877 -0.000401655237702992 -0.000500852710833411 -0.000326248377989964 -0.00031067213622675 0.000156565782766225 -2.82943521162083e-05 0.000395275155103519 0.00116442977255766 0.000239843870208833 0.000401162509361457
"69" -6.15522445099447e-05 -0.000647146461411334 -0.000551383798893865 -0.000920664639080103 -0.000313100432883885 -0.000199708693206834 -0.000391012709481384 -0.000460501370902251 -0.000308397732777992 -0.00034185913577903 0.00014153694290787 -5.28540605809674e-05 0.00040851204754606 0.00115267255430353 0.000223843823534774 0.000360576927935857
"70" -2.18179852935716e-05 -0.000572402898488455 -0.000524909483607727 -0.000901201824423693 -0.000298625170532088 -0.000193846366747132 -0.000380367406247358 -0.000420389845349418 -0.000291985052386321 -0.000374614883532295 0.000123656657755425 -7.9734857845927e-05 0.000418343384972569 0.00113610438768254 0.000204809800307341 0.000317182782540528
"71" 1.44626770717557e-05 -0.000498062852546414 -0.000496993258316222 -0.000880277463004732 -0.000283590565442901 -0.000188322763175174 -0.000369791545040062 -0.000380795543194813 -0.000277173903335291 -0.000408753316020503 0.000103072395138397 -0.000108748536708421 0.00042464066057527 0.0011149382500871 0.000182861862593247 0.000271344095960965
"72" 4.69966118326953e-05 -0.000424659509338169 -0.000467803037246176 -0.000858046353782828 -0.000268093190041281 -0.000183163704021289 -0.000359366685959305 -0.000341990493780116 -0.000264108245490902 -0.00044407499272227 7.99446727432797e-05 -0.000139688344253501 0.00042731165316654 0.00108943434373024 0.000158143007497188 0.000223432225128966
"73" 7.55202373526638e-05 -0.000352735667240767 -0.000437506632286057 -0.000834664234030415 -0.000252223523061922 -0.000178382301235117 -0.000349168026770139 -0.000304238129641348 -0.000252915983644493 -0.000480378905607618 5.44567060187662e-05 -0.000172328520015377 0.000426289423486891 0.0010598790671935 0.000130821007823808 0.000173833007307443
"74" 9.97971021305902e-05 -0.000282832964215132 -0.000406287881757945 -0.000810294142396248 -0.000236073651792474 -0.000173989110639371 -0.000339264969842903 -0.000267789893200594 -0.000243706426922825 -0.000517452727403718 2.68094699348079e-05 -0.000206429274211799 0.000421533939556747 0.00102659150160467 0.000101083135323811 0.000122938244492593
"75" 0.000119637256954824 -0.000215471876467879 -0.000374325819239462 -0.000785097479479113 -0.000219729300102838 -0.000169983929390535 -0.000329730983843999 -0.000232875498930462 -0.000236561100511816 -0.000555077462267029 -2.78271159232453e-06 -0.000241738873384422 0.000413049266360887 0.00098990454596893 6.91414122766091e-05 7.11422494575195e-05
"76" 0.00013488705646928 -0.000151160600034398 -0.000341799569401642 -0.0007592385650229 -0.000203279587821639 -0.000166359652149224 -0.000320624507242192 -0.00019970831143252 -0.000231543182453862 -0.000593027546175349 -3.40895073072774e-05 -0.000277988518091941 0.000400859796812874 0.000950188063596189 3.52232600637722e-05 1.88403409947244e-05
"77" 0.00014543008588959 -9.03828929814925e-05 -0.000308896893726062 -0.000732881841118977 -0.000186804322653016 -0.000163106140292977 -0.000312002908882267 -0.000168483798008258 -0.000228688290346735 -0.000631081491505972 -6.68730305625066e-05 -0.000314907774522012 0.000385035598617013 0.000907818419088278 -4.27103299316014e-07 -3.35692299053647e-05
"78" 0.000151208053425213 -3.35789216765402e-05 -0.000275800123030905 -0.000706187635986515 -0.000170386154855578 -0.000160202316756699 -0.000303916860788029 -0.000139368605550623 -0.000228007164055568 -0.000669009008610055 -0.000100881106724114 -0.000352213803957455 0.000365674085711766 0.000863190762202266 -3.75515450495848e-05 -8.56907719060362e-05
"79" 0.000152206557890857 1.88499551233392e-05 -0.000242694785312613 -0.000679314585248042 -0.000154095418696159 -0.000157624291819527 -0.000296410240285634 -0.000112509488048374 -0.000229490834594985 -0.000706584504723367 -0.0001358518785964 -0.00038962442934227 0.000342908885489639 0.00081670633342399 -7.58786622938769e-05 -0.000137131786011595
"80" 0.000148462578122461 6.65506112479749e-05 -0.00020975552081942 -0.000652417426154073 -0.000138008747429927 -0.00015533980242464 -0.000289518045179756 -8.80242316897253e-05 -0.00023309762928531 -0.000743577442322199 -0.000171522446437551 -0.00042684891294333 0.000316908113978542 0.000768776001412318 -0.000115124062092889 -0.00018750998362671
"81" 0.000140062246486554 0.000109224824775491 -0.000177155314108067 -0.000625643470198268 -0.00012219346743421 -0.000153316394820219 -0.00028325440740893 -6.60004676293291e-05 -0.000238769844628529 -0.000779766516818784 -0.000207620885126174 -0.000463600426268473 0.000287872940763505 0.000719810623229739 -0.000155005369825833 -0.000236443664805456
"82" 0.0001271488924589 0.00014663831542976 -0.000145069648335216 -0.000599134095512182 -0.000106717889350497 -0.000151517529151239 -0.000277647793609063 -4.650500004583e-05 -0.000246415225937111 -0.000814930092254458 -0.000243877861736493 -0.000499594751002995 0.000256027960803308 0.000670221906472613 -0.000195226971959658 -0.000283565116370335
"83" 0.000109911123020905 0.000178613474392552 -0.0001136562556399 -0.000573022204410105 -9.16453871573208e-05 -0.000149899778208451 -0.000272692330725937 -2.95710650895099e-05 -0.000255927203330676 -0.000848853884729012 -0.000280019293556956 -0.000534553190769321 0.000221638699766504 0.000620416641896818 -0.000235492267201991 -0.000328517315768969
"84" 8.85994542477332e-05 0.000205054362026421 -8.30732662947889e-05 -0.000547435333654427 -7.70347379080695e-05 -0.000148422287228172 -0.000268390553878489 -1.52047778308627e-05 -0.000267179573090341 -0.000881330746375378 -0.000315776516016708 -0.0005682025239114 0.000184978708503158 0.000570786213949957 -0.000275512590437894 -0.000370958540717921
"85" 6.34982790397557e-05 0.000225920894602475 -5.34611794136347e-05 -0.000522482897141288 -6.29403283731533e-05 -0.000147041833922979 -0.000264724064863872 -3.38454914734247e-06 -0.000280019782430864 -0.000912164062363368 -0.000350884573893163 -0.000600283908921119 0.000146361863983148 0.000521720969069132 -0.000314996907329567 -0.000410560546495762
"86" 3.49527924952863e-05 0.000241248646626028 -2.49601790642423e-05 -0.000498272659871525 -4.94150554803303e-05 -0.000145714364368919 -0.000261676020424546 5.93998993182714e-06 -0.000294282608644134 -0.000941166718081031 -0.000385085313536961 -0.000630544913574487 0.000106110948147135 0.000473586222113057 -0.000353657605137345 -0.000447019877175518
"87" 3.34120773333213e-06 0.000251141198015525 2.30608094781857e-06 -0.000474893086508696 -3.6504432214951e-05 -0.000144393964552356 -0.000259208264438352 1.28427094125317e-05 -0.000309788400217317 -0.000968159060683541 -0.000418131217947535 -0.000658751418863777 6.4566817563125e-05 0.000426734993051334 -0.000391225121955429 -0.000480050076652173
"88" -3.09196785858401e-05 0.000255765792614525 2.82287636269121e-05 -0.00045242597117933 -2.42559959331206e-05 -0.000143038806120631 -0.000257287734068559 1.74238202307497e-05 -0.000326338812426367 -0.000992984075071765 -0.000449781256132853 -0.000684683909048549 2.20805633237875e-05 0.000381502383379576 -0.000427428283277594 -0.000509392789790132
"89" -6.73662605940998e-05 0.000255359681658163 5.27062778445021e-05 -0.000430936385512587 -1.26987296218193e-05 -0.000141606860177319 -0.000255861691970658 1.98046797357712e-05 -0.000343734132166802 -0.00101549366801883 -0.000479810758303525 -0.000708142321428836 -2.0983675150253e-05 0.00033819066142974 -0.000462023823964114 -0.000534813289435228
"90" -0.000105519380294 0.000250207314639106 7.56555379641367e-05 -0.000410477930056328 -1.86591898624463e-06 -0.000140054395094986 -0.000254880395859972 2.01261834415602e-05 -0.000361757845891649 -0.00103555805822428 -0.000508014575498304 -0.000728946104031543 -6.42636519283356e-05 0.000297083283363581 -0.000494770112730369 -0.000556114831675824
"91" -0.000144875718751531 0.000240653226115139 9.700128751875e-05 -0.000391089530723627 8.21965727838765e-06 -0.000138343146310784 -0.000254283372817449 1.85510834854113e-05 -0.000380200722072872 -0.00105306879898606 -0.000534198339179609 -0.000746939917193441 -0.000107394372912643 0.000258437954406655 -0.000525455664392846 -0.000573125855174448
"92" -0.00018490867099924 0.000227086089135896 0.000116697752924607 -0.000372797476604892 1.75410051294266e-05 -0.000136435893460961 -0.000254008343431384 1.52516843530891e-05 -0.000398841083269253 -0.00106793116482612 -0.000558191297815604 -0.000761985713455816 -0.000150013601933395 0.000222474990646962 -0.000553882125732692 -0.000585712089889095
"93" -0.000225090278346664 0.000209930919017577 0.000134699287001187 -0.000355612643320689 2.60938733693631e-05 -0.000134297576300687 -0.000253988313628917 1.0420043371914e-05 -0.000417462018756877 -0.00108007596741132 -0.000579842978043465 -0.000773975003039933 -0.000191775274785983 0.00018939094809313 -0.000579873833661109 -0.000593781360181417
"94" -0.000264885127517529 0.000189645787642857 0.000150983746559301 -0.000339533445531116 3.38790435942943e-05 -0.000131893099587825 -0.00025415641576676 4.25669102693908e-06 -0.000435849744100758 -0.00108945315122482 -0.000599022698126439 -0.000782821778591418 -0.000232333158253419 0.000159348240959752 -0.000603276393444114 -0.000597270658060589
"95" -0.000303765430002383 0.000166708457672393 0.000165542846997829 -0.000324544877481116 4.08985513006098e-05 -0.000129193394834245 -0.000254435609222687 -3.03339453250751e-06 -0.000453798717888777 -0.00109603486540337 -0.000615625632121789 -0.000788466301244169 -0.000271365944242145 0.000132474900309011 -0.000623964987528165 -0.000596165458690135
"96" -0.000341200908651252 0.000141622441851399 0.000178387776389947 -0.000310621057117782 4.71763304753558e-05 -0.000126169921546526 -0.000254762206214238 -1.12359182735356e-05 -0.000471108902078556 -0.00109981542279335 -0.000629570556882745 -0.000790877475998718 -0.000308562366756272 0.000108869516364693 -0.000641834162710709 -0.000590490120437104
"97" -0.000376699889435062 0.00011488875756349 0.000189539085863135 -0.00029772165643149 5.27386757616457e-05 -0.000122797634318417 -0.000255060247431655 -2.01346950140213e-05 -0.000487587570975917 -0.00110081079680484 -0.000640800631800852 -0.000790044683654883 -0.000343639272728049 8.85952736768858e-05 -0.000656806112073421 -0.000580304420705901
"98" -0.000409778535676058 8.70137551738464e-05 0.000199037806006256 -0.000285797712285819 5.76180830916198e-05 -0.000119052355043336 -0.000255259927793503 -2.9512971203104e-05 -0.000503064369414913 -0.00109905898077169 -0.000649281652683947 -0.000785990172814602 -0.0003763313240243 7.16807353796699e-05 -0.000668828749908864 -0.000565722640370786
"99" -0.000439985361525134 5.84992841156353e-05 0.000206931094095358 -0.000274791428991421 6.18526754157091e-05 -0.000114915230989941 -0.000255293971941406 -3.91612881443229e-05 -0.000517368564486388 -0.00109462092584027 -0.000655010975836513 -0.000778758635032344 -0.000406402550437113 5.81237743251926e-05 -0.000677876775968906 -0.00054688314948948
"100" -0.000466910016844407 2.98331216714947e-05 0.000213283759280756 -0.000264630966713003 6.54980979712551e-05 -0.000110370790904319 -0.000255100917349009 -4.88657414378084e-05 -0.000530360652893147 -0.00108757665693871 -0.000658002313754309 -0.000768422527272647 -0.000433643898036675 4.78931741558443e-05 -0.000683948352512068 -0.000523977792363171
"101" -0.000490174415640477 1.48404612861216e-06 0.000218174597851822 -0.000255245633278588 6.86077545330477e-05 -0.000105407518230135 -0.000254612622950152 -5.84246478348017e-05 -0.000541904311470644 -0.00107802925233654 -0.000658298630726291 -0.000755072414713685 -0.00045786888400121 4.09181042118683e-05 -0.0006870722428921 -0.000497231385839254
"102" -0.000509451586394515 -2.61023316320968e-05 0.000221686342379793 -0.000246551818985537 7.12397699083312e-05 -0.000100011591336007 -0.000253775282009727 -6.76444600833983e-05 -0.000551885110505386 -0.00106609490029577 -0.000655961625742623 -0.000738829961677278 -0.000478926266859599 3.71150629304303e-05 -0.000687292161054511 -0.000466901099848475
"103" -0.000524453688104033 -5.2505022690214e-05 0.000223918408593286 -0.00023846631229714 7.34657186208313e-05 -9.41819166453046e-05 -0.000252535089878777 -7.63424241969041e-05 -0.000560211948519625 -0.00105191521919451 -0.000651078743219629 -0.000719831945916177 -0.000496696682567043 3.63534634617486e-05 -0.000684682546940321 -0.000433283296561082
"104" -0.00053495267741229 -7.73417645340563e-05 0.000224971794298825 -0.000230897535385653 7.53527448899727e-05 -8.79124857370851e-05 -0.000250843782897703 -8.43466664200729e-05 -0.000566807610648027 -0.00103564180262787 -0.000643757436488921 -0.000698242191079653 -0.000511082757307051 3.84903674039383e-05 -0.000679339936403687 -0.000396705393284234
"105" -0.000540762174880877 -0.000100261975614393 0.000224956714685703 -0.000223758183813641 7.69776491478654e-05 -8.12082201730728e-05 -0.000248654013822403 -9.15000395295046e-05 -0.000571613851489969 -0.00101744623880277 -0.000634121343161651 -0.000674240034749484 -0.000522028859516465 4.33567139871183e-05 -0.000671378518319822 -0.00035752011936159
"106" -0.000541760869681782 -0.000120952747252139 0.000223984826949065 -0.000216955786653577 7.8410752025695e-05 -7.40726019325191e-05 -0.000245931694909869 -9.76547910639023e-05 -0.000574595125624398 -0.000997503519508379 -0.000622313824646946 -0.000648017414711738 -0.000529504907397043 5.07600627900365e-05 -0.00066093371989395 -0.000316105928453619
"107" -0.000537865339243838 -0.000139138883983005 0.000222171050198729 -0.000210402418089528 7.97271513557923e-05 -6.65160980288642e-05 -0.000242644062046343 -0.000102684503256589 -0.000575734135778624 -0.000976010439378731 -0.00060849374131427 -0.000619789982238791 -0.000533508447780933 6.04886090491778e-05 -0.000648156556262016 -0.00027286365876609
"108" -0.000529066256653422 -0.000154595278911037 0.00021964051128832 -0.000204008706750619 8.10045901282831e-05 -5.85518618282854e-05 -0.000238761089918488 -0.00010647511565387 -0.000575028881839498 -0.00095316608626648 -0.000592827730733072 -0.000589779678536093 -0.000534066186853398 7.23199427969766e-05 -0.000633216113722116 -0.000228210917655457
"109" -0.000515386045545359 -0.000167133968129385 0.000216505826509407 -0.000197694323139173 8.23142448396631e-05 -5.01990199487378e-05 -0.000234261351283295 -0.000108932838200906 -0.000572500663235245 -0.000929179104937009 -0.000575504714768603 -0.000558222169259705 -0.000531241881892365 8.60137122799126e-05 -0.000616292815438831 -0.00018257982832199
"110" -0.0004969120804988 -0.00017660311567837 0.00021288919765729 -0.000191376822841699 8.37276554759722e-05 -4.147744090105e-05 -0.000229133746792162 -0.000109978603442486 -0.000568185966292799 -0.000904261174035937 -0.000556711081936426 -0.000525358670764602 -0.000525119289391406 0.000101320452034069 -0.000597582130106768 -0.000136411913250816
"111" -0.000473771344965422 -0.000182905100133396 0.000208899401777134 -0.000184985720541529 8.53101292642692e-05 -3.24122656066376e-05 -0.000223367412231885 -0.000109550841112191 -0.000562140033880193 -0.00087862865532785 -0.000536646988711513 -0.000491441240467983 -0.000515812205307764 0.000117988340834545 -0.000577280991281955 -9.01515510583908e-05
"112" -0.000446134084951455 -0.000185975685680345 0.000204653773268027 -0.000178451121109294 8.71294844897694e-05 -2.30330294542956e-05 -0.000216951380700112 -0.000107606221244244 -0.000554432146371492 -0.000852495452158315 -0.000515517297769233 -0.000456720412106018 -0.000503456228034544 0.000135750752060608 -0.00055560397660707 -4.42445423137572e-05
"113" -0.000414226751903827 -0.000185796772682992 0.000200254387811437 -0.000171716561846152 8.92419603761381e-05 -1.33712835171153e-05 -0.000209894462777116 -0.000104121947911276 -0.00054514899943762 -0.000826081832559821 -0.000493525008914685 -0.000421450199315419 -0.000488216194208322 0.000154353797177037 -0.00053276135380353 8.64424306530997e-07
"114" -0.000378295208441143 -0.000182386177301948 0.000195799941619752 -0.000164727358684247 9.16995877876953e-05 -3.46132170702107e-06 -0.000202196909973287 -9.90817586609907e-05 -0.000534388238701947 -0.000799596195361963 -0.000470879800435311 -0.000385885724059523 -0.00047027168427764 0.000173532224019133 -0.000508970935736038 4.47440068530278e-05
"115" -0.00033863078034485 -0.000175796004888929 0.000191389853576605 -0.000157442427456556 9.45564347940706e-05 6.65758833847048e-06 -0.000193875657139861 -9.2497295953538e-05 -0.000522258859359312 -0.000773243794432612 -0.000447784518790775 -0.000350274547592687 -0.000449828109725102 0.00019303309579574 -0.000484451689844309 8.6971337180229e-05
"116" -0.000295552998525868 -0.000166120804784928 0.000187106476674816 -0.00014982643739967 9.78435478682561e-05 1.69470460959364e-05 -0.00018493866391523 -8.43900348716435e-05 -0.000508884290158414 -0.000747230289750765 -0.000424442398042066 -0.000314861115290546 -0.000427108085417925 0.000212609567246387 -0.000459416602010529 0.000127143991620128
"117" -0.000249399851245481 -0.000153485436256788 0.00018302906348014 -0.000141851353071544 0.00010160080927664 2.73638921848626e-05 -0.000175410066037295 -7.47990122056354e-05 -0.000494398580160519 -0.000721743594201085 -0.000401045963430236 -0.000279884516519511 -0.000402349052076535 0.000232018393404263 -0.000434078393109161 0.000164878005327565
"118" -0.000200537592656945 -0.00013803889390226 0.000179227580225058 -0.000133505086139078 0.000105858050374131 3.78624140383395e-05 -0.000165318463835811 -6.37766218341902e-05 -0.000478938443410625 -0.000696966645394528 -0.000377790102364259 -0.00024556896839192 -0.000375806531082973 0.000251040735334204 -0.000408643526912887 0.000199819051283093
"119" -0.000149347712213665 -0.000119963034743686 0.000175763803264704 -0.000124776688973709 0.00011062667490802 4.83983633209858e-05 -0.000154683309355905 -5.13913150928146e-05 -0.000462650404357961 -0.000673069795113418 -0.000354848243260693 -0.000212129573101859 -0.000347741040905542 0.000269459811937553 -0.000383312864301879 0.000231640024121812
"120" -9.62183205378825e-05 -9.94656682793894e-05 0.000172685068009912 -0.000115671476092253 0.000115930373024477 5.89254201163458e-05 -0.000143542022242717 -3.77250172064655e-05 -0.00044568706685591 -0.000650211118328762 -0.000332395816237279 -0.000179767832547017 -0.000318429408332819 0.000287075908439364 -0.000358274301555809 0.000260050015369319
"121" -4.15473469059838e-05 -7.67692474353102e-05 0.000170036181700626 -0.000106197631906815 0.000121765797994294 6.9395791154728e-05 -0.000131925916044195 -2.28657945845914e-05 -0.000428202378028486 -0.000628528911734095 -0.000310589580075598 -0.000148669660188384 -0.000288152269922904 0.000303714961816039 -0.00033370891670712 0.000284789212160036
"122" 1.42603412430863e-05 -5.21170601795763e-05 0.000167849261345559 -9.63750856601328e-05 0.000128134269384414 7.97612097428819e-05 -0.0001198764160337 -6.91385348643664e-06 -0.000410349963625041 -0.000608157838743579 -0.000289573502566414 -0.000119007579494963 -0.000257198457430064 0.000319213422925269 -0.000309785766506978 0.000305643934648391
"123" 7.08131949414889e-05 -2.5763067515556e-05 0.000166149540058134 -8.62337999707735e-05 0.000135025779934284 8.99734862658877e-05 -0.000107430655544261 1.00128044302647e-05 -0.000392292472414015 -0.000589204163066756 -0.00026948176673002 -9.09363938350756e-05 -0.000225857204671627 0.000333428231928929 -0.000286659366622764 0.000322437982920724
"124" 0.000127705663364237 2.02052311215568e-06 0.000164948168002927 -7.58094779775669e-05 0.000142422314895442 9.99853389790427e-05 -9.46344913635763e-05 2.77983508460927e-05 -0.000374179323943503 -0.000571767829623847 -0.000250432353828914 -6.45866086495093e-05 -0.000194416616890754 0.000346237929241965 -0.000264469103777263 0.000335045298901108
"125" 0.000184559726857812 3.09626897780576e-05 0.000164253582859863 -6.51436966717607e-05 0.000150303821238513 0.000109750595094669 -8.1526699244684e-05 4.63163317484758e-05 -0.000356166078348196 -0.000555925110048526 -0.000232526181985396 -4.00757570755597e-05 -0.000163162576435953 0.000357545875879241 -0.000243346272572367 0.000343378618669356
"126" 0.000241004958768173 6.07878093347148e-05 0.000164064248223241 -5.42873307400627e-05 0.0001586391622942 0.000119222018271182 -6.81582148751605e-05 6.54314489196859e-05 -0.000338401718516332 -0.000541736374538551 -0.000215853618634591 -1.75029668273956e-05 -0.000132384321592515 0.000367264155588032 -0.000223403585628137 0.000347403020514357
"127" 0.000296676797541437 9.12167711285269e-05 0.000164363922937917 -4.32978840477415e-05 0.000167389196747196 0.000128354349789998 -5.45780796984727e-05 8.50061192751841e-05 -0.000321029722044454 -0.000529246258700111 -0.000200487037151196 3.05813490956538e-06 -0.00010235106561247 0.000375341830533413 -0.000204733944660173 0.000347126386169519
"128" 0.00035123997152278 0.000121976370236034 0.000165141629726699 -3.22347124400756e-05 0.00017651205438592 0.000137106634878498 -4.08276882821064e-05 0.000104905990272875 -0.000304188842344098 -0.000518483194983302 -0.000186480981490425 2.15479135508107e-05 -7.33283301324612e-05 0.000381731821997942 -0.000187423100525415 0.000342608219237273
"129" 0.000404383397566612 0.000152802071317186 0.000166368120587685 -2.11659672933316e-05 0.00018596246199654 0.000145434006013675 -2.69651237842198e-05 0.00012498506802723 -0.000288005394785955 -0.000509454116696083 -0.000173878768944247 3.7930051569e-05 -4.55743304123989e-05 0.000386419751420407 -0.000171537031378563 0.000333953006169107
"130" 0.000455806138127513 0.000183431838797914 0.000168013068120003 -1.01597298997996e-05 0.000195684758436108 0.000153301104052974 -1.30341450467553e-05 0.000145101916378498 -0.000272599660877617 -0.000502154258756917 -0.000162706386263709 5.21861983715516e-05 -1.93188382234491e-05 0.000389404132967963 -0.000157121503094034 0.000321311970636148
"131" 0.000505237873540967 0.000213620639088735 0.0001700438102035 7.08442856632252e-07 0.000205619895168777 0.000160667468101436 9.12809405413614e-07 0.000165114535338627 -0.000258084136360207 -0.000496560974466733 -0.00015297827591799 6.43152471419481e-05 5.20924814186186e-06 0.000390696991934824 -0.000144217022651205 0.000304877284477641
"132" 0.00055244467377232 0.000243140218125817 0.000172416369977382 1.13672106252538e-05 0.000215706136930775 0.000167499812872631 1.48311999524028e-05 0.000184886699036799 -0.000244553410343325 -0.000492633194030725 -0.000144692085604805 7.43361073896006e-05 2.78110639953786e-05 0.000390338182800037 -0.000132843235911711 0.000284882790534985
"133" 0.000597212833600894 0.000271776626317882 0.000175088323734851 2.17374275085447e-05 0.000225881489343281 0.000173767529089781 2.8667690758741e-05 0.000204283216913911 -0.000232098491863231 -0.00049032164753371 -0.000137829932551834 8.22848903608216e-05 4.83046833778247e-05 0.000388374137885363 -0.000123005212794189 0.000261600936210998
"134" 0.000639357468931936 0.000299334362492441 0.000178014568721897 3.17471905398349e-05 0.000236077305791056 0.000179441571815413 4.23791231694241e-05 0.000223171372304336 -0.000220790958939229 -0.000489563229028178 -0.000132366495445036 8.821264229627e-05 6.65322386779101e-05 0.000384871367034111 -0.000114698052985511 0.000235335359742584
"135" 0.000678728817673391 0.000325638205264029 0.000181141270418523 4.13182877522985e-05 0.000246222290677726 0.000184496914844888 5.59152997224623e-05 0.000241431048927916 -0.00021069574721502 -0.000490277890478633 -0.000128264715319456 9.21867144044137e-05 8.23598631310971e-05 0.000379906232266236 -0.000107897667241974 0.000206424030697066
"136" 0.000715206140058355 0.000350541667111361 0.000184422170078649 5.03806732777463e-05 0.000256248680959121 0.000188912284225497 6.92378285783476e-05 0.000258942790300974 -0.000201854770759772 -0.000492380348832191 -0.000125475900329298 9.42868998171196e-05 9.56773242426063e-05 0.000373565001404538 -0.000102575707008464 0.000175227985711551
"137" 0.000748704309550899 0.000373910018042672 0.000187804823162274 5.88626708253455e-05 0.000266083576754214 0.000192671759737421 8.23032604131301e-05 0.000275599692686698 -0.000194303074149163 -0.000495773167003265 -0.000123937466457951 9.46084040372316e-05 0.000106402888084999 0.000365948623395689 -9.8689486832103e-05 0.000142127361450334
"138" 0.00077916558103876 0.000395644078338266 0.000191240974436567 6.66989129709889e-05 0.000275662599154217 0.000195761382392682 9.50737717752671e-05 0.000291303339328837 -0.000188063024810424 -0.000500351548646221 -0.000123585553245054 9.32518952149016e-05 0.00011448319876587 0.000357164418104395 -9.61820895090428e-05 0.000107523246208195
"139" 0.000806557806638971 0.000415662283897513 0.000194680274065869 7.38280411748377e-05 0.000284911519489969 0.000198171697937181 0.000107509455293346 0.000305962007963676 -0.000183133757184629 -0.000506005448201666 -0.000124347748129406 9.0334508599482e-05 0.000119889978860677 0.000347322815429619 -9.49931877854483e-05 7.18265530003659e-05
"140" 0.000830893414546047 0.000433907477339235 0.00019807727537364 8.01918179356822e-05 0.000293772675253478 0.000199900914136416 0.000119584488432686 0.000319501561757687 -0.000179511246128126 -0.000512617376212751 -0.000126140425139314 8.59792488609696e-05 0.000122626098061225 0.000336550624377104 -9.50521636267753e-05 3.54521957557418e-05
"141" 0.00085219688923481 0.000450346340882092 0.000201382901776906 8.57441748896812e-05 0.000302176788362799 0.000200947350976286 0.000131266001108464 0.000331855399154186 -0.00017716886112949 -0.000520066884735148 -0.000128880573416996 8.03158733430297e-05 0.000122721724210525 0.000324966237252892 -9.62784792078326e-05 -1.18014729151775e-06
"142" 0.000870542744145213 0.000464977342715561 0.000204565332507389 9.0436907495499e-05 0.00031007101315829 0.000201317569554627 0.000142526603522047 0.000342963630594296 -0.000176069635907859 -0.000528236357090325 -0.000132478803857644 7.34783808271506e-05 0.000120229542648364 0.000312701125776393 -9.8593358482806e-05 -3.76568973822307e-05
"143" 0.000886003813504706 0.000477805704988103 0.000207582211610666 9.42378550396742e-05 0.000317404204710279 0.000201019961752214 0.000153346840825424 0.000352789423847525 -0.000176165752304865 -0.000536996760204749 -0.000136845089885286 6.56087145018276e-05 0.000115236991826147 0.000299877398474245 -0.000101901772885445 -7.35728288002675e-05
"144" 0.000898706572791868 0.000488872509424314 0.000210400748486578 9.71191285453203e-05 0.00032412555229326 0.000200072143683838 0.000163710653239378 0.000361299195450332 -0.00017739214807913 -0.000546226448109188 -0.000141882404848123 5.68488638389903e-05 0.000107851452710413 0.000286631776123731 -0.000106113696459593 -0.00010853134445569
"145" 0.000908772071299454 0.000498229466275988 0.000212992853592435 9.9059991000437e-05 0.000330195912906712 0.000198492646284793 0.000173601677255313 0.000368478716328745 -0.000179679306152074 -0.000555804089640108 -0.000147499981708493 4.73433453728718e-05 9.82046667605331e-05 0.000273087430037599 -0.000111128935143136 -0.000142155933211802
"146" 0.000916368769748988 0.000505951763930894 0.000215336966804738 0.00010005027944493 0.000335584176911142 0.000196307060827778 0.000183011353646064 0.000374320581480179 -0.000182939877930468 -0.000565611885005161 -0.000153602476040475 3.72375658645469e-05 8.64487667356984e-05 0.000259367685928247 -0.000116853483237812 -0.00017409419736679
"147" 0.000921666204200616 0.000512129736778047 0.000217414967437543 0.000100087362135721 0.00034026035015094 0.000193542998063168 0.000191934438416611 0.000378828705713702 -0.000187082763243851 -0.000575536225135359 -0.000160097003823493 2.66704339649232e-05 7.27646300848007e-05 0.000245596544394358 -0.000123182790834917 -0.000204010823139835
"148" 0.000924847226888362 0.000516865658410577 0.000219214682975033 9.9178619317393e-05 0.000344209653329512 0.000190236020600645 0.000200368020963818 0.000382027278134027 -0.000192006833946695 -0.000585461274547691 -0.000166891847100195 1.5787688669428e-05 5.73404928327113e-05 0.00023189363163266 -0.000130019973025403 -0.000231606029240417
"149" 0.000926119390827683 0.000520273362355412 0.000220726311427409 9.73380576568359e-05 0.000347416657582488 0.000186422624594005 0.000208315317981141 0.000383945155450166 -0.000197605460732972 -0.000595286271978486 -0.000173898212234905 4.7230943056327e-06 4.03892179974748e-05 0.000218371872748747 -0.000137267139397043 -0.000256604412001501
"150" 0.000925692684032277 0.000522485725582565 0.000221955135989528 9.45916608455893e-05 0.00034988200174723 0.00018214440609654 0.000215784666523533 0.000384618138647574 -0.000203767074821677 -0.00060490997888229 -0.000181032325743769 -6.39016550578288e-06 2.2131397496209e-05 0.000205137447686589 -0.000144822656952296 -0.000278767815716524
"151" 0.000923782641846019 0.00052363133925092 0.000222897883000922 9.09709136149123e-05 0.000351609860131836 0.000177449150695447 0.000222778923452669 0.000384100443883442 -0.000210374014844562 -0.00061424063768841 -0.000188213640754084 -1.74258519998301e-05 2.79929085350281e-06 0.000192288413157142 -0.000152594482987452 -0.000297893115416698
"152" 0.000920604637865614 0.00052384771545701 0.000223564120086484 8.65130626554624e-05 0.000352612386218844 0.000172383148739954 0.000229310827147892 0.000382445544735933 -0.000217310056135989 -0.000623194112356715 -0.000195361841190499 -2.82631719993178e-05 -1.73626464366544e-05 0.000179917078622457 -0.000160488066739284 -0.000313808175168484
"153" 0.000916387140945004 0.000523286415487584 0.000223966989722848 8.12698490817606e-05 0.000352910039820218 0.000166997172143042 0.000235393612099538 0.000379720772277224 -0.000224458173484719 -0.000631691765869481 -0.000202408468154146 -3.87930031322164e-05 -3.81135292811956e-05 0.000168112984882808 -0.000168418013493581 -0.000326389040118756
"154" 0.000911344648754398 0.000522084433022218 0.000224123638068134 7.52913458297757e-05 0.000352528582007163 0.000161345566659462 0.000241047845168207 0.000376000531111526 -0.000231698583494587 -0.000639665929363984 -0.000209286721370032 -4.89084516278845e-05 -5.91972470986753e-05 0.00015694940305588 -0.000176298946134618 -0.000335536061024794
"155" 0.000905691651500117 0.000520387144274833 0.000224057295304294 6.86403293898757e-05 0.000351502538042929 0.000155483957907128 0.000246286576967402 0.000371364586245617 -0.000238917051797931 -0.000647054384429671 -0.000215934494753252 -5.85185245936626e-05 -8.03682711468632e-05 0.00014649424243191 -0.000184052600214935 -0.000341204509665098
"156" 0.000899632978710039 0.000518335190475349 0.000223786502261069 6.1380907720591e-05 0.000349869360077422 0.000149468321413715 0.000251125171092407 0.000365891311400143 -0.000246004560943101 -0.000653806113611295 -0.000222297691746563 -6.75377373642542e-05 -0.000101382628834653 0.000136805657177475 -0.000191606371371688 -0.000343375012850502
"157" 0.000893363304854837 0.000516066510357874 0.000223341153065836 5.35827590378589e-05 0.000347678720335747 0.000143353859999361 0.00025559172501315 0.000359665825943533 -0.000252854456259734 -0.00065987583419105 -0.000228326973460375 -7.5893338701743e-05 -0.000121996688526853 0.000127934383657576 -0.000198893236986091 -0.000342075276066248
"158" 0.000887063758838073 0.0005137072432989 0.000222749278745585 4.53212653172593e-05 0.000344981392694681 0.000137197709425924 0.00025969519507915 0.000352784126838683 -0.000259369860254552 -0.000665229451345256 -0.000233977884482328 -8.35216485622748e-05 -0.000141980048495158 0.000119921722977604 -0.00020585358435946 -0.000337364636195845
"159" 0.000880905561566492 0.000511377688377023 0.000222041007964257 3.66698819861813e-05 0.000341826823203667 0.000131056374642787 0.000263459912933236 0.000345327714840322 -0.000265457164662339 -0.00066983724979003 -0.00023921506288363 -9.03724953018329e-05 -0.000161112091940358 0.000112793190854069 -0.000212435006377199 -0.000329340953310299
"160" 0.000875029783832174 0.00050919107030029 0.000221245663767927 2.77099365587669e-05 0.000338274046120643 0.00012498646330605 0.000266901489126252 0.000337389647065918 -0.000271038631681735 -0.000673681008878584 -0.000244007900430795 -9.64061450658817e-05 -0.000179182706765201 0.000106577113040311 -0.000218587262792022 -0.000318141402949997
"161" 0.00086957681474893 0.000507249331612714 0.000220398105098737 1.85181302364884e-05 0.000334381469508925 0.000119038486342793 0.000270034209432389 0.000329057093265224 -0.000276041171893421 -0.0006767488767816 -0.00024833030746498 -0.000101592817081892 -0.000195996427861844 0.000101283344348157 -0.000224272725298691 -0.000303927806069529
"162" 0.000864651411583567 0.000505638193223811 0.000219526232495397 9.17738275894205e-06 0.000330210595851309 0.00011326476669103 0.000272874518615802 0.000320414466767286 -0.000280402689994948 -0.000679033264511904 -0.000252165221207944 -0.000105917241502071 -0.00021138106696771 9.69151365967663e-05 -0.000229461748603774 -0.000286900176633369
"163" 0.000860343507373043 0.000504431213026451 0.000218662305733693 -2.38162097314934e-07 0.000325823455562622 0.000107714167986034 0.000275429552715584 0.000311546205858744 -0.00028407649033182 -0.000680539126344574 -0.000255497850746427 -0.000109375039155019 -0.000225176011858223 9.34705073649618e-05 -0.000234125556582364 -0.000267289081752811
"164" 0.000856724774877366 0.000503696296484503 0.000217832945581658 -9.64824686610411e-06 0.000321282146918461 0.000102432619465854 0.000277712090155598 0.000302534275522437 -0.000287019367763004 -0.000681272720043636 -0.000258318804440141 -0.000111970500420678 -0.000237239479799865 9.0935614568326e-05 -0.000238247987399863 -0.000245343026926812
"165" 0.000853839825776167 0.000503481743657351 0.000217065049004054 -1.89801543737371e-05 0.000316642934005706 9.74609155129172e-05 0.000279728884851644 0.000293450611546525 -0.00028921057064021 -0.000681247729328463 -0.000260626446240897 -0.000113720676389067 -0.000247456364464143 8.92900971385093e-05 -0.000241815709431929 -0.000221343278463747
"166" 0.000851713418768155 0.000503816565979959 0.000216381767736677 -2.81604383637573e-05 0.000311969670267478 9.28363050389173e-05 0.000281476949997556 0.000284365909883026 -0.000290631893038105 -0.000680483189079377 -0.000262421812168207 -0.000114656639821131 -0.000255734260718303 8.85114341126223e-05 -0.000244826407690752 -0.000195586534871183
"167" 0.000850349620555477 0.000504725484664219 0.000215804147388219 -3.71225261376409e-05 0.000307316418840518 8.85931553295076e-05 0.000282962940402379 0.000275343392293498 -0.00029128614743134 -0.000679004190542326 -0.000263709302593848 -0.000114810847672165 -0.000261996722857107 8.85685474147648e-05 -0.000247278790180666 -0.000168390210496887
"168" 0.000849726993993557 0.000506215495551715 0.000215348691183118 -4.58032368793279e-05 0.000302734282600618 8.47624897134813e-05 0.00028417534677824 0.000266443249775439 -0.000291179723986789 -0.000676837176777942 -0.000264500751756829 -0.00011423441207427 -0.000266196270086268 8.94185244055996e-05 -0.000249182278624006 -0.000140085553072448
"169" 0.000849805322737569 0.000508272266929583 0.000215030613999373 -5.4143540291378e-05 0.00029827336734199 8.13667104063146e-05 0.000285108014930817 0.000257709580297385 -0.000290338293755664 -0.000674014028754952 -0.000264805856070607 -0.000112981222973008 -0.000268310796831936 9.10239951270357e-05 -0.000250547787219822 -0.000111012575719304
"170" 0.000850528290506106 0.000510881615128387 0.000214857840137275 -6.20927058203371e-05 0.000293980611305597 7.84275935396251e-05 0.000285746956381338 0.000249196771162001 -0.000288791620448543 -0.000670568224445226 -0.000264645689313214 -0.000111112323207397 -0.000268332981348508 9.33422113229502e-05 -0.00025139298247119 -8.15204890555558e-05
"171" 0.00085181881906194 0.000514006525574992 0.000214835451837396 -6.96017494167714e-05 0.000289894253337913 7.59610982262732e-05 0.000286082748579196 0.000240936921475555 -0.000286581792112937 -0.000666534560882432 -0.000264033413774263 -0.000108702427306753 -0.000266293064265264 9.63195630689495e-05 -0.000251743621932988 -5.19644998207313e-05
"172" 0.000853585863490926 0.000517602471384065 0.00021496231869129 -7.66314577056978e-05 0.000286047186414292 7.39745723088253e-05 0.000286093333374189 0.000232962446966341 -0.000283764904968673 -0.000661954761586097 -0.000262993409757406 -0.000105824256834085 -0.000262231185003299 9.99085378565688e-05 -0.000251622488150582 -2.2698154887088e-05
"173" 0.000855722929627328 0.000521613173541159 0.000215236408311102 -8.31479663503425e-05 0.000282472241538296 7.24751448174573e-05 0.000285757913849561 0.000225297466995606 -0.000280402181557811 -0.000656866125747744 -0.000261547877455531 -0.000102558487388048 -0.000256218875959192 0.000104056801899155 -0.000251058193367216 5.92678460722492e-06
"174" 0.000858109579830143 0.000525968829583634 0.000215649925327723 -8.91230959460561e-05 0.000279195734100561 7.14623314294123e-05 0.000285052025255514 0.000217961321231319 -0.00027655968549679 -0.000651305806799006 -0.000259720391806445 -9.89904838695125e-05 -0.00024834349105129 0.000108710607559849 -0.000250085568526193 3.35671271072186e-05
"175" 0.000860611043166075 0.000530590674523441 0.000216183491503262 -9.45368549769288e-05 0.000276227836174964 7.09341637417834e-05 0.000283946036561206 0.000210967100566706 -0.000272313481417358 -0.00064531783345451 -0.000257533999558824 -9.52089064227745e-05 -0.000238716884822229 0.000113821979188329 -0.000248736040400903 5.98910817017464e-05
"176" 0.000863095653758077 0.000535401420996526 0.000216822952469266 -9.93745136995524e-05 0.00027359393193733 7.08808148618231e-05 0.000282412805082267 0.00020431853219598 -0.000267744229529224 -0.000638937336703286 -0.000255015538842543 -9.13021279102413e-05 -0.000227466503220737 0.000119332958492275 -0.000247048688591323 8.45726258304271e-05
"177" 0.00086541451991619 0.000540301697876958 0.000217545976145937 -0.000103627232619117 0.000271288748054416 7.12901601349295e-05 0.000280422034933246 0.000198017971208535 -0.000262936349769603 -0.000632205707026438 -0.000252189505128066 -8.73562110809499e-05 -0.000214744075219895 0.000125198140221624 -0.000245058413545158 0.000107312715862717
"178" 0.000867421534650495 0.000545198764308639 0.000218323182588552 -0.000107294763517182 0.000269323754810461 7.21452797382657e-05 0.000277943336061076 0.000192060855006246 -0.000257978662561181 -0.000625158030701897 -0.000249081931663235 -8.34664812112758e-05 -0.000200708600660051 0.00013136660543832 -0.000242802972239877 0.000127827837387789
"179" 0.000868968155856512 0.000549991078909315 0.000219125936890411 -0.000110380525660899 0.000267688036659314 7.34267231364101e-05 0.000274940422565069 0.000186441313142304 -0.000252955968398255 -0.000617829826871078 -0.000245719026324812 -7.97162786790527e-05 -0.000185535696908655 0.000137790520081931 -0.000240321441505005 0.000145854360541955
"180" 0.000869909583281953 0.000554575908854463 0.000219924320765924 -0.000112893886231931 0.000266380469016801 7.51122247578269e-05 0.00027138670832725 0.000181145236489298 -0.000247960212563958 -0.000610253791731784 -0.000242119173245268 -7.61920226463754e-05 -0.000169414285498879 0.00014442882877429 -0.000237647566278785 0.000161162820075789
"181" 0.000870098466693356 0.000558843860793176 0.000220674043133828 -0.000114851669002746 0.000265385290854353 7.71737315739709e-05 0.00026725017927918 0.000176155505467043 -0.000243076463283008 -0.000602461926403246 -0.00023831021726129 -7.29750122188857e-05 -0.000152544898473148 0.000151236775177225 -0.000234820982563292 0.000173543333082349
"182" 0.00086940051231404 0.00056269264813451 0.000221342047318471 -0.000116271696512831 0.000264684302833218 7.95843244627833e-05 0.000262501752293137 0.000171459591935186 -0.000238389741890082 -0.000594480582384362 -0.000234308729178429 -7.01426058783822e-05 -0.000135124297895551 0.000158176773071561 -0.000231871780568645 0.000182823213893523
"183" 0.000867685429489449 0.000566020181400826 0.000221884751180039 -0.000117180173668785 0.000264256624014195 8.2312929371378e-05 0.00025710791407417 0.00016703777251627 -0.000233980191963943 -0.000586338314446313 -0.00023013968912563 -6.77653053356102e-05 -0.000117369996067161 0.000165212579664372 -0.000228836173767527 0.000188856749640994
"184" 0.000864835070374881 0.00056872396664112 0.000222260697559003 -0.000117602485838025 0.000264082513577616 8.5327231554046e-05 0.000251048265377646 0.000162868551515014 -0.000229925566082775 -0.000578056482195961 -0.000225816502565615 -6.59118020355967e-05 -9.94881213620851e-05 0.000172310322743588 -0.000225743654884712 0.000191533890730387
"185" 0.000860741454612739 0.000570701035994938 0.000222425985656748 -0.000117570348228975 0.000264127601885389 8.85953121013544e-05 0.000244299913832205 0.000158931147473889 -0.000226291809949863 -0.000569653434617889 -0.000221357221311525 -6.46362887882392e-05 -8.16878766545186e-05 0.000179445131476023 -0.00022262232740325 0.000190780603552243
"186" 0.000855311925314694 0.000571869653248561 0.00022233803580037 -0.000117117928051536 0.000264369693440487 9.20803953664031e-05 0.000236844946398443 0.000155203708843657 -0.000223143255130821 -0.000561148973686332 -0.000216779095132158 -6.39945329461051e-05 -6.4181492965763e-05 0.000186584217215388 -0.000219498703846194 0.000186557018776794
"187" 0.000848480621212033 0.000572140991988514 0.000221951866300527 -0.000116279385542918 0.000264780534048912 9.57501933926964e-05 0.000228667272537054 0.000151670132951002 -0.000220533297833652 -0.000552558500599583 -0.000212090465906288 -6.40307296308698e-05 -4.71674388891457e-05 0.000193710217171227 -0.000216396242682245 0.000178853856990026
"188" 0.000840181239901888 0.000571439197006143 0.000221228443942519 -0.000115091674468981 0.00026531862797161 9.95702601638349e-05 0.000219756843209722 0.000148307421461248 -0.000218509490052635 -0.000543892368244424 -0.00020730662343214 -6.4779558926981e-05 -3.0840757100248e-05 0.000200795521220321 -0.000213334629543659 0.000167704513657237
"189" 0.000830378543896127 0.00056969818904413 0.000220126287423273 -0.000113591565887968 0.000265962517736613 0.000103506036070526 0.000210107031022414 0.000145098543693766 -0.000217105494406191 -0.000535161465382642 -0.000202436289814052 -6.62697224602799e-05 -1.53864781401288e-05 0.000207820837492042 -0.000210333487561154 0.000153166183048191
"190" 0.000819057130200323 0.000566862040878519 0.000218610752484549 -0.00011181673608103 0.00026667187879633 0.000107523063477363 0.000199719620076194 0.000142027769679031 -0.000216351079124178 -0.000526373667981567 -0.000197485170618441 -6.85238771452295e-05 -9.72365266682351e-07 0.000214772347202597 -0.000207405750910944 0.000135338227316288
"191" 0.000806210807952476 0.000562882404316028 0.000216638916402416 -0.000109805565338742 0.000267418023286598 0.000111591889338159 0.000188602388973618 0.000139083082081262 -0.000216260129788708 -0.000517535687934614 -0.000192462856699099 -7.15509035935169e-05 1.22408777968513e-05 0.000221628777568964 -0.000204566001701756 0.000114347531760698
"192" 0.000791874676654983 0.000557730096012317 0.000214186348217361 -0.000107593207283528 0.000268173201977564 0.000115678647298903 0.000176761092649942 0.000136249282089328 -0.000216842217259535 -0.000508651062746787 -0.000187375494747811 -7.53589436618333e-05 2.41114743768464e-05 0.000228374578909084 -0.000201823838260763 9.03485697677059e-05
"193" 0.000776083872486284 0.000551381518297934 0.000211219780847858 -0.000105213179462944 0.000268905202237383 0.000119754973529503 0.000164215836314605 0.000133519574273965 -0.000218093120743 -0.000499724798371186 -0.000182225373239841 -7.99420903370203e-05 3.4515574107325e-05 0.000234995490975873 -0.000199189297553873 6.35264813782259e-05
"194" 0.000758911090739527 0.000543830567666738 0.000207716919363047 -0.000102702565915043 0.00026958590502809 0.000123792996662507 0.000150987627842217 0.000130884277452171 -0.000219999787479941 -0.000490759494204107 -0.000177021433072285 -8.52907634721458e-05 4.33457375771164e-05 0.000241474253062367 -0.00019666492380812 3.40872815950586e-05
"195" 0.000740441559443772 0.000535083519429464 0.000203661840288703 -0.000100089181037212 0.000270188388294995 0.000127768147137725 0.00013710759588811 0.000128335627511592 -0.000222542942397547 -0.000481757301840679 -0.000171764564016058 -9.13903647032888e-05 5.05198549475572e-05 0.000247794089952088 -0.000194260640989915 2.26006903992568e-06
"196" 0.00072078383030379 0.000525159918989446 0.000199036377045108 -9.74046644678389e-05 0.000270692412042818 0.000131654830320253 0.000122602630703478 0.000125875365684405 -0.00022568951850139 -0.000472724168830217 -0.000166460096484608 -9.82156012625394e-05 5.59686908815159e-05 0.000253937694559002 -0.00019197653505599 -3.17031326111197e-05
"197" 0.000700060632820024 0.000514095260831137 0.000193828005063182 -9.46750842021297e-05 0.000271069744951843 0.000135428418554064 0.000107516386279493 0.000123495135010341 -0.000229403121017403 -0.00046365770740421 -0.000161111656408686 -0.000105742301672858 5.96457005700606e-05 0.000259882086603399 -0.000189818432640159 -6.75419553079942e-05
"198" 0.000678416772329569 0.000501934555837882 0.000188038210202859 -9.19246058143514e-05 0.000271307066538052 0.000139071546099294 9.18915369257332e-05 0.000121200596878584 -0.000233637137633574 -0.000454567700668551 -0.000155728203686362 -0.000113934452039427 6.15263987622678e-05 0.000265609273061437 -0.000187787518369994 -0.000104975207519022
"199" 0.000656000827059512 0.000488735678350999 0.000181661523754188 -8.91737296041026e-05 0.000271388120337512 0.000142565317272244 7.57735415843185e-05 0.000118984176807348 -0.000238340979543108 -0.000445457374903766 -0.00015031450408384 -0.000122760147814734 6.15999770230732e-05 0.000271095837359596 -0.00018588369827747 -0.000143722538686179
"200" 0.000632995439637458 0.000474576301142328 0.000174709261787264 -8.64421337274238e-05 0.000271293115083037 0.000145889624026489 5.9211714767742e-05 0.000116849018834707 -0.000243456384905631 -0.000436335812796895 -0.000144877696875531 -0.000132177911168587 5.98818891513813e-05 0.000276313102419907 -0.000184115980316702 -0.00018348589099809
"201" 0.000609577717863242 0.00045953928347149 0.000167187591883637 -8.37445023277553e-05 0.000271012345854594 0.000149031095448046 4.22656021480924e-05 0.000114799854591767 -0.000248923455400923 -0.000427212872012761 -0.000139428239694573 -0.000142147260801366 5.64041306902497e-05 0.000281231037852242 -0.000182482109849166 -0.000223973539996755
"202" 0.000585936862343202 0.000443720163960927 0.000159118202079571 -8.10947157426631e-05 0.000270537238304228 0.000151975211223249 2.49882482277486e-05 0.000112829431376302 -0.000254680467323522 -0.000418096681937426 -0.000133976103966771 -0.000152627961311132 5.12126854379106e-05 0.000285819153868252 -0.000180990085068053 -0.000264886655832146
"203" 0.000562263025320101 0.000427217331004049 0.000150515879260485 -7.85033334798422e-05 0.000269857209133568 0.000154708738028977 7.44335734810951e-06 0.000110945720091359 -0.000260657773455942 -0.000409005380625529 -0.000128537090115573 -0.000163577090714528 4.43726689555275e-05 0.00029004595508907 -0.000179641700916165 -0.000305936236886678
"204" 0.000538761328814166 0.000410153558586097 0.000141409770298501 -7.59795840077567e-05 0.000268966372957905 0.000157219043069223 -1.03110717913269e-05 0.000109139862731392 -0.000266791623669509 -0.000399952545146664 -0.000123124710926371 -0.000174951119266532 3.59598761246718e-05 0.00029386685673711 -0.000178448168235125 -0.00034683211765905
"205" 0.000515617287493606 0.000392641114128316 0.000131828573802158 -7.35272668852627e-05 0.000267861104766062 0.000159497097642011 -2.82074088467845e-05 0.000107414678101358 -0.000273015935597448 -0.000390961449594217 -0.00011775713180169 -0.000186708485585643 2.60690297027875e-05 0.000297247340726816 -0.000177416398598446 -0.000387297114243776
"206" 0.000493035208976987 0.000374810041235007 0.000121806344644028 -7.11537185075249e-05 0.000266541980636672 0.000161530146234664 -4.6184282491673e-05 0.000105763875242651 -0.00027926204570002 -0.000382052267893259 -0.000112453887742755 -0.000198811155460036 1.48031325864298e-05 0.000300137871080884 -0.000176555553826538 -0.000427067987974324
"207" 0.000471192632554016 0.000356783511369664 0.000111379242251841 -6.88583922792717e-05 0.000265005096076082 0.000163310703239019 -6.41783530970532e-05 0.000104178430440304 -0.000285473592109958 -0.000373249188194858 -0.00010723620009892 -0.000211218066041508 2.27053495822851e-06 0.0003025019856847 -0.000175878430799684 -0.000465888311885983
"208" 0.000450270285154298 0.000338695900138265 0.000100589916053714 -6.66430727654898e-05 0.000263249020094106 0.000164830086458452 -8.21252203971149e-05 0.000102653894907531 -0.000291584271433694 -0.000364582351785899 -0.000102130532943527 -0.000223893535333562 -1.14067960654037e-05 0.000304288203067038 -0.000175398162114025 -0.00050351550220129
"209" 0.000430423806282141 0.000320675423878257 8.94791731180859e-05 -6.45091564643215e-05 0.000261275919633961 0.000166076978354395 -9.99618008541655e-05 0.000101176672328082 -0.000297546917655676 -0.000356078509542168 -9.71624475208225e-05 -0.000236806275376908 -2.61096313632946e-05 0.000305447693249507 -0.000175133354172282 -0.000539731056670482
"210" 0.000411800297111168 0.000302849389162393 7.80924780915557e-05 -6.24520060560503e-05 0.000259085334040106 0.000167044638283686 -0.000117626133587601 9.97367554723635e-05 -0.000303303484829822 -0.000347772156625897 -9.23578184406025e-05 -0.00024992173206648 -4.17010837510895e-05 0.000305938560060655 -0.000175095805673736 -0.000574327658129861
"211" 0.000394538314838426 0.000285346949792699 6.64782776121135e-05 -6.04739186166115e-05 0.000256686483646756 0.000167725340823204 -0.000135059130718734 9.83178154000699e-05 -0.000308816226232323 -0.000339697458576549 -8.77493191851389e-05 -0.000263212992511322 -5.80556688621819e-05 0.000305710324900262 -0.000175308436873604 -0.000607119778129416
"212" 0.000378732990691015 0.000268279621323649 5.46849496465993e-05 -5.85690645026106e-05 0.000254071859612913 0.000168110920733095 -0.000152204204762372 9.69018236458658e-05 -0.000314039897406549 -0.000331889200304913 -8.33636153989836e-05 -0.000276656861124673 -7.50392228667267e-05 0.000304714398565389 -0.000175785686467111 -0.000637940157463304
"213" 0.000364482564786931 0.000251765668603287 4.27631776002079e-05 -5.67359067721021e-05 0.000251257525573157 0.000168192211227301 -0.000169003718981666 9.54742221068228e-05 -0.000318943696497543 -0.000324383014179121 -7.92328136394539e-05 -0.000290228649708666 -9.2519204219308e-05 0.000302912585270177 -0.00017655005409022 -0.000666645089939293
"214" 0.00035183643686024 0.000235902897270474 3.07632611843887e-05 -5.49738657098516e-05 0.000248238353908003 0.000167964892991946 -0.00018540349885923 9.40106491863431e-05 -0.00032350291141037 -0.000317218808300858 -7.53916665874972e-05 -0.000303906669528892 -0.000110372878177239 0.000300257929734515 -0.000177619455611701 -0.000693106579489133
"215" 0.000340842442648452 0.000220790530095545 1.87341036683827e-05 -5.32780004903887e-05 0.000245024692528536 0.000167421721402452 -0.000201354268952001 9.24909494509324e-05 -0.000327695971723251 -0.000310430562552677 -7.18671710106647e-05 -0.000317674908009899 -0.000128470315378587 0.0002967144473493 -0.000179015589042913 -0.000717224225904565
"216" 0.000331508195148516 0.000206505324917141 6.7244713307411e-06 -5.16455892451541e-05 0.000241618552983096 0.000166556262069851 -0.000216810660446261 9.08932398940167e-05 -0.000331509994980265 -0.000304059815364037 -6.86938647598328e-05 -0.000331514561199186 -0.000146688929520668 0.000292249976983305 -0.000180756099767566 -0.000738911762634967
"217" 0.000323827690350697 0.000193120303370219 -5.20893334469917e-06 -5.00780487824304e-05 0.000238023775490677 0.000165361880534679 -0.000231726135188752 8.9192210257001e-05 -0.000334935661145085 -0.000298141982572782 -6.58994806735051e-05 -0.000345412535985372 -0.000164920243252897 0.000286832309194994 -0.000182861564580674 -0.000758109029193711
"218" 0.000317752262983366 0.00018068789329549 -1.70233605149782e-05 -4.85697644127063e-05 0.000234255283853827 0.000163837837210938 -0.000246059829317451 8.73704575092833e-05 -0.000337976034843827 -0.000292710990226432 -6.35116318007808e-05 -0.000359353214100393 -0.000183047682190958 0.000280439856412705 -0.000185343170752505 -0.000774774944279702
"219" 0.000313225091432035 0.000169257699520585 -2.8664347784484e-05 -4.71243412921394e-05 0.000230310984510397 0.000161976527917797 -0.000259774625495756 8.54014126208834e-05 -0.000340631680580901 -0.000287801252114842 -6.15595900642822e-05 -0.000373324683651221 -0.000200975761167058 0.000273052693905289 -0.000188219658701553 -0.000788884770401569
"220" 0.000310164237331471 0.000158855688309288 -4.00909206221195e-05 -4.5737760220792e-05 0.000226200859120273 0.000159779550488002 -0.000272830829987473 8.32645320397584e-05 -0.000342916542454104 -0.000283446170629209 -6.00662372086681e-05 -0.000387309897690834 -0.000218603680378399 0.000264667403491457 -0.000191501138580569 -0.000800442597105981
"221" 0.000308461314746647 0.00014949870089617 -5.12534211011001e-05 -4.44130785801416e-05 0.000221938825215389 0.00015724389189925 -0.000285205264061961 8.09398473360324e-05 -0.000344846836066442 -0.000279671577036087 -5.90516221651111e-05 -0.000401296934145515 -0.000235850327302698 0.000255279692531034 -0.000195196210427835 -0.000809461704827897
"222" 0.000307987673637196 0.000141183114214607 -6.21078322601283e-05 -4.31503268945121e-05 0.000217530887755229 0.000154373280813146 -0.000296863662781881 7.84102770384736e-05 -0.000346440179832177 -0.000276504192386303 -5.85337977106517e-05 -0.000415268618725466 -0.000252635338435338 0.000244895670027177 -0.00019931129038419 -0.000815979747855814
"223" 0.000308605146444638 0.000133906756868743 -7.26137808146329e-05 -4.19505202311832e-05 0.000212986751755065 0.000151168208538544 -0.000307782832005917 7.56548355497129e-05 -0.000347723340259339 -0.000273967328183074 -5.85292917059081e-05 -0.000429211152204272 -0.000268887626695783 0.000233529338839151 -0.00020384803193403 -0.000820050280040075
"224" 0.000310152505623971 0.000127636527224242 -8.27292963995157e-05 -4.08161038255884e-05 0.000208320798527077 0.000147634204987681 -0.000317939073419411 7.26666215772983e-05 -0.000348723592292919 -0.000272078236951082 -5.90434190057218e-05 -0.000443103024503341 -0.000284546381795935 0.000221204538167243 -0.000208802010841931 -0.000821744963082355
"225" 0.000312463321272969 0.00012234211261868 -9.24136214662421e-05 -3.97491349031832e-05 0.000203540165398578 0.000143779790641545 -0.000327314781136108 6.94323689423705e-05 -0.000349469442283599 -0.000270846489863926 -6.0086432604869e-05 -0.000456924297757385 -0.000299556968307915 0.000207956495997262 -0.000214168261512329 -0.000821146415637759
"226" 0.000315354939218499 0.000117969766764392 -0.000101635273768219 -3.87537138090925e-05 0.000198664773811703 0.000139610818226901 -0.000335893396285601 6.59451809567886e-05 -0.000350001730232052 -0.000270288765900967 -6.16571410989479e-05 -0.000470653633068854 -0.000313878342976927 0.000193819873141333 -0.000219939024829996 -0.000818356525200691
"227" 0.000318646467815612 0.000114465481148621 -0.000110357760132497 -3.78333114418521e-05 0.000193701906296893 0.00013514036539545 -0.000343663145527938 6.21968208638262e-05 -0.000350350618486198 -0.000270404127764858 -6.37529606770159e-05 -0.000484264707745289 -0.000327468586446448 0.0001788479329238 -0.000226094672577253 -0.000813488740724766
"228" 0.000322147343303944 0.000111764892592969 -0.000118550484634278 -3.69921413072028e-05 0.000188672494389621 0.000130381797626219 -0.000350614688780557 5.81922521049176e-05 -0.000350553596503216 -0.000271193297737349 -6.63672291769284e-05 -0.000497729324304633 -0.000340304384512492 0.000163100112916619 -0.000232620525227123 -0.000806666459975607
"229" 0.000325663030620658 0.000109787008562401 -0.000126186656639508 -3.62334564924332e-05 0.000183587657573 0.00012534827320352 -0.000356741378583036 5.39315512990326e-05 -0.000350654006325828 -0.000272651590842328 -6.9486540080811e-05 -0.000511017930423625 -0.000352363754528972 0.000146636685549423 -0.000239489378509013 -0.000798026399295638
"230" 0.00032900695813734 0.000108453173783194 -0.000133239006107665 -3.55634595860366e-05 0.000178462368751091 0.000120058624034015 -0.000362041512576157 4.94201887904329e-05 -0.00035068651630454 -0.000274767929267022 -7.30989243770736e-05 -0.000524100557940759 -0.000363638441256016 0.00012953542888344 -0.000246677219336123 -0.000787710967835546
"231" 0.000331993084185122 0.000107677391597664 -0.0001396875871189 -3.4987718454251e-05 0.000173313036667411 0.000114527549640755 -0.000366516046322447 4.46649041203914e-05 -0.000350695430117141 -0.000277530107235497 -7.71790312160791e-05 -0.00053694101314981 -0.000374123526105833 0.000111870645344559 -0.000254153919945178 -0.000775873849107386
"232" 0.000334446134352558 0.000107366487476822 -0.000145509101830301 -3.45126200737996e-05 0.000168151718777665 0.000108775323380595 -0.000370169365024076 3.9674838356978e-05 -0.00035072221202214 -0.000280915601724108 -8.17086971916634e-05 -0.00054950580692664 -0.000383825705384665 9.37283687876165e-05 -0.000261885186801066 -0.000762671701786096
"233" 0.000336187898545625 0.000107428310862713 -0.000150692501968984 -3.4143847116381e-05 0.000162994699540876 0.000102824068532162 -0.000373013915658014 3.4467824176961e-05 -0.000350807574394745 -0.000284902555988007 -8.66583272315057e-05 -0.000561760863088591 -0.000392760586662386 7.51989366561133e-05 -0.000269837411773559 -0.000748265467561089
"234" 0.000337051799365854 0.000107760656270564 -0.000155219434787529 -3.38895655433878e-05 0.000157852338187504 9.66907433671985e-05 -0.000375060513151875 2.90509733544897e-05 -0.00035099505329978 -0.000289464052868776 -9.20028316114099e-05 -0.000573666561051611 -0.000400952020702859 5.6374376121964e-05 -0.000277971722165985 -0.000732820207984469
"235" 0.000336889976531418 0.000108273289008701 -0.000159086322291383 -3.37585067660826e-05 0.000152733793580491 9.03979631387288e-05 -0.000376330780647668 2.34438597691581e-05 -0.000351325481704941 -0.000294566829007228 -9.77114818713787e-05 -0.000585189821318679 -0.000408432016392789 3.73448802823161e-05 -0.000286252440412951 -0.000716500999985682
"236" 0.000335558470239403 0.000108867274535587 -0.000162282680613134 -3.37579241685031e-05 0.000147651694612788 8.39654029650492e-05 -0.0003768459338166 1.76602140976235e-05 -0.000351840885222455 -0.000300177637706337 -0.000103750592245745 -0.000596294276219531 -0.000415237663528172 1.82115880801522e-05 -0.00029463709711699 -0.000699471461149484
"237" 0.000332922051963489 0.000109447268411666 -0.000164815072194709 -3.39002594965593e-05 0.000142607583331969 7.74124653802914e-05 -0.000376634179101019 1.17140275930527e-05 -0.000352584976459794 -0.000306256692005072 -0.000110092760803239 -0.000606946677991603 -0.000421417948332545 -9.28320489547639e-07 -0.000303090823300179 -0.000681895584410829
"238" 0.000328867639100834 0.000109917754534259 -0.000166676416560134 -3.41932640991762e-05 0.000137603225313806 7.07596236866601e-05 -0.000375727340576292 5.62199570704067e-06 -0.00035359705347602 -0.000312762054633746 -0.000116700382039923 -0.000617116338607011 -0.000427029168295346 -1.99808136558137e-05 -0.000311572291999365 -0.000663930440825167
"239" 0.000323289985703103 0.000110192873759079 -0.000167879226368939 -3.46490173857818e-05 0.000132643365105813 6.40208160127152e-05 -0.000374168419497001 -6.00038579533567e-07 -0.000354920001120757 -0.000319654562859412 -0.00012354612966263 -0.000626773264202516 -0.000432134906222455 -3.88552453243945e-05 -0.000320047609731124 -0.000645728196804503
"240" 0.000316101974891512 0.000110187299715293 -0.000168432292422061 -3.52785747718085e-05 0.000127724330546507 5.72166515658575e-05 -0.000371993420500812 -6.94367093584684e-06 -0.00035659449310224 -0.000326886413926231 -0.000130598280882631 -0.000635891895442915 -0.00043680461750711 -5.74545990167984e-05 -0.000328481782241573 -0.000627432477389182
"241" 0.000307221855491066 0.000109818500484208 -0.000168349487964927 -3.60944366030967e-05 0.000122841129735358 5.03568461641522e-05 -0.000369253178033773 -1.33891328003048e-05 -0.000358658690668572 -0.000334411851382793 -0.000137826120552474 -0.000644448392936399 -0.000441110308210259 -7.56978307858769e-05 -0.000336840707700708 -0.000609178108009156
"242" 0.000296594438797559 0.000109013272224585 -0.0001676462098271 -3.71065465424583e-05 0.000117983948592632 4.34566857142865e-05 -0.000365994430084242 -1.99350978826075e-05 -0.000361151225514043 -0.000342181037965955 -0.000145204184445732 -0.000652424088080771 -0.000445134309874461 -9.34990301599616e-05 -0.000345094102950824 -0.000591091997511827
"243" 0.000284174392380714 0.00010770962931879 -0.000166345501788899 -3.83281205632851e-05 0.000113142869029139 3.6528925786915e-05 -0.000362272887551388 -2.65612867112554e-05 -0.000364103463915915 -0.000350146066919651 -0.000152706536255126 -0.000659800600718676 -0.000448957253414072 -0.000110783719666332 -0.00035321648853003 -0.000573289191592773
"244" 0.000269931062313846 0.000105837807467939 -0.000164468649342415 -3.97683464736766e-05 0.000108308411904702 2.95809056161495e-05 -0.000358146918993812 -3.32680093108377e-05 -0.000367551627659635 -0.000358257142079344 -0.000160306855131581 -0.00066656478704594 -0.00045266414726938 -0.000127478179065865 -0.000361177939518332 -0.000555869814254728
"245" 0.00025385410065193 0.000103356497546683 -0.000162044036166918 -4.14376156899808e-05 0.000103462471376629 2.26220606640749e-05 -0.0003536721894344 -4.00399210416961e-05 -0.000371519784087124 -0.000366461690818933 -0.000167982573880991 -0.000672707868703591 -0.000456338637050151 -0.000143519216072881 -0.000368958911999141 -0.000538925609428894
"246" 0.000235949287207607 0.000100218094828291 -0.000159098591004327 -4.33453350844736e-05 9.85915505981108e-05 1.56598596214593e-05 -0.000348912799695173 -4.68686629487541e-05 -0.000376033460307083 -0.000374706582873466 -0.000175714344710802 -0.000678218615419047 -0.000460061982948704 -0.000158847803225979 -0.000376537045340499 -0.000522530214509974
"247" 0.000216238059982438 9.63924675179109e-05 -0.000155663284174641 -4.54958428166041e-05 9.36825217477235e-05 8.70104251766241e-06 -0.000343924372834251 -5.37501842827728e-05 -0.000381107574398014 -0.000382941461478782 -0.000183482689366274 -0.000683093553099096 -0.000463911367833753 -0.000173410416043134 -0.000383893207466765 -0.000506747984848507
"248" 0.000194762572395342 9.18571179645531e-05 -0.000151771171302368 -4.78946337419964e-05 8.87139734021947e-05 1.74965619334501e-06 -0.000338765274167894 -6.06688994109676e-05 -0.000386754777534758 -0.000391113770583226 -0.000191266840919531 -0.000687327440937885 -0.000467961758795646 -0.000187164744869891 -0.000391009481478615 -0.000491627855962057
"249" 0.000171578493268141 8.65999012418051e-05 -0.000147454905341338 -5.05420996629682e-05 8.36733998808745e-05 -5.18293383833163e-06 -0.000333497261841276 -6.76158267324641e-05 -0.00039297687474749 -0.000399166303500748 -0.000199048737260971 -0.000690915487963537 -0.000472275117323662 -0.000200070457903876 -0.000397869754273437 -0.000477200563491119
"250" 0.000146763968458482 8.06182789391342e-05 -0.00014274591873858 -5.34356168122318e-05 7.85485466087197e-05 -1.20952612090767e-05 -0.000328171629154998 -7.4572817882291e-05 -0.000399767882761575 -0.00040704918252221 -0.000206808992693727 -0.000693856898511189 -0.00047690896065264 -0.00021209421065007 -0.00040445503567597 -0.000463491587351155
"251" 0.000120419109671377 7.39239330144498e-05 -0.000137679086795047 -5.65692463913096e-05 7.33315399533288e-05 -1.89744882049477e-05 -0.000322834178520034 -8.15219221925371e-05 -0.000407112605378054 -0.000414702198866552 -0.000214531808882641 -0.000696144252088965 -0.000481904644873879 -0.000223207019590699 -0.000410752796036757 -0.000450507110249892
"252" 9.26549735244964e-05 6.65375114313565e-05 -0.000132286448747585 -5.99336310473129e-05 6.80116105901221e-05 -2.58132861180932e-05 -0.000317536676536244 -8.84427510392506e-05 -0.000414987610004771 -0.000422073988580028 -0.000222195280120533 -0.000697774122568091 -0.000487292333981283 -0.000233394740793092 -0.00041673883519006 -0.000438242596658849
"253" 6.36012526353078e-05 5.8491157879552e-05 -0.000126602549027545 -6.35139321509127e-05 6.25878039238751e-05 -3.25999671840131e-05 -0.000312311512484766 -9.53086498550665e-05 -0.000423358165143086 -0.000429105150021404 -0.000229776599339535 -0.000698740259930543 -0.000493086345119353 -0.00024263602179536 -0.000422398520336001 -0.000426682980516652
"254" 3.34177692735182e-05 4.98262848374345e-05 -0.000120656683099409 -6.7290011104046e-05 5.70562951441574e-05 -3.93219786225082e-05 -0.000307196459515452 -0.000102083829414423 -0.000432173848871665 -0.000435741215148817 -0.000237253285953764 -0.000699032318375683 -0.000499291162100706 -0.000250922243222689 -0.0004277090719058 -0.000415797383712807
"255" 2.26121887393562e-06 4.05974036808297e-05 -0.000114478157273739 -7.12405502530035e-05 5.14286760371291e-05 -4.59619658472014e-05 -0.000302212256726355 -0.000108731393872024 -0.000441381627270402 -0.000441924255352045 -0.000244598096197798 -0.000698638435324248 -0.000505883433570073 -0.000258242384936684 -0.000432648292870888 -0.00040554962248314
"256" -2.96794503868491e-05 3.0867878162527e-05 -0.00010809752468799 -7.53369223708622e-05 4.57111478298751e-05 -5.25008185652286e-05 -0.000297373588196377 -0.000115213992900201 -0.000450909085761824 -0.000447597237601175 -0.00025178506004281 -0.000697545179459235 -0.000512834791583304 -0.000264599554924897 -0.000437190111959053 -0.000395896019454181
"257" -6.22110619081831e-05 2.0709580434372e-05 -0.000101537969016475 -7.95439807825934e-05 3.99187811735468e-05 -5.89180054671796e-05 -0.000292693927479763 -0.000121479540059521 -0.000460682362679539 -0.000452702722114205 -0.000258781708300372 -0.000695735963746493 -0.000520090234693421 -0.000269995276058155 -0.00044130387791834 -0.000386775808009399
"258" -9.51227973187011e-05 1.02036057095472e-05 -9.48251588516935e-05 -8.38276855845253e-05 3.40772723068251e-05 -6.51899866812652e-05 -0.000288167812959244 -0.000127474828223529 -0.000470606451342198 -0.000457184972602829 -0.000265554993290136 -0.000693190020390089 -0.000527582092103605 -0.000274426906307485 -0.000444962337195403 -0.00037812795297066
"259" -0.000128196235494971 -5.60223674199914e-07 -8.7979235089321e-05 -8.8144777319074e-05 2.82061116710138e-05 -7.12895870822599e-05 -0.000283793889606937 -0.000133141378088014 -0.000480586538232749 -0.000460987043041889 -0.000272070337195921 -0.000689886010345872 -0.000535230152259253 -0.000277910945584822 -0.000448130047572688 -0.000369885451548773
"260" -0.00016120348371045 -1.14862915347478e-05 -8.10246362962005e-05 -9.24529868086067e-05 2.23421806921574e-05 -7.71883410900205e-05 -0.000279549684519307 -0.000138418711278605 -0.000490513972150815 -0.000464054171541648 -0.000278284113751185 -0.000685798996018293 -0.000542929354803384 -0.000280453922957222 -0.000450769519812836 -0.000361973935080277
"261" -0.000193917390890203 -2.24788720105352e-05 -7.39751899233125e-05 -9.67026583779287e-05 1.65191970202975e-05 -8.28550743936574e-05 -0.000275415771987648 -0.000143239092282565 -0.000500276939103646 -0.00046633402711229 -0.000284159996757323 -0.000680902131365898 -0.0005505676518521 -0.000282066369483665 -0.000452843092668076 -0.000354320200999848
"262" -0.000226100740580221 -3.34275716823808e-05 -6.68510653557652e-05 -0.000100844198628851 1.07784980483566e-05 -8.82558494391135e-05 -0.0002713550978629 -0.000147533106567756 -0.000509754678553085 -0.000467774104618936 -0.000289652927317336 -0.000675169149536277 -0.000558020016945944 -0.000282769115574195 -0.000454310250980484 -0.000346843656692089
"263" -0.000257518191668543 -4.42287737905248e-05 -5.96616495411975e-05 -0.000104826038511929 5.15974220956347e-06 -9.33602225306217e-05 -0.000267337407673177 -0.000151234871367176 -0.000518824327414319 -0.000468326315641406 -0.00029472182319073 -0.000668573566564266 -0.000565149104294642 -0.000282577506819617 -0.000455132995207664 -0.000339462818830751
"264" -0.000287941702580922 -5.47761069718787e-05 -5.24256690131017e-05 -0.000108596653113206 -2.87553606762386e-07 -9.81301385220194e-05 -0.000263315822029643 -0.000154271249634864 -0.0005273577267631 -0.000467946914648185 -0.000299318041607202 -0.000661089805582189 -0.000571809132018816 -0.000281513506508656 -0.000455266815406298 -0.000332103906067319
"265" -0.000317145541290741 -6.49608042374341e-05 -4.51498198500442e-05 -0.000112102036953749 -5.51697162316343e-06 -0.000102532128998472 -0.000259247541158291 -0.000156574734386582 -0.000535232058065348 -0.000466594993976051 -0.000303400967702913 -0.000652690945124574 -0.000577852633778202 -0.000279599256046625 -0.000454671758061365 -0.0003246889590551
"266" -0.000344914685259905 -7.46738604550973e-05 -3.78473614686409e-05 -0.000115290390250843 -1.0478191020084e-05 -0.000106531783428129 -0.000255075755810152 -0.000158076976372793 -0.000542318653728157 -0.000464231178436427 -0.000306925005126349 -0.00064335632086802 -0.00058312312749323 -0.000276859809046578 -0.000453306003399973 -0.000317140771793868
"267" -0.000371047952622445 -8.381724920964e-05 -3.05282963782014e-05 -0.000118110126354815 -1.5123519479534e-05 -0.00011009862607047 -0.000250755472218166 -0.000158714988189614 -0.000548497147585239 -0.000460825970906369 -0.000309847138497658 -0.000633070841058825 -0.0005874687755554 -0.000273326930155181 -0.000451133668436595 -0.000309391232606247
"268" -0.000395353262169234 -9.22917914939579e-05 -2.32041441272404e-05 -0.000120514699810938 -1.94011842902804e-05 -0.000113199167546342 -0.000246227148548043 -0.000158433783073862 -0.000553652855157214 -0.000456351476316138 -0.000312128395724815 -0.000621819979651811 -0.000590737868878297 -0.000269028998191469 -0.000448115952235346 -0.000301378160622525
"269" -0.000417661457368972 -0.000100004703950125 -1.58809058516167e-05 -0.00012245780226574 -2.32626577091365e-05 -0.000115807191922512 -0.000241439482814331 -0.000157179170364967 -0.000557675338216291 -0.000450791786708737 -0.000313730961565241 -0.000609596551959042 -0.000592782783273163 -0.000263997941860202 -0.000444225749672852 -0.000293037273077274
"270" -0.00043781934762073 -0.000106870844046896 -8.56916162212728e-06 -0.000123897898515471 -2.66662537722307e-05 -0.00011789590090034 -0.000236345175105944 -0.000154907664047085 -0.000560463889638952 -0.000444132090745119 -0.000314622402386347 -0.000596402996152611 -0.000593467534852381 -0.000258275572339705 -0.000439430066357317 -0.000284319049811758
"271" -0.000455696863035676 -0.00011281584675725 -1.28116247553388e-06 -0.00012479958695168 -2.95674565064482e-05 -0.000119445353892846 -0.000230892984064257 -0.00015158457743658 -0.000561931106826856 -0.000436367037865115 -0.000314773947517355 -0.000582245047613782 -0.000592660076533888 -0.000251897358283276 -0.000433711369935494 -0.000275180576970689
"272" -0.000471190483957755 -0.000117772726916887 5.97201085198631e-06 -0.000125130962590966 -3.19315794556732e-05 -0.000120436713539863 -0.000225036121755227 -0.000147190368080062 -0.000561999430071191 -0.000427501138365275 -0.000314160518390739 -0.00056714395744886 -0.000590249760202546 -0.000244904020999571 -0.000427049747619396 -0.000265585277937297
"273" -0.000484207215857865 -0.000121682401733773 1.31786699437671e-05 -0.000124866053625106 -3.37231645306197e-05 -0.000120859124029604 -0.00021873973773992 -0.000141704077917558 -0.000560605027357712 -0.000417542098895023 -0.000312762516691778 -0.00055112109052645 -0.000586131865758867 -0.000237342528288568 -0.000419434630581315 -0.000255509673224347
"274" -0.000494693081676726 -0.000124498504400596 2.03301010061768e-05 -0.000123985603944121 -3.49190993761306e-05 -0.000120705731386344 -0.000211965380543997 -0.000135131117443632 -0.000557697295995209 -0.000406511933010989 -0.000310570552429059 -0.00053421480071694 -0.000580223947332989 -0.000229256316980327 -0.000410866383719333 -0.000244934782747913
"275" -0.000502620883131715 -0.00012619052627223 2.74077276708168e-05 -0.000122480396408105 -3.54911283103519e-05 -0.000119973352651405 -0.00020469421421947 -0.000127483930674909 -0.000553241894182666 -0.000394434791769693 -0.000307575393432511 -0.000516472230710323 -0.000572464589860451 -0.000220701076882593 -0.000401344113494844 -0.000233854329448162
"276" -0.000507972152625615 -0.000126729870701018 3.43951207820491e-05 -0.000120344444419912 -3.54301913108237e-05 -0.00011866631702267 -0.000196897808022401 -0.000118778537758771 -0.000547225031750403 -0.00038134632792894 -0.000303778065532546 -0.000497945455863521 -0.000562801906292571 -0.000211718297586739 -0.000390882392520663 -0.000222266648461146
"277" -0.000510773247332197 -0.00012610648370539 4.12763827255075e-05 -0.000117580097937862 -3.47243764529797e-05 -0.000116795298697456 -0.000188569681902723 -0.00010906049427337 -0.000539643727642782 -0.000367291314886401 -0.000299187987792872 -0.000478701155246665 -0.000551214075544059 -0.000202364301393253 -0.000379496957620356 -0.000210189107814355
"278" -0.000511067446490329 -0.000124323729915989 4.80356113406526e-05 -0.000114198746882954 -3.33762130961599e-05 -0.000114373815274249 -0.000179708331636034 -9.83727166649721e-05 -0.000530511379360258 -0.00035232007882172 -0.00029381360160803 -0.000458811776639396 -0.000537700785834658 -0.000192687855812013 -0.000367214554904824 -0.000197639377441151
"279" -0.000508915321236878 -0.000121388090562553 5.46479002944118e-05 -0.000110216815695992 -3.13914172277376e-05 -0.000111422033710502 -0.000170313337655308 -8.67850214536688e-05 -0.000519860717975031 -0.000336490602747276 -0.000287680023642844 -0.000438364790516083 -0.000522276023919064 -0.000182744659905041 -0.000354069037525637 -0.000184644749300188
"280" -0.000504410163346154 -0.000117327812144131 6.10925642067768e-05 -0.000105661452923545 -2.87838743318571e-05 -0.000107968665884423 -0.000160406039887429 -7.4365039764221e-05 -0.000507734775121754 -0.000319866138395007 -0.00028080864819649 -0.000417443663036261 -0.000504983797039679 -0.000172581422379732 -0.000340096811712085 -0.000171243568293328
"281" -0.000497662073220602 -0.000112172110030931 6.73491999155177e-05 -0.000100566331251247 -2.55743415784523e-05 -0.000104041350574103 -0.000150006173016688 -6.12016117905349e-05 -0.000494199920759464 -0.000302520589544101 -0.000273234797114644 -0.000396150048774737 -0.000485879959248317 -0.000162252724731137 -0.000325344259849241 -0.000157477124149386
"282" -0.000488802600781903 -0.000105967353219884 7.33851611883978e-05 -9.49678836188776e-05 -2.17884827227915e-05 -9.96754093815333e-05 -0.000139139853581467 -4.73865159539436e-05 -0.000479323898452095 -0.000284528219911413 -0.00026499109005762 -0.000374583821027694 -0.000465050635513715 -0.000151801705513636 -0.000309863131868261 -0.000143393243703222
"283" -0.000477976199829009 -9.87657581394867e-05 7.91780656625974e-05 -8.89143190087004e-05 -1.74607836269748e-05 -9.49133315752499e-05 -0.0001278546236867 -3.30300152636705e-05 -0.00046319919467819 -0.00026596830262901 -0.000256119850819616 -0.000352853825110269 -0.000442597084711494 -0.000141274530874568 -0.000293707212720594 -0.000129046070077442
"284" -0.000465344492474462 -9.06289360334788e-05 8.47023346411161e-05 -8.24576379684469e-05 -1.26317199284991e-05 -8.97964841683223e-05 -0.000116188679319725 -1.82379118722063e-05 -0.00044592196302989 -0.000246929377540968 -0.000246668190104318 -0.000331068993450879 -0.000418635084446163 -0.000130714380319829 -0.000276937848516604 -0.000114492419072659
"285" -0.000451086848272863 -8.16215860968483e-05 8.9926127039514e-05 -7.56561227570095e-05 -7.35086342457915e-06 -8.43714718099896e-05 -0.000104196537429519 -3.13511981833146e-06 -0.000427600170136894 -0.000227493374553437 -0.00023668257214577 -0.000309338085696199 -0.000393300813446027 -0.000120154326983631 -0.000259613829909772 -9.97874910999822e-05
"286" -0.000435383082007701 -7.18284477987941e-05 9.48223685157735e-05 -6.85695300879883e-05 -1.66142706334331e-06 -7.86869896572308e-05 -9.19367694309307e-05 1.21599923799198e-05 -0.000408344543824691 -0.000207751224889051 -0.000226215172639294 -0.000287775368072737 -0.00036674784517883 -0.000109630465984559 -0.000241804894473936 -8.49962847759596e-05
"287" -0.000418422623137571 -6.13200433553045e-05 9.93575452625444e-05 -6.1265777517754e-05 4.37516706112461e-06 -7.27942214036833e-05 -7.94748433235066e-05 2.75191194255683e-05 -0.000388279602829469 -0.000187792782193054 -0.000215317247825075 -0.000266486275042195 -0.000339133761927553 -9.91653017763752e-05 -0.000223574397966862 -7.01748792103991e-05
"288" -0.000400418864089765 -5.01890790032624e-05 0.000103502603358483 -5.3814222574192e-05 1.07024438632711e-05 -6.67427155991978e-05 -6.68782543584055e-05 4.28109707775603e-05 -0.000367529968872095 -0.000167704452937555 -0.000204041940883808 -0.000245581332275885 -0.000310636988182204 -8.87836684752195e-05 -0.000204987984425897 -5.53819387622092e-05
"289" -0.00038155809263824 -3.85232232690268e-05 0.000107228751656333 -4.62875566475509e-05 1.72563789831313e-05 -6.05878083651362e-05 -5.42141039062428e-05 5.79119271109764e-05 -0.000346220381245218 -0.000147574846093876 -0.000192443304125333 -0.000225157520418446 -0.000281440143996709 -7.84951377198489e-05 -0.000186115512871594 -4.0678414634091e-05
"290" -0.000362055649958102 -2.64158395772924e-05 0.000110504600383113 -3.87568200562649e-05 2.39722044040941e-05 -5.43795627713189e-05 -4.15631987316983e-05 7.26868841428706e-05 -0.000324480182180445 -0.000127490122244305 -0.000180577631404942 -0.000205313973592519 -0.000251732142099737 -6.83110650748848e-05 -0.000167023710865216 -2.61195902692853e-05
"291" -0.000342104554755184 -1.39611803549254e-05 0.00011330363557618 -3.12997172477467e-05 3.07813200206416e-05 -4.81712451151855e-05 -2.89941390370311e-05 8.70206783008276e-05 -0.000302435437883594 -0.000107532332482234 -0.000168492788652508 -0.000186137503841781 -0.000221707720038861 -5.82326297412803e-05 -0.000147771140125723 -1.17531756749165e-05
"292" -0.000321909210288989 -1.24972092982611e-06 0.000115600235486356 -2.39869015434098e-05 3.76219016610271e-05 -4.20142112474515e-05 -1.65900887845823e-05 0.000100784544615057 -0.00028021073408784 -8.77770412218066e-05 -0.000156244908198642 -0.000167710923771575 -0.000191564546087209 -4.82546081255709e-05 -0.0001284256346014 2.37149895226586e-06
"293" -0.000301657570845854 1.16207458500203e-05 0.000117363585762071 -1.68919136625287e-05 4.44189572218734e-05 -3.59558708652119e-05 -4.42449442051832e-06 0.000113867658790519 -0.000257925966341049 -6.83005573413641e-05 -0.000143879604948392 -0.000150107468071115 -0.000161499987534831 -3.83637878991726e-05 -0.000109045095674932 1.62119747808415e-05
"294" -0.000281540956164597 2.45565016502027e-05 0.00011857456877784 -1.00871062144588e-05 5.11072405575598e-05 -3.00455684017432e-05 7.43042239453928e-06 0.000126159253395932 -0.000235692652186068 -4.91709219858805e-05 -0.000131444476855588 -0.000133386409587812 -0.000131711059498177 -2.85498320680418e-05 -8.9688208257249e-05 2.97264254707619e-05
"295" -0.000261733612203126 3.74752575224339e-05 0.000119211319442401 -3.63962886849568e-06 5.76197477391828e-05 -2.43271405440816e-05 1.88921915642502e-05 0.000137558569220995 -0.000213621678050874 -3.04480454120516e-05 -0.000118985674117178 -0.000117601332512277 -0.000102385562462259 -1.8783285356038e-05 -7.04049694350672e-05 4.28847412317968e-05
"296" -0.000242408147354366 5.02773438522242e-05 0.00011925502202249 2.38621709995398e-06 6.38859265622379e-05 -1.8842663428423e-05 2.98969245723407e-05 0.000147976202360653 -0.000191811475882618 -1.2190088764314e-05 -0.000106540882876532 -0.000102796160829976 -7.37148567004981e-05 -9.04466762621515e-06 -5.12510569685436e-05 5.56542310961594e-05
"297" -0.000223715438031097 6.28888956369062e-05 0.000118693429590742 7.92932424615004e-06 6.98430207971669e-05 -1.36313251841701e-05 4.0372748552355e-05 0.000157329203704387 -0.000170351408030245 5.5555543677533e-06 -9.41523189172171e-05 -8.89974248043773e-05 -4.58786568627674e-05 6.99577093816096e-07 -3.22676305268868e-05 6.80071074820127e-05
"298" -0.000205805048777241 7.52245740513555e-05 0.00011751430112994 1.2934905031525e-05 7.54300978650295e-05 -8.72894168088644e-06 5.0252990052005e-05 0.000165546918516242 -0.000149324178633769 2.27461697988784e-05 -8.1850727437895e-05 -7.62310419121146e-05 -1.9043780936869e-05 1.04798854531775e-05 -1.35031057447931e-05 7.99228798308637e-05
"299" -0.00018880996535313 8.7210217496103e-05 0.000115710181839217 1.73537005215773e-05 8.0588055434196e-05 -4.16928402761046e-06 5.94774880729537e-05 0.000172569770160542 -0.000128804465988443 3.93454824428324e-05 -6.96692919809971e-05 -6.45006393122773e-05 6.62172360232778e-06 2.03324263549019e-05 5.00575831914963e-06 9.13831278638232e-05
"300" -0.00017284500284315 9.87844866984111e-05 0.000113283429461524 2.11429764142497e-05 8.52625280758432e-05 2.04323423467226e-08 6.79947688022738e-05 0.000178344440044163 -0.000108846610929021 5.53295627610951e-05 -5.76353515221152e-05 -5.38086298476589e-05 3.09785250784944e-05 3.02916081778384e-05 2.32193058309098e-05 0.000102372098395268
"301" -0.000158018953345103 0.000109875694447224 0.000110230969614356 2.42658152222592e-05 8.94023353304278e-05 3.81509510613156e-06 7.57512794121072e-05 0.000182839182624293 -8.95053054586037e-05 7.06781480461453e-05 -4.57727668162138e-05 -4.41401757741975e-05 5.38821735627708e-05 4.03942089416843e-05 4.11081868025091e-05 0.000112877406303012
"302" -0.000144423963799307 0.000120434282384241 0.000106563397700842 2.66956848353549e-05 9.29555629481118e-05 7.19148940659079e-06 8.27021353651895e-05 0.000186027769971067 -7.08192180217776e-05 8.53788189766865e-05 -3.41048004311102e-05 -3.5477787463617e-05 7.52145914929266e-05 5.06737742556524e-05 5.8635616757336e-05 0.000122888848444241
"303" -0.000132136216542732 0.000130411013655706 0.000102293267733584 2.84083069761484e-05 9.58879238953515e-05 1.01338006827392e-05 8.88114733437304e-05 0.000187899239686318 -5.28144273281862e-05 9.94304971719211e-05 -2.26506325352721e-05 -2.77879909857605e-05 9.48667701492521e-05 6.11596881179489e-05 7.57764197092122e-05 0.000132397485697874
"304" -0.000121219966070008 0.000139761180074355 9.743947782146e-05 2.93955698592841e-05 9.81560576270436e-05 1.26279586565656e-05 9.40492303301895e-05 0.000188452730916615 -3.55088800157954e-05 0.000112830343175118 -1.14214094256013e-05 -2.10343165329763e-05 0.000112749029880448 7.18873500986899e-05 9.25065722128765e-05 0.000141400476068879
"305" -0.000111727102086117 0.00014845543489943 9.20219787242929e-05 2.9650008154947e-05 9.9730253052557e-05 1.46632179941094e-05 9.83884749070348e-05 0.000187704852728172 -1.89129654187647e-05 0.000125594560994604 -4.32922933999955e-07 -1.51684595492026e-05 0.000128787318514281 8.28740621594838e-05 0.000108800734263352 0.000149889655778825
"306" -0.000103687223753176 0.000156462767345969 8.60762952628602e-05 2.91767486901872e-05 0.000100590025921386 1.62353543654574e-05 0.00010181532672908 0.000185678120653167 -3.01675696953557e-06 0.000137735378475463 1.03079000138474e-05 -1.01345668646758e-05 0.000142920514672045 9.4143668565425e-05 0.000124637603626902 0.000157861234354634
"307" -9.7133603014055e-05 0.000163771292766303 7.96312036953471e-05 2.79900580638896e-05 0.000100708690326678 1.73421232660089e-05 0.000104319919990131 0.000182410677256508 1.21901610101499e-05 0.000149279266043806 2.07937440549672e-05 -5.87397164612262e-06 0.000155112098304983 0.000105712043041112 0.000139996271385787 0.000165312024018318
"308" -9.2067684741997e-05 0.000170365032690547 7.27275521032773e-05 2.61123915325826e-05 0.000100081019778519 1.79851282442171e-05 0.000105901221384803 0.000177957464554976 2.67329530685384e-05 0.000160255418702025 3.10190726475495e-05 -2.32114360383246e-06 0.000165340688423397 0.000117581668653477 0.000154860383410387 0.00017223652865015
"309" -8.84949489746592e-05 0.000176244606350739 6.54149904525566e-05 2.35722789577703e-05 9.86990408512576e-05 1.816881712192e-05 0.000106570956774031 0.000172375738457972 4.064112120365e-05 0.000170700431927575 4.09840477044556e-05 5.96044122344237e-07 0.000173598226081065 0.000129756110851782 0.000169213855197749 0.000178629877869923
"310" -8.63990428858614e-05 0.000181415230456964 5.77412542951183e-05 2.04111088256423e-05 9.65619643929457e-05 1.79026628230566e-05 0.000106340219535194 0.000165739105367221 5.39590239204127e-05 0.000180655209394528 5.06909251634714e-05 2.9522470816561e-06 0.000179903125026911 0.000142227738509333 0.000183038469219693 0.000184490532855753
"311" -8.57534428484636e-05 0.000185888975705997 4.976386054887e-05 1.66754183900482e-05 9.36827454077602e-05 1.72006069119162e-05 0.000105238413257975 0.000158134622847394 6.67342332899309e-05 0.000190164031225025 6.01405291839475e-05 4.82535765111788e-06 0.000184285256737642 0.000154982985754815 0.000196323576799964 0.000189808120313373
"312" -8.65295209597577e-05 0.000189677844861999 4.15406486332903e-05 1.2420748389949e-05 9.00773709104599e-05 1.60796180281602e-05 0.000103294377398893 0.000149655369713621 7.90204327773894e-05 0.00019928035761287 6.93403780462143e-05 6.29720019985162e-06 0.000186794455192237 0.000168000266045516 0.000209054991940868 0.000194578225996601
"313" -8.86789291793409e-05 0.000192817409655621 3.31381918462389e-05 7.71263613085972e-06 8.5765178588173e-05 1.45585499436954e-05 0.000100553201474405 0.000140402236388776 9.08821722494268e-05 0.000208056483167766 7.82973484487943e-05 7.45055171765345e-06 0.000187497497358854 0.000181247728336432 0.000221223438622363 0.000198793506073582
"314" -9.21523027089292e-05 0.000195326998875947 2.46236162852713e-05 2.61637075784954e-06 8.07820546847099e-05 1.26637043142725e-05 9.70605970919566e-05 0.000130492297191108 0.000102382248060916 0.00021654959907707 8.70235257825143e-05 8.3689830706991e-06 0.000186476888642559 0.000194691060905151 0.000232815705095528 0.000202442037067294
"315" -9.68900435971611e-05 0.000197247064671663 1.60729740690228e-05 -2.78969357821855e-06 7.51655665888855e-05 1.04182020999033e-05 9.28789058795317e-05 0.000120047455745518 0.000113596685539408 0.000224823463230696 9.55295550199189e-05 9.13824249696727e-06 0.000183835724517418 0.00020828534177689 0.000243827222011172 0.000205518778023261
"316" -0.000102826268317068 0.000198614575612908 7.55498661786101e-06 -8.42256484876846e-06 6.89539552637665e-05 7.85352165917035e-06 8.80669078584083e-05 0.000109189327449755 0.000124597695216127 0.000232936917209846 0.000103828133508666 9.83881550224933e-06 0.000179683596995327 0.000221974226815051 0.000254246070437149 0.00020801392187494
"317" -0.000109883670256046 0.000199475220326628 -8.51114426326495e-07 -1.41958457861258e-05 6.22096160622462e-05 5.00552936158627e-06 8.27052320507843e-05 9.80571284807666e-05 0.000135462819292494 0.000240953686327288 0.000111940437531353 1.05584198026555e-05 0.000174151319427939 0.000235706948184129 0.000264070713471967 0.000209912801862163
"318" -0.000117993698026216 0.000199864497238644 -9.06589692744889e-06 -2.00201271935571e-05 5.49812787719214e-05 1.90602426885094e-06 7.68704356891618e-05 8.67878205316829e-05 0.000146271248125397 0.000248941909607367 0.000119881264126932 1.13771697253014e-05 0.000167377649257037 0.000249413161728306 0.000273296520992513 0.000211211384567519
"319" -0.000127069655341126 0.000199834226008223 -1.70088513385889e-05 -2.57989764343193e-05 4.73384452282832e-05 -1.40527900756369e-06 7.06440651356972e-05 7.55231689699503e-05 0.000157105364530794 0.000256963215023341 0.000127669635291955 1.23754734288947e-05 0.000159516902702857 0.00026302809397342 0.000281918081521656 0.000211892627872193
"320" -0.00013703079944686 0.000199425324735767 -2.46064334396759e-05 -3.14379004969497e-05 3.93496801348662e-05 -4.88699804100534e-06 6.41234533003506e-05 6.44108906020622e-05 0.000168039616874764 0.000265082042185989 0.000135329737138831 1.3629710285286e-05 0.000150730698671413 0.000276476544723813 0.000289936624164947 0.000211947758416064
"321" -0.000147786806196745 0.00019868308455127 -3.17776216732182e-05 -3.68389901993138e-05 3.10870374265824e-05 -8.49619735956946e-06 5.73998333303554e-05 5.35925888550478e-05 0.000179153777234417 0.000273361895348391 0.000142882270858059 1.52156522814721e-05 0.000141189807639043 0.000289685666174829 0.00029735389123393 0.000211370060579029
"322" -0.000159252915086836 0.000197651582252049 -3.84433357437552e-05 -4.19028847922056e-05 2.26319812679671e-05 -1.21899621741165e-05 5.05727587050736e-05 4.32194508852245e-05 0.000190519124174878 0.000281863357504075 0.000150350684923218 1.72011782714452e-05 0.000131068711356101 0.000302567755453972 0.0003041726714759 0.000210148847917938
"323" -0.000171343352887477 0.000196364757839287 -4.45332958556575e-05 -4.653435893557e-05 1.40664497161118e-05 -1.59218188087972e-05 4.37481674118141e-05 3.34348665942689e-05 0.000202210128035746 0.000290644077753237 0.000157760751432581 1.96528442750931e-05 0.000120550338674264 0.000315051518510942 0.000310394328163818 0.000208273898271313
"324" -0.000183969565901567 0.000194862700065334 -4.99729310699204e-05 -5.06365093968437e-05 5.47662509745085e-06 -1.96451061194605e-05 3.70294597187541e-05 2.43764462672318e-05 0.000214288528665793 0.000299759188363442 0.000165135870480347 2.26304846440932e-05 0.000109819784508498 0.000327046442925816 0.000316026762838628 0.000205739363781978
"325" -0.000197038613526186 0.000193177031519314 -5.46968902296509e-05 -5.41175649176713e-05 -3.05403382098394e-06 -2.33142061597351e-05 3.05187848216878e-05 1.61870455966757e-05 0.000226811043193678 0.000309255471589657 0.000172502040771394 2.61871454164016e-05 9.90609921316822e-05 0.000338472817352686 0.000321073174444881 0.000202536477987187
"326" -0.000210474035433769 0.000191329655035293 -5.86389497704665e-05 -5.6889533430364e-05 -1.14351976888854e-05 -2.68804411778636e-05 2.43235370542411e-05 8.98962465098584e-06 0.000239832988788274 0.00031918257845873 0.000179881600022061 3.03732388810517e-05 8.84565454909478e-05 0.000349249214865033 0.000325545393316594 0.000198661911937906
"327" -0.000224189779404599 0.00018933764824885 -6.1744690465254e-05 -5.8866922099841e-05 -1.9577967709048e-05 -3.02973221076074e-05 1.85447450836564e-05 2.91306731692095e-06 0.000253392843145638 0.000329573700193602 0.000187299476311648 3.52264135361227e-05 7.81894289641218e-05 0.000359294605751229 0.000329448658147419 0.000194112397305062
"328" -0.000238109346041621 0.000187218753825899 -6.3961410674063e-05 -5.99712738236506e-05 -2.73956020275505e-05 -3.35201206959953e-05 1.32807758115937e-05 -1.93116559629371e-06 0.00026752317994713 0.000340466354385803 0.000194774047809968 4.07822668082698e-05 6.8433788235668e-05 0.000368529509557682 0.0003327917807414 0.000188886235009489
"329" -0.000252153076752599 0.000184972754796097 -6.52433905468122e-05 -6.01342589359923e-05 -3.48070257530824e-05 -3.65035567419721e-05 8.62805660972538e-06 -5.43960532422213e-06 0.000282245069050875 0.000351882810421455 0.000202329363843918 4.70624630080237e-05 5.93529703056522e-05 0.000376877387464183 0.00033558692406009 0.000182981380705324
"330" -0.000266255240491997 0.000182597222850361 -6.55538367435961e-05 -5.92898908395434e-05 -4.17215490725547e-05 -3.92066426110341e-05 4.67857479686943e-06 -7.52680605122603e-06 0.00029756925965245 0.000363840805317432 0.000209978437251727 5.4080122384088e-05 5.11068842638126e-05 0.000384261240307937 0.00033783908199149 0.000176401696752391
"331" -0.00028034405405067 0.000180083588250985 -6.48613931398748e-05 -5.73830310078032e-05 -4.80668177036508e-05 -4.15893170623379e-05 1.51105673891896e-06 -8.11167047020385e-06 0.000313487322674047 0.000376348631814008 0.000217733705032833 6.1842630986652e-05 4.38413330511233e-05 0.000390615751296571 0.000339556636623038 0.000169151096590828
"332" -0.000294354192020723 0.000177412442123538 -6.31405691355534e-05 -5.43677408955997e-05 -5.37648171517395e-05 -4.36133798909434e-05 -7.96134598830034e-07 -7.13664762207829e-06 0.000329986626627505 0.000389409366837214 0.000225609451747349 7.03433357982486e-05 3.76875133388759e-05 0.000395869045964802 0.000340746409428051 0.000161227888312831
"333" -0.000308237471982335 0.000174553023505694 -6.03791699103898e-05 -5.02101692192042e-05 -5.87511841234843e-05 -4.52469357770113e-05 -2.179838193558e-06 -4.55573222664745e-06 0.000347035510521441 0.000403010905108743 0.000233604864040605 7.95655695948326e-05 3.27621958897303e-05 0.000399959251816849 0.000341415365086583 0.000152642154589078
"334" -0.000321940230742532 0.000171465735781716 -5.65723865777935e-05 -4.4880414696655e-05 -6.29610477791006e-05 -4.64591570063482e-05 -2.58405113934491e-06 -3.44292016946439e-07 0.000364586106203564 0.000417137674135407 0.000241726144510418 8.94813782509367e-05 2.91601165669203e-05 0.000402831276961313 0.000341563386985596 0.000143400070519715
"335" -0.000335414208284874 0.000168113853067769 -5.17202761567278e-05 -3.83685498353933e-05 -6.63353315111523e-05 -4.7226396500607e-05 -1.96504766858409e-06 5.50613475914131e-06 0.000382576425653728 0.000431760712198152 0.000249964534902876 0.000100054751375386 2.69689428058694e-05 0.000404427801517348 0.00034119453934443 0.00013350842450318
"336" -0.000348626867184216 0.000164438285480713 -4.58383002658044e-05 -3.06674576831474e-05 -6.88364312611005e-05 -4.7529036102755e-05 -2.91066852157748e-07 1.29851902740823e-05 0.000400934158076566 0.000446840870892668 0.000258311858195696 0.00011123065260753 2.62434491412761e-05 0.000404703409232867 0.000340305243195989 0.000122973504603502
"337" -0.00036154100856265 0.00016038250558943 -3.89477069474459e-05 -2.17876174227058e-05 -7.04183447468685e-05 -4.73497865260758e-05 2.45569145669923e-06 2.20597086222225e-05 0.000419569113196108 0.000462335987422084 0.000266749218856403 0.000122950747272588 2.70233624011957e-05 0.00040360703621557 0.00033889353611783 0.000111811824093755
"338" -0.000374133502721011 0.000155878114393676 -3.10735381257908e-05 -1.17482438131598e-05 -7.10598388702766e-05 -4.66785900675506e-05 6.28310866787046e-06 3.26788318289403e-05 0.000438376818901038 0.00047818538654687 0.000275254399157691 0.000135139516751062 2.93311457590016e-05 0.000401107083808949 0.000336952009439933 0.000100032641315893
"339" -0.00038638239999715 0.000150858531580179 -2.22602939618744e-05 -5.80164267815961e-07 -7.07386943154643e-05 -4.55141328335129e-05 1.11786776761856e-05 4.47713692751268e-05 0.000457238527157157 0.000494326783395014 0.000283801508056384 0.000147712918714046 3.31610048386747e-05 0.000397169926465243 0.000334470080015777 8.76501199562083e-05
"340" -0.000398277325184844 0.000145246199400569 -1.25546390636835e-05 1.1670455257717e-05 -6.94463374372539e-05 -4.38558256907476e-05 1.71270959550008e-05 5.82466891159776e-05 0.000476029811948856 0.000510688296763631 0.000292353695816759 0.0001605801686575 3.84887847791522e-05 0.000391761768509031 0.000331437003988387 7.4681881702807e-05
"341" -0.000409814205546254 0.000138961184253311 -2.01102768334234e-06 2.49511725224702e-05 -6.71889714777122e-05 -4.17124881217419e-05 2.40843810031921e-05 7.29921296740347e-05 0.000494606747885402 0.000527185494465511 0.000300873069470528 0.000173634221701539 4.52671902655842e-05 0.000384870188089845 0.000327839307108623 6.11478306460493e-05
"342" -0.000420993494963105 0.000131922514131407 9.30394688648184e-06 3.91931000954346e-05 -6.39813310998828e-05 -3.9096610194459e-05 3.20093900843002e-05 8.88821334517063e-05 0.000512821973479461 0.000543734769663027 0.000309311485404522 0.000186766074630355 5.342938130793e-05 0.000376476107273393 0.000323661158129547 4.70710133793234e-05
