"V1" "V2" "V4" "V5" "V7" "V8" "V10" "V11" "V13" "V14" "V15" "V17" "V18" "V20" "V21" "V23"
"1" -0.00171350945440192 -0.0011854114409868 -0.00133867637319313 7.02597015451343e-05 -0.00055430901022333 -2.73267801118551e-05 -0.00084389908729964 -0.000425855357848786 -0.000604054903826073 -7.2972549093294e-06 0.000106490241491192 0.000768516472082754 0.000512450279995282 -4.62991403707283e-05 0.00046869536635247 0.000261955928911407
"2" -0.00169183556929904 -0.00116854680990179 -0.00133717126314792 6.6569704998689e-05 -0.000539961614274531 -2.1496890575318e-05 -0.00083825241501199 -0.000417406443473345 -0.000586119048937734 1.27774377992988e-05 0.00010721619970122 0.000753293177277836 0.000505969690407203 -6.2497129076822e-05 0.000447052979881604 0.000243297265966645
"3" -0.00166464822878038 -0.00114793530267315 -0.00133384485497504 6.43348932641762e-05 -0.000525193668042656 -1.5155102653632e-05 -0.000832138612996455 -0.000407827485570328 -0.000566728430032595 3.25700222505585e-05 0.000108573910283851 0.000737373375334431 0.000499174906510422 -7.7709253815447e-05 0.000426129780058867 0.000225150473062807
"4" -0.00163182388095698 -0.00112348273536758 -0.00132866231623771 6.36625530659617e-05 -0.00051006092921282 -8.30746327903233e-06 -0.000825549155735855 -0.000397151615439048 -0.000545928760006933 5.20077365909736e-05 0.00011059291767831 0.000720810811282082 0.000492076839752385 -9.18096345222593e-05 0.000406059104415691 0.000207593641153296
"5" -0.00159329715767784 -0.00109513468405348 -0.00132159711976892 6.46422159010535e-05 -0.00049462292059415 -9.65993115159588e-07 -0.00081848797115672 -0.000385416304178329 -0.00052378915434873 7.10126218294961e-05 0.000113302876730577 0.000703655296240246 0.000484687037753921 -0.000104686992472094 0.000386966200439981 0.000190711117548033
"6" -0.00154907377200852 -0.00106287686155642 -0.00131264756648622 6.73438740278675e-05 -0.000478952702410175 6.85312059002227e-06 -0.000810958414854767 -0.00037267633208571 -0.000500393613482754 8.95025730227434e-05 0.00011671318878796 0.000685970574687984 0.000477019772568445 -0.000116231104434713 0.000368964222010517 0.00017457577192139
"7" -0.00149921773836403 -0.00102674321333041 -0.00130182321295036 7.18173581093784e-05 -0.000463117094158625 1.51244977942652e-05 -0.000802983997707564 -0.00035898990632353 -0.000475838159717865 0.000107392457927339 0.00012083753869588 0.000667818134570907 0.000469088541592521 -0.000126348691504366 0.000352164905469969 0.000159254035894436
"8" -0.00144384432473568 -0.000986799915471561 -0.00128914727669598 7.80951573392642e-05 -0.000447194698557439 2.38203265661184e-05 -0.000794586864458432 -0.000344422260969675 -0.000450238917251235 0.000124591741108427 0.000125674781527444 0.000649263975277169 0.000460914105841107 -0.000134955403169732 0.000336661027838483 0.000144811010540208
"9" -0.0013831365295359 -0.000943160708135459 -0.00127466890830506 8.61841334513035e-05 -0.000431261300696428 3.29032936407871e-05 -0.000785797631364733 -0.000329047987582468 -0.000423717251568947 0.000141020124878593 0.00013121602588219 0.000630377124069966 0.000452510521903618 -0.000141974462690962 0.000322540063013421 0.000131301305830472
"10" -0.00131732620325023 -0.0008959736493406 -0.0012584400671127 9.60750125644387e-05 -0.000415396430401987 4.23349701705922e-05 -0.000776658504716823 -0.000312943833477083 -0.000396411830816041 0.00015658744902638 0.00013744513994599 0.000611228043000398 0.000443904755297145 -0.000147343863937752 0.000309875726038027 0.000118774955972518
"11" -0.00124670360918984 -0.000845428632046232 -0.00124053664963803 0.000107733322978419 -0.000399676362802761 5.20696997180412e-05 -0.000767213010367705 -0.000296198592499202 -0.000368467632539424 0.000171211103060092 0.000144341890895928 0.000591891738826849 0.000435117943204033 -0.000151010109928345 0.000298727327746179 0.000107272118273467
"12" -0.00117159686783704 -0.000791738972294473 -0.00122103414180968 0.000121108470894445 -0.000384176593705683 6.20617021600316e-05 -0.000757512968711103 -0.000278897058550741 -0.000340032383943087 0.000184813920763249 0.000151875180764194 0.000572440333151922 0.000426173121263088 -0.000152938383667743 0.000289144589432088 9.68251299031092e-05
"13" -0.00109239674885707 -0.000735162363814333 -0.00120003166578252 0.000136127879728028 -0.000368970066510518 7.22547962025154e-05 -0.000747609179726168 -0.000261134778584518 -0.000311264336358471 0.000197330587443155 0.000160006639259135 0.00055294594764782 0.0004170986864386 -0.000153099297751306 0.000281158751587606 8.74614712718176e-05
"14" -0.00100951666002386 -0.000675975878079337 -0.00117763165138559 0.000152701745473968 -0.000354129657887046 8.25982761122678e-05 -0.000737566833378795 -0.000243004328776286 -0.000282326556335065 0.000208691084960787 0.000168695439965353 0.000533483099059328 0.000407918651050875 -0.000151477422779787 0.000274797793375931 7.91949445373381e-05
"15" -0.000923422124502199 -0.000614484949488877 -0.00115394419537993 0.000170723419208205 -0.000339718204549628 9.30307920105507e-05 -0.000727440516671557 -0.000224602427363797 -0.000253375316961717 0.000218843283484019 0.00017789150143438 0.000514122556483236 0.000398661320358571 -0.000148070404095601 0.000270071115689489 7.20404495164225e-05
"16" -0.000834597699505198 -0.000551010737045238 -0.00112908522616151 0.000190070347738174 -0.000325798374583307 0.000103495942315181 -0.000717298786922321 -0.000206027004818974 -0.000224573043861429 0.000227742246627063 0.000187539025227106 0.000494932988342478 0.000389354811046624 -0.000142885120903298 0.000266972416742582 6.59947432686042e-05
"17" -0.000743565479478767 -0.000485901037413456 -0.00110318291890649 0.000210601638144623 -0.000312421123046112 0.000113930472449313 -0.000707202390386362 -0.000187373484877321 -0.000196075559996856 0.000235354166944856 0.000197583294075852 0.000475983982922305 0.000380027774022296 -0.000135944480443654 0.000265488787747941 6.10544073334691e-05
"18" -0.000650853637960779 -0.00041950705926612 -0.00107636386354254 0.000232167406369315 -0.0002996285094063 0.000124275862279344 -0.000697215259524531 -0.000168736101637834 -0.000168035937569849 0.000241659147101139 0.000207960622175858 0.00045733865547612 0.00037070928992525 -0.000127281332958743 0.000265592283485026 5.72063316781476e-05
"19" -0.000557018411887381 -0.0003521878326627 -0.00104875194174072 0.0002546075360715 -0.000287465409203985 0.000134466441615157 -0.000687402836525472 -0.000150211843784475 -0.000140601176175484 0.000246644681829421 0.000218605137117603 0.000439059137837172 0.000361426773658168 -0.000116935050483103 0.000267246989994631 5.44332213523038e-05
"20" -0.00046261905914362 -0.000284319234059706 -0.00102048246701643 0.000277745689298086 -0.000275957726459766 0.000144443059264203 -0.000677823761345489 -0.000131886688276614 -0.000113913814456496 0.000250315819340275 0.000229445063676668 0.000421202342075609 0.00035220827155094 -0.000104962169355141 0.000270399222882448 5.27089252528487e-05
"21" -0.000368219030726725 -0.000216260890724087 -0.000991681146117946 0.000301405299793393 -0.000265130111839902 0.000154142828201703 -0.000668540593343648 -0.000113852191409502 -8.80997111494642e-05 0.000252690136684488 0.00024041181381116 0.000403820498839121 0.000343085734030172 -9.14278695835267e-05 0.000274989226297655 5.20043449313689e-05
"22" -0.000274384199326862 -0.000148381390126673 -0.000962478399812726 0.000325399313592917 -0.000254992160101089 0.000163507715739148 -0.000659605890604018 -9.61886220328573e-05 -6.32831292890659e-05 0.000253792977450754 0.000251431888640341 0.000386965204283621 0.000334080427513955 -7.64083550675559e-05 0.000280948270215793 5.22830738354581e-05
"23" -0.000181668204379296 -8.1037577527772e-05 -0.000933003338905915 0.000349538444874274 -0.000245546644226917 0.000172478763629336 -0.000651075638377404 -7.89769943982338e-05 -3.95721513532614e-05 0.000253669837026362 0.000262432541051658 0.000370676857777233 0.000325221284422353 -5.99845118542482e-05 0.000288193779837127 5.35037125756279e-05
"24" -9.0615319778897e-05 -1.45758271099209e-05 -0.000903371121353228 0.000373628574032804 -0.000236793098654846 0.000181001505308273 -0.000642993497443529 -6.22887129724522e-05 -1.70658037558542e-05 0.000252368865065029 0.000273336212322035 0.000354997944836358 0.000316535339676315 -4.22531895679581e-05 0.000296639510071381 5.56262021230227e-05
"25" -1.75310032249728e-06 5.0675799648099e-05 -0.000873705178857122 0.000397477372892359 -0.000228716447333781 0.000189023572297238 -0.000635406699702117 -4.61916001168453e-05 4.14969934799785e-06 0.000249960165840347 0.000284070671055257 0.000339962087804054 0.000308046003641983 -2.33163324218381e-05 0.0003061901489443 5.86002246227296e-05
"26" 8.44087920495006e-05 0.000114395491345613 -0.000844116294470144 0.000420894644335354 -0.000221296254594383 0.000196491958724024 -0.000628350767275881 -3.07456376749527e-05 2.40008779031284e-05 0.000246513329183418 0.000294561907522466 0.000325599423910789 0.00029977596390446 -3.28217090917192e-06 0.000316736779821857 6.23793629655209e-05
"27" 0.000167396349825287 0.000176295854967267 -0.000814713210963432 0.00044369265537931 -0.000214505125554437 0.000203363935669294 -0.000621860468216538 -1.60088902009329e-05 4.24274354454333e-05 0.000242117633062174 0.000304737214569853 0.000311933132531127 0.000291748603914377 1.77304933348979e-05 0.00032817458717785 6.69097532325869e-05
"28" 0.000246748685864394 0.000236093734469053 -0.000785591271190562 0.000465685022374953 -0.000208302968512778 0.00020959625030659 -0.000615959773510401 -2.02779247535491e-06 5.93788879812579e-05 0.000236864719765382 0.000314523736407398 0.000298983509205053 0.000283987424068614 3.95966498118815e-05 0.000340388492272934 7.21393017422327e-05
"29" 0.00032205632903745 0.000293545665571275 -0.000756848872816377 0.000486697548520586 -0.000202654918206519 0.000215148588588287 -0.000610675298977509 1.11572050900464e-05 7.48193527630425e-05 0.000230849371719336 0.00032385638528333 0.000286766746752378 0.000276509579472009 6.21885101345543e-05 0.000353253629710438 7.80142979490852e-05
"30" 0.000392929625693188 0.000348427096560777 -0.000728570730394142 0.000506558090132143 -0.000197510161659441 0.000219988443181522 -0.000606018817808453 2.35087961238163e-05 8.87259843098143e-05 0.000224183197306577 0.000332662444360411 0.000275291523451993 0.000269337242075928 8.53707576941662e-05 0.000366652725580328 8.44785440289508e-05
"31" 0.000459026880807687 0.00040053764177247 -0.000700838956358368 0.000525110081046593 -0.000192817278561572 0.000224084545318577 -0.000602004550729585 3.50029420451139e-05 0.000101087616962889 0.000216974863983096 0.000340881389948348 0.000264563292936655 0.00026248432991174 0.000109004741472332 0.000380458994583933 9.14775905040131e-05
"32" 0.000520043361557319 0.000449708860334946 -0.00067372221471087 0.00054220110397096 -0.000188520569749687 0.000227415047741538 -0.000598636931692295 4.56180447780711e-05 0.000111903360456233 0.000209337770378889 0.000348453563538357 0.000254582484830532 0.000255971655088495 0.000132946811377645 0.000394542558891792 9.89573004811443e-05
"33" 0.000575717701029377 0.000495797652270033 -0.000647290286678202 0.00055769563934703 -0.000184568558209829 0.000229957484874518 -0.000595914627797747 5.53379956167329e-05 0.000121182650869037 0.000201385122161639 0.000355318580956071 0.000245348376284491 0.000249811249168762 0.000157055325240891 0.000408775600976483 0.000106863085951927
"34" 0.000625836052948398 0.000538698917229866 -0.000621600965098535 0.000571471688830313 -0.000180895227764082 0.000231699765301588 -0.000593838765023028 6.415937044279e-05 0.000128945632153574 0.000193236070294167 0.000361430721951124 0.000236854316454471 0.000244019331102844 0.00018118448455218 0.000423031866631482 0.000115144201473756
"35" 0.000670223516456224 0.000578322856906131 -0.000596701934830389 0.000583414567912721 -0.000177441938351509 0.000232630415083124 -0.000592395094281149 7.20816615447968e-05 0.000135223689204679 0.000185002132673971 0.000366735659410496 0.00022908723067679 0.000238607180755844 0.000205185257253618 0.000437183495436347 0.000123749206404764
"36" 0.000708752283936759 0.000614617557079126 -0.000572642885408664 0.000593433804249111 -0.000174148684602853 0.000232743779394575 -0.000591574977004319 7.91071824369982e-05 0.000140053549761854 0.000176797431049444 0.000371193013601591 0.000222036270418538 0.000233588300128197 0.000228916987518114 0.000451103644332596 0.000132625587128859
"37" 0.000741342868623128 0.000647555708949711 -0.000549457229378823 0.000601445049616195 -0.000170957631319217 0.00023204302922789 -0.00059136153719533 8.52510141305166e-05 0.000143482201684839 0.000168731795823089 0.000374764216064384 0.000215682994139246 0.00022897102362629 0.000252234687398919 0.000464674664067693 0.000141728977528984
"38" 0.000767962944094147 0.000677141350660499 -0.000527178351092972 0.000607389370298607 -0.000167806236417294 0.000230532846971559 -0.000591737136393358 9.05281918225264e-05 0.000145560051344858 0.000160904170678298 0.000377417562946429 0.000210009839716099 0.000224764263025152 0.000274998063720363 0.0004777771632268 0.00015101562508144
"39" 0.00078861638857759 0.000703402337082677 -0.000505832061215979 0.000611219179768943 -0.000164645610003749 0.000228223657220453 -0.000592674166506784 9.49610055870919e-05 0.000146346969898573 0.000153417608301781 0.000379125768117565 0.000204990639918457 0.000220974436424696 0.000297070640125861 0.000490298805875304 0.0001604394084006
"40" 0.000803359455257046 0.000726394830124944 -0.000485439790537846 0.00061290210483355 -0.000161418750006838 0.000225130175581177 -0.000594155383104403 9.85765384825621e-05 0.00014590670669638 0.000146362709762593 0.000379867724707874 0.000200606998460277 0.000217606279234262 0.000318323936175298 0.000502130249681126 0.000169962715279601
"41" 0.000812286524681607 0.000746198496430883 -0.000466012963549272 0.000612428886419163 -0.000158076447746482 0.000221271702790829 -0.000596149305010983 0.000101406380504446 0.000144307260868157 0.00013982122940538 0.000379629410891108 0.000196827616730617 0.000214666416131176 0.000338629138689566 0.000513174596462024 0.000179548509854184
"42" 0.000815535466285802 0.000762912420586919 -0.000447559142227488 0.000609804054853711 -0.000154579109472229 0.000216673776395575 -0.000598626688252311 0.000103483739486838 0.000141620818460055 0.000133868717130864 0.000378399613805581 0.000193628229046423 0.000212154544787915 0.000357871348901395 0.000523337475884344 0.000189159688096291
"43" 0.000813278103290181 0.000776664672737455 -0.000430084923514724 0.000605047393570894 -0.000150883035991605 0.000211364479011955 -0.000601560318397536 0.000104845490067544 0.000137920515337129 0.000128574293217439 0.000376177000047125 0.000190977482204162 0.000210069539574226 0.000375940198211762 0.000532536261385123 0.000198765256590278
"44" 0.00080573163260218 0.000787598650096857 -0.000413588013111061 0.000598198771528781 -0.000146955692042522 0.000205375366835955 -0.000604919298872747 0.000105535781181625 0.000133284357347079 0.000123992526680357 0.000372963656560847 0.000188846076037725 0.000208412001069815 0.000392731766897707 0.00054069247845833 0.000208337954410672
"45" 0.00079313781693044 0.000795879388270908 -0.000398061577057439 0.00058931174498096 -0.00014276634716969 0.000198741110862767 -0.000608667771961988 0.000105595181312906 0.000127787881239878 0.000120169047294944 0.000368772612559764 0.000187201086723342 0.000207177222470517 0.000408156101991902 0.000547738320560643 0.000217848923278487
"46" 0.000775777787581255 0.000801687482606323 -0.000383493396373606 0.00057845874780874 -0.000138289428453101 0.000191501274948587 -0.00061277275748665 0.000105069795197779 0.000121512196808515 0.000117141055244819 0.000363617274653646 0.000186012520440667 0.000206359826339955 0.000422132031585009 0.000553620931526962 0.000227278321395901
"47" 0.000753958730082462 0.00080521630195497 -0.000369868791409006 0.000565724972474171 -0.000133511333361457 0.000183700111551688 -0.000617201174412794 0.000104007203795955 0.000114534586286091 0.000114934872067366 0.000357521814630931 0.000185246686042546 0.000205952485953513 0.000434590357490621 0.000558289729863439 0.000236600616063349
"48" 0.000728021837349847 0.000806674406520748 -0.000357169106061247 0.000551210579036786 -0.000128412436243293 0.000175378702695384 -0.000621916463011656 0.000102453656728184 0.000106934198623553 0.000113563298055272 0.000350513134444876 0.000184870084845619 0.000205944632847497 0.000445470589502926 0.000561709350697448 0.000245798681343638
"49" 0.000698313710201187 0.000806281441599914 -0.000345368444704767 0.000535029589766306 -0.000122991699344866 0.00016658537478672 -0.000626884311024184 0.000100458566582344 9.87892365412862e-05 0.000113033296314491 0.000342626261242235 0.000184849270738847 0.000206325749142089 0.000454725455625224 0.000563854261695412 0.00025485873694751
"50" 0.000665223534251343 0.000804265911448495 -0.000334439839921945 0.000517307397877196 -0.00011724572697341 0.000157369203654499 -0.000632067098305112 9.80705583709732e-05 9.01787044923143e-05 0.000113341931979812 0.000333903344283651 0.000185153485273884 0.000207083007699267 0.000462321878260096 0.000564708499108974 0.000263766072889792
"51" 0.000629138881641593 0.000800863084875265 -0.000324349258974686 0.000498180618589675 -0.000111175709999837 0.000147778295362753 -0.000637427608363227 9.53409586486697e-05 8.11787997065969e-05 0.000114472351718716 0.000324384612225691 0.000185748813154206 0.000208199303592314 0.00046823852955328 0.000564269334801069 0.000272506655855237
"52" 0.000590469218731868 0.000796312556284517 -0.000315067299141665 0.000477795117107411 -0.00010478922169281 0.000137865098119057 -0.000642927670269878 9.2315245651329e-05 7.1863351737063e-05 0.000116400986953578 0.000314126180998359 0.000186604023340686 0.000209657072235574 0.000472463526453667 0.000562540165016595 0.000281070651255965
"53" 0.000549631623660959 0.000790855093949063 -0.000306544866553114 0.00045630808623937 -9.81018551718655e-05 0.00012767993743999 -0.000648530361666382 8.9043548275385e-05 6.23057285758444e-05 0.000119097042119088 0.000303181346004063 0.000187684751701527 0.000211439687698744 0.000475001270176515 0.000559541435825188 0.000289450829803139
"54" 0.000507053652923985 0.000784734574845099 -0.000298747560626562 0.000433881192600795 -9.11283284038871e-05 0.000117278345116044 -0.000654193793161824 8.55715879730894e-05 5.25779068029525e-05 0.000122516977555173 0.000291609118797361 0.000188963478038053 0.000213525516258009 0.000475867162232746 0.000555296099981022 0.000297637144661941
"55" 0.000463153574431686 0.000778188436696262 -0.000291624426156701 0.000410680330963581 -8.38930095600439e-05 0.0001067092177872 -0.000659879954066876 8.19475101130839e-05 4.27498155967044e-05 0.000126617113465881 0.000279474414079849 0.000190408633197851 0.0002158904275087 0.000475087865090844 0.000549838789679833 0.000305623108111754
"56" 0.000418367307536079 0.000771456188092932 -0.00028513210391906 0.000386878481085244 -7.64170014044093e-05 9.6026941807195e-05 -0.000665547338294823 7.82156549060863e-05 3.28888694337984e-05 0.000131339533265337 0.000266844864396776 0.000191992588478028 0.000218515460102468 0.000472705066958319 0.000543218197426919 0.000313400973491592
"57" 0.000373108804949582 0.000764763829392266 -0.000279214766345777 0.000362645057096371 -6.87257714491036e-05 8.52847692785024e-05 -0.000671151645659021 7.44189866952461e-05 2.30569943532555e-05 0.000136624094810823 0.000253789011915312 0.000193688073694413 0.000221377004828743 0.000468767040568126 0.00053548633730909 0.00032096484409329
"58" 0.000327789858188886 0.000758335979848014 -0.000273822255061227 0.000338158466641341 -6.08533648296747e-05 7.45300845088669e-05 -0.000676650951342686 7.05987321652348e-05 1.33225250294706e-05 0.000142409611900505 0.000240385588159821 0.000195470157383337 0.000224445529338431 0.000463337687133918 0.000526701422937217 0.000328306076764993
"59" 0.000282817037613884 0.000752378732589302 -0.000268898428402041 0.000313586637269542 -5.28295939552019e-05 6.38143530387076e-05 -0.000681997666667328 6.6798358532365e-05 3.74081740955458e-06 0.000148622743732247 0.000226704270462327 0.000197313777326313 0.000227703697844414 0.000456485826259746 0.000516931563180465 0.000335419046386675
"60" 0.00023857389527344 0.000747094887200719 -0.000264385535467194 0.000289100569152256 -4.46921064998755e-05 5.31870098187355e-05 -0.000687150270551815 6.30509924350421e-05 -5.62844278615238e-06 0.000155193818088459 0.000212824294861624 0.000199197608871751 0.000231122493271719 0.00044829254513331 0.000506251384532688 0.000342292861967011
"61" 0.000195430857667304 0.00074266515943973 -0.000260228866730556 0.000264863299405964 -3.64681843454198e-05 4.26936307544355e-05 -0.000692056842970093 5.93967748912089e-05 -1.47313953834969e-05 0.000162045847069852 0.000198822556425898 0.000201103209391471 0.000234680069028642 0.000438845069814542 0.000494734391433985 0.000348921876109748
"62" 0.000153736193401559 0.000739254409839003 -0.000256368536218098 0.000241031777915692 -2.81976636628215e-05 3.23806702063917e-05 -0.000696673043266199 5.58691952946677e-05 -2.35181349159609e-05 0.000169105106967186 0.00018478092419448 0.000203014191903019 0.000238352768890414 0.000428237644515657 0.00048246565162888 0.00035528904283369
"63" 0.000113818882726872 0.000737017631529476 -0.000252747560694536 0.000217757909654733 -1.99178834510663e-05 2.22926720133002e-05 -0.00070094879152658 5.24998350953821e-05 -3.19366311892541e-05 0.000176294476557984 0.000170772811841367 0.000204913160100287 0.000242120954083944 0.000416573705696421 0.000469528689951296 0.000361383278662714
"64" 7.59668410517471e-05 0.000736077207860766 -0.00024931333579651 0.000195177295968011 -1.16611421484161e-05 1.24699708005948e-05 -0.000704831857313116 4.93197268606853e-05 -3.99479658161542e-05 0.000183536005563795 0.000156881178223051 0.000206790069993623 0.000245963345765132 0.000403957490065929 0.00045600720865751 0.000367188577248191
"65" 4.04651410352053e-05 0.000736551970759711 -0.000246000696317847 0.000173421075190469 -3.4646346415286e-06 2.9515670445466e-06 -0.000708273601931002 4.63545534721579e-05 -4.75051458095606e-05 0.000190758041008929 0.000143179653367136 0.000208637238543183 0.000249864714745511 0.000390498867278993 0.000441987991031962 0.000372687264089636
"66" 7.54533021027458e-06 0.000738516256782788 -0.000242764534502228 0.000152604283029536 4.63848818323099e-06 -6.22223084734514e-06 -0.000711219791992815 4.3633790462182e-05 -5.45782106975221e-05 0.000197884847800586 0.000129740272507154 0.000210447316322129 0.000253810851852571 0.000376309728908674 0.000427560766988457 0.000377860612018563
"67" -2.25760302232549e-05 0.000742049413106832 -0.000239546219701144 0.00013282898196969 1.26156296975649e-05 -1.50210247992381e-05 -0.000713622122434623 4.1178480116113e-05 -6.11270599581016e-05 0.000204842850700633 0.000116643157958133 0.000212220973459099 0.000257787737108648 0.000361502945480243 0.000412806810939249 0.000382684382939267
"68" -4.97283303644176e-05 0.000747183363563258 -0.000236303996723068 0.000114182863372381 2.04362400614345e-05 -2.34070099469198e-05 -0.000715426911144448 3.9011431230952e-05 -6.71321733741764e-05 0.00021156549329553 0.000103953198144244 0.000213956170951135 0.000261787662916685 0.000346194012615293 0.000397806693550082 0.000387133002994499
"69" -7.37694494483229e-05 0.000753939534614035 -0.000232987037935206 9.67380455038379e-05 2.80749544658793e-05 -3.13532807658517e-05 -0.000716579786917467 3.7152446898966e-05 -7.25655882501782e-05 0.000217988508676448 9.17366791037971e-05 0.000215659302745626 0.000265807955107856 0.000330493791862194 0.000382643903663698 0.000391182444134082
"70" -9.45921295184822e-05 0.000762309520520322 -0.000229559243852227 8.05496678962913e-05 3.54975360213822e-05 -3.88308748254353e-05 -0.000717034734066961 3.56180078048792e-05 -7.7406363941337e-05 0.000224055346654318 8.00612194305477e-05 0.000217337192695222 0.000269844989851506 0.000314513117794011 0.000367390998073853 0.000394796788419397
"71" -0.000112120036223195 0.000772267233659177 -0.000225980373932426 6.56577768109002e-05 4.26851998163825e-05 -4.58132369631902e-05 -0.000716739054379676 3.44260216345772e-05 -8.16414924223291e-05 0.000229706623996746 6.89852988262378e-05 0.000219003313962159 0.000273905507025884 0.000298361482076513 0.000352119581299211 0.000397946933677795
"72" -0.000126324122683639 0.000783755864348552 -0.000222218532415926 5.20838786670131e-05 4.96151960333739e-05 -5.22799019234738e-05 -0.000715642033042993 3.35867730863942e-05 -8.52655197811236e-05 0.0002348954633487 5.85605940026746e-05 0.000220669993549547 0.000277995732178158 0.000282142004882743 0.000336895962160841 0.000400598639499199
"73" -0.000137195957569506 0.000796704891660641 -0.000218252041725662 3.98343642547218e-05 5.62643805992967e-05 -5.82069559724191e-05 -0.00071370154312712 3.31117739878962e-05 -8.82685679853986e-05 0.0002395816517629 4.88426413099481e-05 0.000222356686553164 0.00028212454242437 0.000265954061261802 0.000321774056653904 0.000402715258417311
"74" -0.000144773856185595 0.000811011501170621 -0.000214057313252804 2.88972573595761e-05 6.2623882570608e-05 -6.35754912365129e-05 -0.000710868537755428 3.30102900690024e-05 -9.0653748736463e-05 0.000243726417795908 3.98777194964573e-05 0.000224084655541039 0.000286312696191727 0.000249888751083379 0.00030680752730305 0.000404258918058752
"75" -0.000149127876247622 0.000826556700760345 -0.000209620329585466 1.92424341843913e-05 6.8672094495016e-05 -6.83731095001431e-05 -0.000707105567947931 3.32859975506645e-05 -9.24266204513603e-05 0.000247299187588295 3.17055822412477e-05 0.000225876939459893 0.000290575831522929 0.000234034438739868 0.00029204799264864 0.000405194386180759
"76" -0.000150353467904817 0.000843205069840968 -0.00020493189879224 1.08302075195536e-05 7.44065839682624e-05 -7.25850834786884e-05 -0.000702366335861494 3.39463439875892e-05 -9.35914764720522e-05 0.000250279530563759 2.43632045839917e-05 0.000227760169217414 0.000294941248204744 0.000218472227613718 0.000277526116834357 0.000405478145442124
"77" -0.000148582460182379 0.000860799619718372 -0.000199990540727402 3.59958605185281e-06 7.98103940088012e-05 -7.61980399120418e-05 -0.00069662032084073 3.4991251463092e-05 -9.4161398243258e-05 0.000252652365941853 1.78833896231287e-05 0.000229762245874895 0.000299433212756002 0.000203273035747252 0.000263278228107421 0.00040507595364334
"78" -0.000143975625975596 0.000879162021630396 -0.000194803553007848 -2.52202770365429e-06 8.48865777616023e-05 -7.92055256713132e-05 -0.00068983605707101 3.64173640663955e-05 -9.41528710097136e-05 0.00025441354024285 1.22898929733406e-05 0.000231915087223358 0.000304084637219398 0.00018849999771776 0.000249329070641766 0.000403948397461139
"79" -0.000136723913161786 0.000898109922783555 -0.000189375455220671 -7.61943336674122e-06 8.96291406475066e-05 -8.16010956465471e-05 -0.000681978406768121 3.8223934543796e-05 -9.35840119853305e-05 0.000255559828589042 7.60485969392428e-06 0.0002342458628647 0.000308927166793052 0.000174209671429416 0.000235690551438737 0.000402060034016488
"80" -0.000127038150112268 0.000917439225688949 -0.000183727950260362 -1.17906718146084e-05 9.40366677333091e-05 -8.3380743462355e-05 -0.000673031307767971 4.03991190391254e-05 -9.24759478310858e-05 0.000256104618572543 3.84376431001012e-06 0.000236790428941894 0.000313995949698356 0.000160449997002487 0.000222381672395132 0.000399375864109402
"81" -0.000115160503323848 0.000936939645490578 -0.000177881657801141 -1.51404514802276e-05 9.81158927339083e-05 -8.45423371799605e-05 -0.000662968275103154 4.29361602956469e-05 -9.08537127596422e-05 0.000256064653137766 1.01583372125845e-06 0.000239578097893693 0.000319331166217794 0.000147259488668872 0.000209398459928273 0.000395864498436248
"82" -0.000101342980892404 0.000956392071335628 -0.000171859873003103 -1.77860520063948e-05 0.000101866360862354 -8.5087936431556e-05 -0.000651780910262289 4.58197120608249e-05 -8.87429428675653e-05 0.000255462296784238 -8.76842501428653e-07 0.000242642419282176 0.000324969553300976 0.00013466747293234 0.000196744676647931 0.000391494431862746
"83" -8.58604141406607e-05 0.00097557209341783 -0.00016569794280682 -1.98470623957937e-05 0.000105298435004484 -8.50210931043331e-05 -0.000639455453909034 4.90370073890076e-05 -8.61663009304753e-05 0.000254332841039218 -1.82923616810951e-06 0.000246014362374573 0.000330951666658379 0.000122696996792014 0.00018440697111211 0.000386242830414445
"84" -6.90044839428701e-05 0.000994254000682458 -0.000159437367221189 -2.14530983581742e-05 0.000108421036491123 -8.43468012934798e-05 -0.000625990251771582 5.25661985445065e-05 -8.31557157037161e-05 0.000252715927384373 -1.85277307550228e-06 0.000249723979344862 0.000337316272933499 0.000111355822369916 0.000172377421288099 0.000380089009974169
"85" -5.10749208859448e-05 0.00101220527498112 -0.000153114377578105 -2.27349339137468e-05 0.000111241579886916 -8.30733290439621e-05 -0.000611389997779172 5.63826901588339e-05 -7.97350889907385e-05 0.00025065729205366 -9.53315690654313e-07 0.000253800341345244 0.000344104529558629 0.000100651269904901 0.000160632900885263 0.000373012163750134
"86" -3.23856991607798e-05 0.00102920422978509 -0.000146777996369171 -2.38235498649432e-05 0.000113772416569858 -8.12120125703325e-05 -0.000595657194281437 6.0465307106694e-05 -7.59351339559067e-05 0.000248210072213992 8.51095111882213e-07 0.00025826768711566 0.00035135395767825 9.0576053297438e-05 0.00014915545563468 0.000365003955189416
"87" -1.32497304194876e-05 0.00104502756929302 -0.000140473792667051 -2.48501480549938e-05 0.000116027335954299 -7.87740403623903e-05 -0.000578808178448577 6.47830689869545e-05 -7.17808368453546e-05 0.00024543525965867 3.53794092208543e-06 0.000263149455101966 0.000359098121258974 8.11209344417491e-05 0.000137915912042645 0.000356057102559987
"88" 6.01481788989258e-06 0.00105945697880902 -0.000134255880771408 -2.59457476402896e-05 0.000118018954427574 -7.57754742725839e-05 -0.000560863450273892 6.93071772183071e-05 -6.73021960481534e-05 0.000242397313418934 7.08727802921837e-06 0.00026846508415771 0.000367376862888046 7.22627837261846e-05 0.000126889529603472 0.000346170340356399
"89" 2.50921804923166e-05 0.00107229284036777 -0.000128177804113029 -2.72350962400005e-05 0.00011976149176473 -7.2232838727877e-05 -0.000541848617599512 7.40028857164404e-05 -6.25261553095702e-05 0.00023916297139557 1.1464519549375e-05 0.00027423419349889 0.000376219997351728 6.39749293421131e-05 0.000116043915671385 0.000335349210266315
"90" 4.36678596875355e-05 0.00108333718413166 -0.0001222968869362 -2.8842258973929e-05 0.000121266440362629 -6.81642835355384e-05 -0.000521794540490357 7.88339034502849e-05 -5.74745795615963e-05 0.000235807917834751 1.6640729071667e-05 0.000280466696398788 0.000385655818738005 5.62242600697369e-05 0.000105348283042118 0.000323604401551088
"91" 6.14332594771537e-05 0.00109241659473106 -0.000116662361961072 -3.08777976945033e-05 0.000122548845991921 -6.35929857104957e-05 -0.000500744016051775 8.3765070107391e-05 -5.2177200828725e-05 0.000232402084394726 2.25744825557405e-05 0.000287172777063946 0.000395709701901499 4.89683383991345e-05 9.47678466587673e-05 0.00031095198982338
"92" 7.80956173584849e-05 0.00109936024623301 -0.000111338372890151 -3.34492720485894e-05 0.000123626844545068 -5.85381852821216e-05 -0.000478739381573799 8.87530844845678e-05 -4.66514561083715e-05 0.00022903062578667 2.9229565305959e-05 0.000294357804968315 0.000406402456498263 4.21644244636144e-05 8.42730082002751e-05 0.000297417825490493
"93" 9.33732046061457e-05 0.00110402261733662 -0.000106376397766149 -3.66542128253738e-05 0.000124506109165848 -5.30264422196201e-05 -0.000455830802360723 9.37617001164783e-05 -4.09228659531101e-05 0.000225763423054155 3.65593337035552e-05 0.00030201853578474 0.000417750011405939 3.57597573231979e-05 7.38338255833177e-05 0.000283026474361694
"94" 0.000106997368489962 0.00110628005848757 -0.000101829991213663 -4.05802903431165e-05 0.000125206329241069 -4.70816778298412e-05 -0.000432078668094018 9.87456024345229e-05 -3.50138027043925e-05 0.000222687046564297 4.45195340768123e-05 0.000310153053850066 0.000429763972140737 2.96984692653694e-05 6.34157786426791e-05 0.000267818576232971
"95" 0.000118725004954545 0.00110602823534919 -9.77575282797479e-05 -4.52976374694887e-05 0.000125737804299728 -4.07304630062437e-05 -0.00040754363791172 0.000103667642576697 -2.89422280622105e-05 0.000219873088360009 5.30583536567244e-05 0.00031875105576643 0.00044245140441732 2.39265575467429e-05 5.29946237490434e-05 0.000251832230986221
"96" 0.000128332725478354 0.00110318213116452 -9.4203303414947e-05 -5.08721726700393e-05 0.000126114024455369 -3.40033524727162e-05 -0.000382294385088197 0.000108485765223188 -2.27307988373834e-05 0.000217401018121224 6.21245676329428e-05 0.000327798639763008 0.00045581348023499 1.83791242479582e-05 4.25440220454548e-05 0.000235112635167577
"97" 0.000135616282050545 0.00109768465322011 -9.12159314680908e-05 -5.73509772000467e-05 0.000126342232670578 -2.69239965268269e-05 -0.000356407482628859 0.000113157042886465 -1.63924292894399e-05 0.000215342865142375 7.16659247987174e-05 0.000337276129908657 0.000469847820264858 1.29952607623019e-05 3.20441263233115e-05 0.000217714396541868
"98" 0.000140408249384739 0.00108950126385394 -8.88416964610138e-05 -6.47685058651775e-05 0.000126433330587284 -1.95263498406009e-05 -0.000329959439103871 0.000117645771392772 -9.94560805915965e-06 0.000213768754637779 8.16270155421835e-05 0.000347159362448516 0.000484539940816179 7.7095554871687e-06 2.14776346198717e-05 0.000199689221852214
"99" 0.000142564788560787 0.00107862326515405 -8.71130636913036e-05 -7.31462571950671e-05 0.00012639758846081 -1.18370100168766e-05 -0.000303034329204231 0.000121914131496357 -3.41112493317454e-06 0.0002127457742092 9.1948881281582e-05 0.000357421622477298 0.00049987752332224 2.45839257858398e-06 1.08309217532628e-05 0.000181102910331281
"100" 0.000141974702918225 0.00106506936878695 -8.60681231701897e-05 -8.24900140075599e-05 0.000126244596749708 -3.88419244685206e-06 -0.000275717943028154 0.000125928489492998 3.19672374870197e-06 0.000212332779748665 0.000102579645005108 0.000368030691166988 0.000515837382223282 -2.82090525555336e-06 9.48276084158221e-08 0.000162015695539984
"101" 0.000138565486652957 0.00104888548199753 -8.57295647658189e-05 -9.27912735105265e-05 0.000125980695615803 4.30038909008593e-06 -0.000248102469219207 0.000129660085480155 9.86472515492258e-06 0.000212587850403521 0.000113461362062546 0.000378948556410388 0.000532393448966881 -8.18898351213791e-06 -1.0729580877651e-05 0.000142499265901823
"102" 0.000132288267534037 0.00103014136200689 -8.6121373897989e-05 -0.000104026775091731 0.000125616334248965 1.2688577702588e-05 -0.000220281955404864 0.000133082118741771 1.65738872570365e-05 0.000213554700002315 0.000124535010514938 0.000390135275278197 0.0005495090869361 -1.37097820408356e-05 -2.16415880333925e-05 0.000122621956156177
"103" 0.000123138278708215 0.00100893342128517 -8.72535439818509e-05 -0.000116156833339809 0.000125152306055196 2.12509072392324e-05 -0.000192352524131097 0.000136170699147359 2.33136630575772e-05 0.00021528081550103 0.00013574842128571 0.000401545075860733 0.000567149543650444 -1.94377002094487e-05 -3.2630810091758e-05 0.000102455572352837
"104" 0.000111144306616506 0.00098538381359774 -8.91356290821641e-05 -0.000129132047796554 0.000124599615155143 2.99634828636878e-05 -0.000164406527656829 0.000138910393339856 3.00670858249754e-05 0.000217798620490065 0.000147041582234538 0.000413131035472981 0.000585266724526585 -2.54245729871524e-05 -4.3681635986797e-05 8.20767869599854e-05
"105" 9.63735324209615e-05 0.000959643600148792 -9.17573627124318e-05 -0.000142886035850001 0.000123965244225154 3.87947940246819e-05 -0.000136547669874299 0.00014128827839852 3.68189815188109e-05 0.000221134012867524 0.000158360380805876 0.000424839821066906 0.000603813974665726 -3.17190194857386e-05 -5.47717369669118e-05 6.15647355489998e-05
"106" 7.89328808741154e-05 0.000931880534627695 -9.51099653902598e-05 -0.000157340059627378 0.000123252310596646 4.77234574409001e-05 -0.000108868027392908 0.000143298631148167 4.35566373364352e-05 0.000225306487582234 0.000169658909078245 0.000436620771442218 0.000622731160150467 -3.83624213542833e-05 -6.58763038368891e-05 4.0993331611439e-05
"107" 5.89601386950872e-05 0.000902292949268101 -9.91747615922948e-05 -0.000172404729284704 0.000122469796533405 5.67238556679975e-05 -8.14661058736234e-05 0.000144940927988768 5.0265731749026e-05 0.000230327298035454 0.000180883705122182 0.000448414826669181 0.000641958885202577 -4.53921655759698e-05 -7.69560548513248e-05 2.0441665726462e-05
"108" 3.66413383463774e-05 0.000871096915944646 -0.000103917122821551 -0.000187977052811547 0.000121625766767713 6.5774918548302e-05 -5.44363095168964e-05 0.00014622568514003 5.69382246571979e-05 0.000236200104827662 0.000191985758209126 0.000460164701808295 0.000661434203946563 -5.28414770195547e-05 -8.79720417009563e-05 -1.66174068215852e-08
"109" 1.21776779575283e-05 0.000838526638326951 -0.000109298578811489 -0.000203945225079143 0.000120724710094645 7.48563989730088e-05 -2.78709600849724e-05 0.000147164127176431 6.35550822779212e-05 0.00024291478938855 0.000202923587584504 0.000471808976532146 0.000681082559936906 -6.07260320682259e-05 -9.8877247233009e-05 -2.03015761287122e-05
"110" -1.41732732052898e-05 0.000804840026675988 -0.000115269221094992 -0.00022018690979876 0.000119780466367225 8.39483819719049e-05 -1.85691229074636e-06 0.000147776332727355 7.0103273196983e-05 0.000250456885430477 0.000213654977640859 0.000483287712280297 0.000700834022225453 -6.90663229255933e-05 -0.00010962311391614 -4.03366890628198e-05
"111" -4.21406677640955e-05 0.000770302012767447 -0.000121769203079911 -0.000236574129658085 0.000118799349053407 9.30343042488547e-05 2.35211164996348e-05 0.000148090380269353 7.65766288939919e-05 0.000258807708300997 0.000224139319131854 0.00049453629621067 0.000720605329317266 -7.78637226077089e-05 -0.000120146905218599 -6.00496094887147e-05
"112" -7.14079080017918e-05 0.000735195166368015 -0.000128726128289581 -0.000252969742394469 0.000117792653646859 0.000102098414960798 4.81858429813967e-05 0.000148138719260181 8.29596694896421e-05 0.000267925977253533 0.000234345897652515 0.000505491904179325 0.000740319409229556 -8.71220175332359e-05 -0.000130388750100695 -7.93680873577838e-05
"113" -0.000101646269076076 0.00069981380811335 -0.00013606374034963 -0.000269234772163893 0.000116771816561724 0.000111132090142624 7.20620569887445e-05 0.000147963800934493 8.92413742310756e-05 0.000277780479803973 0.000244242708275247 0.000516091371269835 0.00075988690890794 -9.68258514890073e-05 -0.000140286057717885 -9.82237783917389e-05
"114" -0.000132488474198306 0.000664458511593838 -0.00014369041542015 -0.000285221101585175 0.000115752860330225 0.000120119703321298 9.50865737922437e-05 0.000147609976993586 9.54135775424535e-05 0.000288315951885874 0.000253802233220246 0.000526272425898499 0.000779220005450598 -0.000106957703689713 -0.000149763646557765 -0.000116551213526928
"115" -0.000163561407243754 0.000629431153680156 -0.000151511991740608 -0.000300783514545796 0.000114748246331991 0.000129054368057199 0.000117198095560116 0.000147133432552305 0.000101462579950722 0.000299477594421001 0.000263000701992289 0.000535970156293444 0.000798229651188368 -0.000117490911117083 -0.000158748982492017 -0.000134285850547606
"116" -0.000194465264008515 0.00059503955003031 -0.000159423073356593 -0.000315774256570592 0.000113773390644612 0.000137928717681928 0.000138347886744659 0.000146587085620131 0.00010738544823516 0.000311201191099723 0.00027182079737191 0.000545124936261614 0.000816822541588559 -0.000128386786955358 -0.000167171895959501 -0.000151369739020088
"117" -0.000224784789573334 0.000561592758026629 -0.00016730802450525 -0.000330046626636843 0.000112846332138938 0.00014673747258571 0.000158491303323453 0.00014604015224547 0.000113169297331023 0.000323417920525608 0.000280244117022075 0.000553676287478746 0.000834904952018485 -0.00013960261011904 -0.000174954363915872 -0.00016774977962077
"118" -0.000254108137479183 0.000529384717558224 -0.000175051385482365 -0.000343455135900654 0.000111987685266943 0.000155478649754712 0.000177598118808442 0.000145553633865316 0.000118809290936557 0.000336050373648231 0.00028826349585792 0.000561564629095043 0.000852380082362676 -0.000151084976283552 -0.000182017948369882 -0.000183373760454784
"119" -0.000282010040879233 0.000498705702647862 -0.000182526829341433 -0.000355861261865386 0.000111213767690594 0.000164146925237489 0.000195638855965515 0.000145203002190879 0.000124297162669955 0.000349007200098599 0.000295868635450111 0.000568733436596214 0.00086915672973093 -0.000162772363152527 -0.000188291541848195 -0.000198198149306726
"120" -0.000308062825164509 0.000469840962251361 -0.000189605359570927 -0.00036712991968705 0.000110545889948602 0.000172742473476295 0.00021260147101719 0.00014505903055319 0.000129624259216296 0.000362205603641553 0.000303052156021418 0.000575131851154766 0.000885136435772604 -0.000174598675113016 -0.000193697836907368 -0.000212180056305401
"121" -0.000331852242395463 0.000443050393991272 -0.000196156185974647 -0.000377135156835911 0.000110005319399092 0.000181267487067592 0.000228478923270925 0.000145198787272404 0.000134785232772307 0.00037554558276137 0.000309815710623244 0.000580704218536994 0.000900224412126648 -0.000186489225565831 -0.000198168578351078 -0.000225287204663281
"122" -0.000352966374286143 0.0004185815911786 -0.000202045454854336 -0.000385760146254931 0.00010961365563137 0.000189720112453044 0.000243269925775924 0.000145698829861527 0.000139772916565185 0.000388931014873291 0.000316161678623882 0.000585407928497325 0.000914332499975879 -0.000198365889697928 -0.000201636512399096 -0.000237489112213934
"123" -0.000371004921553849 0.000396664785065655 -0.000207133398717047 -0.000392896756495073 0.000109387935851477 0.000198106824222678 0.000256988342114228 0.000146634463702946 0.000144583343065999 0.000402255277540429 0.000322091765954755 0.00058919504714837 0.000927363524434658 -0.000210141901711265 -0.000204034547790179 -0.000248761583912631
"124" -0.000385587065651256 0.000377501552567056 -0.0002112898541423 -0.000398449591234181 0.000109356071060262 0.000206424469844088 0.000269655585652884 0.000148083709011433 0.000149205199710205 0.000415410379155514 0.000327610358055554 0.000592026700750712 0.000939230285956548 -0.000221730721926814 -0.000205304465384875 -0.000259086473516424
"125" -0.000396360241662182 0.000361266406509193 -0.000214383667335357 -0.000402336976215101 0.000109529830018046 0.000214681312246311 0.000281295293560292 0.000150120330593677 0.000153633240743372 0.000428285417026718 0.000332728358122508 0.000593866953220118 0.000949849042438691 -0.000233038167114961 -0.000205399351017082 -0.00026845108201844
"126" -0.00040298084699638 0.0003481103538465 -0.000216288632884127 -0.000404491665892631 0.000109932045710313 0.000222876713734453 0.000291946755967062 0.000152814046971816 0.000157860304839459 0.000440771203599038 0.000337456187350353 0.000594684649691928 0.000959136442152808 -0.000243973420561732 -0.000204271810790696 -0.000276847695904335
"127" -0.000405147149653041 0.000338151436249192 -0.000216875559384802 -0.000404861161723322 0.000110580145639923 0.000231013643604227 0.000301647913914979 0.000156236691201327 0.000161869217194127 0.000452747684895297 0.000341800393229157 0.00059444990164669 0.000967016106891555 -0.000254438475015755 -0.00020188940015511 -0.000284275708910542
"128" -0.000402589686807666 0.000331476053601607 -0.000216037025419445 -0.000403408846626841 0.000111492732856609 0.000239097090774774 0.000310449524894105 0.000160449103251511 0.000165654306778889 0.000464106181264536 0.000345776661319762 0.000593143996902127 0.000973414863628267 -0.000264338347438774 -0.000198218506456438 -0.000290739720419624
"129" -0.000395062977740044 0.000328134786715662 -0.000213660921104714 -0.000400117494827615 0.000112679719347778 0.000247125740668138 0.000318403798379268 0.000165509767531596 0.000169199847986628 0.000474729030333125 0.000349394065177724 0.00059074909972459 0.000978264182058917 -0.000273578264176711 -0.000193244523597181 -0.000296250509509596
"130" -0.000382375126540703 0.000328147827888918 -0.000209649497981936 -0.000394983580655805 0.000114156348519351 0.000255104037625511 0.000325569707567106 0.000171472028558551 0.000172490122056313 0.000484504090426543 0.000352666928826299 0.000587251128217872 0.000981502435834566 -0.000282063601433646 -0.000186958672414056 -0.000300822635041786
"131" -0.000364357334167752 0.000331500856271045 -0.00020391885464118 -0.000388025984733117 0.000115929915135491 0.000263030480404531 0.000332006673087053 0.000178379570858633 0.000175511107141821 0.000493321549976864 0.000355607229541907 0.000582647509535676 0.000983074567953454 -0.000289703341026319 -0.000179368057343799 -0.000304478494150384
"132" -0.000340889978895005 0.000338140872926055 -0.000196395755673353 -0.000379277601098324 0.000118007562754986 0.000270905145055541 0.000337780227831771 0.000186269988372588 0.000178239772816067 0.000501070743510763 0.000358223096967233 0.000576934059101565 0.000982934052389226 -0.000296413459455665 -0.000170479469610898 -0.000307241963040995
"133" -0.000311899735310834 0.00034798399574537 -0.000187014823076076 -0.000368794626859876 0.000120391386959518 0.000278726097209354 0.000342951501948758 0.000195173857439328 0.000180655240215801 0.000507650497971083 0.000360526562952967 0.000570115977551958 0.000981035787781985 -0.000302106735309485 -0.000160320289985807 -0.000309142388076859
"134" -0.000277351457376046 0.000360909136994363 -0.000175733385934269 -0.000356644099115472 0.000123081772620258 0.000286489803580263 0.000347590562422054 0.000205109160449442 0.000182733656128141 0.000512959368753405 0.000362527651048585 0.00056220349219967 0.000977350265449997 -0.000306707589749532 -0.000148930027144905 -0.000310215982719133
"135" -0.000237255728320687 0.000376760661731856 -0.000162520002409194 -0.000342916536063808 0.000126076284898005 0.000294192719017811 0.000351760373305215 0.000216084866590979 0.000184444003430418 0.000516903278034099 0.000364229993412201 0.000553212102955263 0.000971847724846393 -0.000310143943301439 -0.000136347550151091 -0.000310499175561617
"136" -0.000191664121488921 0.000395358150476538 -0.000147357315947286 -0.000327717274265994 0.000129370648606112 0.000301826773158452 0.000355524499317856 0.0002281033946186 0.000185761408564772 0.000519396007327181 0.000365641916660466 0.000543160721297056 0.000964511565375902 -0.000312353758040189 -0.000122641287472296 -0.000310032331746278
"137" -0.000140678005018555 0.00041648546550816 -0.000130247509500561 -0.000311166148949423 0.000132951974091477 0.000309384887226945 0.000358945815122962 0.000241153131430311 0.000186652959626824 0.000520356159094965 0.000366767930624251 0.000532077101568487 0.000955331356126727 -0.000313276270418135 -0.000107872494305622 -0.000308859580924975
"138" -8.44398752689394e-05 0.000439899045611611 -0.000111212744983511 -0.000293398742389229 0.000136804913846504 0.000316857442508639 0.000362081334775137 0.000255213930719475 0.000187091194654377 0.000519715124645618 0.000367610981935145 0.000519990839801172 0.000944302680750656 -0.000312864358427478 -9.21279371232342e-05 -0.000307029747623857
"139" -2.31338853772085e-05 0.000465328372058129 -9.02807527370018e-05 -0.000274565640735511 0.000140918500947599 0.000324234472671195 0.000364989152022265 0.000270252570227019 0.000187037228999835 0.000517408658012027 0.000368168105754481 0.000506935517142425 0.000931436273994696 -0.000311078449569167 -7.54944210820698e-05 -0.000304590979473835
"140" 4.30142484630129e-05 0.000492487464718129 -6.75060178088908e-05 -0.000254825899417317 0.000145265562353154 0.000331501166826546 0.000367715244392303 0.000286225504881014 0.000186456999426559 0.00051338467315517 0.000368439650706112 0.000492952178338636 0.000916742392482836 -0.000307888126134041 -5.80718043362324e-05 -0.000301591703588846
"141" 0.000113740992192371 0.000521064977859598 -4.29541348892154e-05 -0.000234352859875916 0.000149829899335306 0.000338642422958106 0.000370306645573002 0.000303080679606405 0.000185320197695246 0.000507607058626827 0.000368420276821049 0.000478083301779446 0.000900244385712084 -0.000303271844989498 -3.99695649115968e-05 -0.000298085193247006
"142" 0.000188742094138614 0.000550733685674468 -1.671222787551e-05 -0.000213325749737923 0.000154583459324483 0.000345644552172736 0.000372806086933701 0.000320753449337963 0.000183589044859747 0.000500040237985976 0.000368102536564458 0.000462376277999587 0.000881972049478358 -0.000297218094248217 -2.13098907621439e-05 -0.000294120445758442
"143" 0.000267680545274888 0.000581150234445393 1.11247089540176e-05 -0.000191934411672044 0.000159497089773547 0.000352485626511371 0.000375242952366148 0.000339166823231872 0.000181237728987787 0.000490671570512092 0.000367481016734883 0.000445879878968238 0.000861962477462494 -0.000289727162585062 -2.21183313923974e-06 -0.000289753610181191
"144" 0.000350183504879153 0.000611968627002103 4.04426427067789e-05 -0.000170369634009343 0.000164540423957276 0.000359147836747311 0.000377651600369338 0.000358235903186829 0.000178230012015721 0.000479491915818302 0.000366541209662297 0.000428648159177506 0.000840260807532195 -0.000280807421542707 1.71907132811376e-05 -0.000285032181699686
"145" 0.000435855060918954 0.000642828783073083 7.11121502988885e-05 -0.000148826914474252 0.000169683027097342 0.000365608953337556 0.000380050523432224 0.000377864982415992 0.000174542935335023 0.000466515133001955 0.000365274899750782 0.000410737168953675 0.000816919887020036 -0.000270480872385581 3.67588221100106e-05 -0.000280012228522282
"146" 0.000524263688326143 0.000673376906131518 0.000103000614258414 -0.000127502508425678 0.000174887211326163 0.000371846540408946 0.000382457754993792 0.000397950277287865 0.000170146466368584 0.000451755310189143 0.000363662462120954 0.000392203199213836 0.000791995868044285 -0.000258777480857898 5.63559881021178e-05 -0.000274740514119168
"147" 0.000614956555513462 0.000703249662397987 0.000135953855988652 -0.000106591621814416 0.000180123473840885 0.00037783416682773 0.00038488629617825 0.000418381559405166 0.00016502337643151 0.000435256947232926 0.000361691538830987 0.000373106264491486 0.00076555493132221 -0.000245736755226043 7.58317199017622e-05 -0.000269270889766925
"148" 0.000707464300972148 0.000732101160575347 0.000169816180015492 -8.62867751075139e-05 0.000185351529958446 0.000383547270869302 0.000387334758768452 0.000439035514657666 0.00015915861478341 0.000417060808322601 0.000359343927868518 0.000353506505619543 0.000737668289790989 -0.000231412208251557 9.50440021520241e-05 -0.000263648267412417
"149" 0.000801297002418485 0.000759585921712632 0.000204418988477587 -6.67752532593882e-05 0.000190539591972292 0.000388961047804061 0.000389811585768686 0.000459788797237278 0.000152538474199638 0.000397228246132214 0.000356598751505152 0.00033346347547473 0.000708413795009461 -0.000215864756412852 0.000113842313583672 -0.000257922331469559
"150" 0.000895954148652154 0.000785371413068445 0.000239587863997723 -4.82374173922189e-05 0.000195648366924398 0.000394046910806024 0.000392301166150347 0.000480507744633609 0.000145165231665538 0.00037583975223048 0.000353441630060238 0.000313043187961581 0.000677871309121985 -0.000199167628628163 0.000132081459057168 -0.000252137486192888
"151" 0.000990921452811441 0.000809146221744264 0.000275151690900375 -3.08425696614622e-05 0.00020064681230288 0.000398774786311379 0.000394803265808361 0.000501061354043713 0.000137032423577824 0.000352978791030407 0.000349844124857366 0.000292304654712917 0.000646125420868639 -0.000181397001628779 0.000149619298855598 -0.000246336388848215
"152" 0.00108568407040737 0.000830612383913886 0.000310923831016884 -1.47522730650807e-05 0.000205496737375316 0.000403120087438593 0.00039729878340295 0.000521308114293091 0.000128156347492311 0.000328743064943686 0.000345792815941069 0.000271310250463526 0.000613271905833527 -0.000162647178114147 0.000166309375653075 -0.000240563475901685
"153" 0.00117972354716423 0.000849499251092069 0.000346729567056691 -1.13580742998787e-07 0.000210168748205765 0.000407052856095063 0.000399768847027422 0.000541111643753976 0.000118551574808289 0.000303248333199 0.000341262004927316 0.000250120018773718 0.000579400357983794 -0.000143014507885903 0.000182014887220554 -0.000234858905166746
"154" 0.00127252824238411 0.000865555361639157 0.000382382148019802 1.29414444634027e-05 0.000214634535764145 0.000410544828792365 0.000402196632139882 0.000560330677336174 0.000108243676545716 0.000276614272413635 0.000336231425993018 0.000228796516046142 0.000544612554862039 -0.000122602621391743 0.00019660657008208 -0.00022926124696806
"155" 0.00136359332614142 0.000878566866194878 0.000417711957493235 2.42928617629209e-05 0.000218865234647437 0.000413569184383823 0.000404560281313023 0.000578831087410159 9.72618716460876e-05 0.000248977794314904 0.000330679774220156 0.000207397981590757 0.00050900794924995 -0.00010152781842959 0.000209956684610527 -0.000223806603984634
"156" 0.00145242474847568 0.000888343493099923 0.000452542597906298 3.38398660622409e-05 0.000222838005212379 0.000416100565494769 0.000406831464825397 0.000596475154512247 8.56497557187855e-05 0.00022047509585333 0.000324592101835149 0.00018598607044987 0.000472691292740629 -7.9908149472243e-05 0.000221947818654296 -0.000218529382209247
"157" 0.00153854987424628 0.000894734620087071 0.000486708709593089 4.14986601766983e-05 0.000226528880222269 0.000418111653281184 0.000408989111797205 0.000613138955403394 7.34606202419825e-05 0.000191262911054013 0.000317947096958365 0.00016461201366 0.000435766842487811 -5.7866631559102e-05 0.000232472338286685 -0.00021346649764507
"158" 0.0016215142417551 0.00089761717089199 0.000520053792222402 4.720564424176e-05 0.000229922762793321 0.000419582227600032 0.00041100764705482 0.000628695163548902 6.0746656145799e-05 0.000161498821107887 0.000310731840705555 0.000143335521727414 0.000398345456646496 -3.55355600274793e-05 0.000241433787594231 -0.000208647910843914
"159" 0.00170089132185382 0.000896909736071714 0.000552428498057563 5.09118660793157e-05 0.000233008361176732 0.000420487267404937 0.000412861872004303 0.000643031698329604 4.75810148655823e-05 0.000131353307981788 0.000302928541742317 0.000122207764745992 0.000360533628880161 -1.30451454623794e-05 0.000248741348063914 -0.000204105453695119
"160" 0.00177628876404296 0.000892568705021974 0.000583697685288849 5.25925610307631e-05 0.000235778149255547 0.000420808752945121 0.000414529735466702 0.000656042923660383 3.40338254517818e-05 0.000100987092805976 0.00029452758279838 0.00010128327278726 0.00032244344464539 9.46672849233073e-06 0.000254320890363609 -0.000199866774974534
"161" 0.00184734252468323 0.000884588213022598 0.000613737792848116 5.22413989903957e-05 0.000238225515564662 0.00042052943046786 0.000415992881782041 0.000667635740116625 2.0188682096265e-05 7.05868643619993e-05 0.000285521423295291 8.06088989202182e-05 0.000284184447532016 3.18659891309108e-05 0.000258112369288534 -0.000195958910655948
"162" 0.00191373622509523 0.000873002713883565 0.000642438371203456 4.98713485674081e-05 0.000240354958665528 0.000419637353201933 0.000417231100095887 0.000677728650899406 6.13665961989015e-06 4.03257989507169e-05 0.000275903279287881 6.02348755949253e-05 0.000245865463584317 5.40153902739614e-05 0.000260064170676981 -0.00019240890410675
"163" 0.0019751887881012 0.000857886931314319 0.000669706859136156 4.55180855258903e-05 0.000242171210358678 0.000418119083063015 0.000418230635895674 0.000686248122805568 -8.02601706875582e-06 1.03864664836886e-05 0.000265675345481647 4.020445607188e-05 0.000207599207551644 7.57752336452853e-05 0.000260144275971076 -0.000189238672390336
"164" 0.00203146965288454 0.000839352774968662 0.000695464474825356 3.92308265863921e-05 0.000243687095607709 0.000415966942473656 0.000418981458733318 0.000693141564957453 -2.21961592400396e-05 -1.90467312534043e-05 0.000254834732078337 2.05623429137797e-05 0.000169494787307293 9.70145110332246e-05 0.00025832971743825 -0.000186471870047563
"165" 0.00208239603750681 0.000817547711788008 0.000719648259725948 3.1084079850231e-05 0.000244919201289868 0.000413177808071042 0.00041947663215571 0.000698372594441463 -3.62645018798573e-05 -4.77936057982058e-05 0.000243393258709356 1.34813639091513e-06 0.000131658637875664 0.000117599946352614 0.000254612037642667 -0.000184129146553929
"166" 0.00212783719117922 0.000792664267308404 0.000742211549224993 2.11653000524675e-05 0.000245894366761102 0.00040975071120799 0.000419714984555968 0.000701911061942891 -5.01199266063475e-05 -7.56767587339996e-05 0.000231360591559792 -1.73997525081868e-05 9.41978138684362e-05 0.000137403600897013 0.000249005736065725 -0.000182228887550141
"167" 0.00216770784728483 0.000764920631783172 0.000763134911827635 9.5828340017374e-06 0.000246634094127087 0.000405689233067053 0.000419697646692143 0.000703752422297243 -6.36426708443246e-05 -0.00010251617521363 0.000218749468113046 -3.56457101726303e-05 5.72165324083282e-05 0.000156303612843559 0.000241531156197405 -0.000180787149842941
"168" 0.00220199158169485 0.000734578741561602 0.000782402548344486 -3.54067962008446e-06 0.000247176015476385 0.000401000644029908 0.000419436962388876 0.000703905467994001 -7.67144780587621e-05 -0.000128140171894092 0.000205586820168701 -5.33550804219692e-05 2.08167700953928e-05 0.00017418609489686 0.000232226660584799 -0.000179816804855646
"169" 0.00223071732047379 0.000701924682200642 0.000800025793326575 -1.80683860383461e-05 0.000247551880756059 0.000395696483947007 0.000418941452470967 0.000702393674289046 -8.92136807025813e-05 -0.000152383876972533 0.000191896245957168 -7.04994046730867e-05 -1.49043872632994e-05 0.000190940065288016 0.000221144886602245 -0.000179334751169938
"170" 0.00225396654032771 0.000667272461006562 0.000816029633285952 -3.38472734164748e-05 0.000247811543273865 0.000389791870442688 0.000418231946652653 0.000699258265140719 -0.000101017042755326 -0.000175087629208626 0.000177708000261091 -8.70512314026702e-05 -4.98487206986839e-05 0.000206465655565648 0.000208352475895833 -0.000179342995422871
"171" 0.00227188127104655 0.000630964893455023 0.00083045593037913 -5.07172231218771e-05 0.000247991441128684 0.000383305326840781 0.000417331725212268 0.000694557904970207 -0.000112002395779672 -0.000196097426726069 0.0001630588087796 -0.000102984105191841 -8.39270662011993e-05 0.000220675071922483 0.000193930251391368 -0.000179851094299003
"172" 0.00228465280783709 0.000593366161045708 0.000843368489511871 -6.85008127824399e-05 0.000248145112328947 0.000376260272111755 0.000416270336420027 0.000688361647977459 -0.000122054521348238 -0.000215277563425064 0.000147985687713358 -0.000118277412238862 -0.000117053213538555 0.000233485704217778 0.000177971568387822 -0.000180861957028691
"173" 0.00229252166191509 0.000554853288099483 0.000854832876040784 -8.70202132301889e-05 0.000248322994449692 0.000368685769895491 0.00041508088562005 0.000680760495421714 -0.000131048571367187 -0.00023249083863832 0.000132542391586859 -0.000132911818937765 -0.000149144251526881 0.000244828928826242 0.00016057853983613 -0.000182376108644449
"174" 0.00229577637085537 0.000515823696558206 0.000864941173888508 -0.000106084393040399 0.000248577884061533 0.000360611575920618 0.000413801169971312 0.000671850772839883 -0.000138877519287193 -0.000247623677321267 0.000116774062651558 -0.000146872490573132 -0.00018012087665986 0.000254646987030352 0.000141871096274277 -0.000184390410013557
"175" 0.00229474715135957 0.000476682317563049 0.000873788128822575 -0.000125498433231717 0.000248965988815943 0.000352071094574909 0.000412472750819096 0.000661748466454974 -0.000145430464749133 -0.000260570189365456 0.000100736253143703 -0.000160144034390975 -0.000209915862697879 0.000262892503606197 0.000121969991952033 -0.000186898463311461
"176" 0.00228980879529708 0.000437842306541385 0.000881493345865616 -0.000145068733905171 0.00024954245526165 0.000343103393926673 0.000411139852665775 0.000650575825978269 -0.000150609162183844 -0.000271235385571596 8.44883688180107e-05 -0.000172718106211112 -0.000238457552966255 0.000269532005861611 0.000101015278488075 -0.000189889279002904
"177" 0.00228136561809762 0.000399709397157769 0.000888168848474484 -0.000164594846541677 0.000250366380052068 0.000333747810762934 0.000409848644982607 0.000638469160513133 -0.000154318619237847 -0.000279549346800268 6.80926287132152e-05 -0.000184588842953271 -0.000265691300181979 0.000274545626317048 7.91462122533326e-05 -0.000193348296472386
"178" 0.00226985362384751 0.000362700401012138 0.000893947017230536 -0.00018387924161882 0.000251488572741478 0.000324050007520099 0.00040864754724891 0.000625568223209631 -0.00015647497300169 -0.000285447236417977 5.16147970344822e-05 -0.000195754059777546 -0.000291562213842963 0.000277925329270181 5.65114703869222e-05 -0.00019726107901999
"179" 0.00225573486675641 0.000327211325785032 0.00089895979187104 -0.000202727058236385 0.000252962709205057 0.000314053224472514 0.000407589752153863 0.000612022425111656 -0.000157002948806589 -0.000288886367380457 3.51237115507649e-05 -0.000206211037314992 -0.000316024055626556 0.000279675289137755 3.32656074815535e-05 -0.000201603659732331
"180" 0.00223948519772313 0.000293633478831638 0.000903348206793919 -0.000220948010329234 0.000254841499814719 0.000303805075509459 0.000406724275491188 0.000597986317337088 -0.000155839720421442 -0.000289841352364302 1.86905406079761e-05 -0.000215963717677105 -0.000339037819590997 0.000279812774418083 9.56707999232345e-06 -0.000206352144950026
"181" 0.00222159864466138 0.000262339195065943 0.000907246226713691 -0.00023835670790779 0.000257170101874521 0.000293357713520191 0.00040610084875138 0.000583613277211939 -0.000152935931381795 -0.000288307799411271 2.38761890771167e-06 -0.000225018751023691 -0.000360569877228856 0.000278366393397187 -1.44241025328839e-05 -0.000211479616234274
"182" 0.0022025726487858 0.000233686156904348 0.000910801264247993 -0.000254777113820592 0.000259993185495758 0.00028275948019136 0.000405768792049664 0.000569061901534584 -0.000148256908755323 -0.000284294270612664 -1.37144409602186e-05 -0.000233384970260719 -0.000380597512891678 0.000275378636029129 -3.85481371786643e-05 -0.00021694958570533
"183" 0.00218289914471247 0.000207994474697272 0.000914148074627802 -0.000270042161104261 0.000263350747685292 0.000272060839091497 0.000405774828352266 0.000554491775385459 -0.000141774437840241 -0.000277833207376621 -2.95409044993493e-05 -0.000241075412586137 -0.000399103897234093 0.000270904961835836 -6.26434541320557e-05 -0.000222729211752047
"184" 0.00216307835881984 0.000185574564123289 0.000917424595436293 -0.000283992846151284 0.000267274383840031 0.00026131544168607 0.000406164098700082 0.000540056756351137 -0.000133478439504835 -0.000268969732194332 -4.50196310170791e-05 -0.000248106715796878 -0.000416079440350345 0.000265006346973105 -8.6550963582437e-05 -0.000228780102232168
"185" 0.00214358919444563 0.000166688881162521 0.000920761722748685 -0.000296487310130725 0.000271789309003671 0.000250574385568932 0.000406976744039504 0.00052590605928674 -0.000123380344299324 -0.000257776626158361 -6.00789230459766e-05 -0.000254496649793251 -0.000431522535522156 0.000257760534381461 -0.000110115065531945 -0.000235058561973359
"186" 0.00212489662059229 0.000151580678636504 0.000924281908884647 -0.000307392140269063 0.000276918594496271 0.000239888383200026 0.000408248484670089 0.000512187135305166 -0.000111495791438117 -0.000244335940657811 -7.46500390831225e-05 -0.00026026699640156 -0.000445441576581129 0.000249248547118939 -0.000133185019902445 -0.000241518948747719
"187" 0.0021074431362553 0.000140444815004054 0.00092810113676856 -0.000316591236664159 0.000282673587877363 0.000229309494431782 0.000410012543033809 0.000499040894092293 -9.78650589510427e-05 -0.000228754796740271 -8.8661266439743e-05 -0.000265442957738268 -0.000457847660005181 0.000239564257835265 -0.000155615276297004 -0.000248115687678066
"188" 0.00209164682893164 0.000133444183417264 0.000932324248144632 -0.000323984187878865 0.000289059080185153 0.000218886408065095 0.000412291810021161 0.00048659616559755 -8.25367303553463e-05 -0.000211153462424472 -0.00010205511901837 -0.000270050884441455 -0.000468764235397354 0.000228804162241014 -0.000177269329517722 -0.000254798551174399
"189" 0.00207789862257515 0.000130701657452877 0.000937049654789223 -0.000329486762013621 0.000296070247394628 0.000208666649011484 0.00041511129835985 0.000474973543428477 -6.55800874709211e-05 -0.000191671226799913 -0.000114767150347268 -0.000274120056937467 -0.000478219101638158 0.000217077837014762 -0.000198013808441645 -0.000261515609760231
"190" 0.00206654997109787 0.000132298468649508 0.000942355206683289 -0.000333028188647644 0.000303698021301548 0.000198696029291412 0.000418477140724401 0.000464282755312051 -4.70751486414043e-05 -0.000170461288437422 -0.000126742683208212 -0.000277684897654366 -0.00048625504078416 0.000204494530217666 -0.000217729523477277 -0.000268214538034656
"191" 0.00205791696254027 0.00013827236576009 0.000948318216629135 -0.000334556726259462 0.000311925286424676 0.000189018822437871 0.000422403890470536 0.000454625969831434 -2.71220698627629e-05 -0.000147693561418155 -0.000137929905077112 -0.000280778496191989 -0.000492910503734049 0.000191169017928987 -0.000236307350373378 -0.000274842279120265
"192" 0.00205227593954708 0.000148618304098984 0.000954990947518253 -0.000334040605102458 0.000320723047766505 0.000179675594084876 0.000426884739678358 0.000446086382243436 -5.83357307560361e-06 -0.000123547070112111 -0.000148284646445547 -0.000283438394995509 -0.00049823739796306 0.000177219480240629 -0.000253642495035824 -0.000281342704680965
"193" 0.00204986454749508 0.000163291777126999 0.000962415907091999 -0.000331464465292539 0.000330055338721564 0.000170707906705337 0.000431915676491615 0.000438738782218929 1.66758488774769e-05 -9.82136008738707e-05 -0.000157765282950267 -0.000285702108819474 -0.00050229493409962 0.00016276940004461 -0.000269647086839056 -0.000287664220979651
"194" 0.00205087340254574 0.000182206499313366 0.000970619471929817 -0.000326825411746666 0.000339883224618182 0.000162147547732494 0.000437482309114243 0.000432640020686717 4.02588551469433e-05 -7.19023585644664e-05 -0.000166340619555553 -0.000287611083099902 -0.000505145724795466 0.000147936281674601 -0.000284247137685743 -0.000293746783625223
"195" 0.0020554498635032 0.000205233379337463 0.000979619030654447 -0.000320143428396613 0.000350152770107632 0.000154029549049731 0.000443561934331807 0.000427838199215677 6.47752605736802e-05 -4.48140692691387e-05 -0.000173980727068757 -0.000289206674091864 -0.000506861310380861 0.000132842505628799 -0.000297375585564222 -0.000299542289898291
"196" 0.00206370166510647 0.000232208931991327 0.000989411115320071 -0.000311452048875698 0.000360814138653651 0.000146385369365892 0.000450128900246697 0.000424361447564201 9.00669647491096e-05 -1.7164822924905e-05 -0.000180668156527547 -0.000290530267462203 -0.00050751104393619 0.000117606265118949 -0.000308979713543809 -0.000304996916119422
"197" 0.00207568627224176 0.000262931807130245 0.000999976849617728 -0.00030080202071915 0.000371802867812243 0.00013923788371356 0.000457144184392868 0.000422228052285479 0.000115966243553541 1.08212531973051e-05 -0.000186386496302103 -0.000291629493967983 -0.000507176913475235 0.00010234640039171 -0.000319024645569149 -0.000310057531053658
"198" 0.00209142058692992 0.000297164252721974 0.00101129469725258 -0.000288259018142649 0.00038305482217529 0.00013261426825582 0.000464569915686034 0.000421441527642034 0.000142307157453204 3.8928726129696e-05 -0.000191128407769936 -0.000292545606174391 -0.000505943713056418 8.71746843078301e-05 -0.000327479392861969 -0.000314679391307171
"199" 0.00211087995430391 0.000334637349856408 0.00102331460345688 -0.000273900088335738 0.000394500698238652 0.000126531690335378 0.000472362974428383 0.000421989362870107 0.000168905792667226 6.69388566654381e-05 -0.000194896236920689 -0.000293327012186288 -0.000503892470711468 7.22034417176071e-05 -0.000334334040761181 -0.000318810282924316
"200" 0.00213399782141617 0.000375056289730179 0.00103598635456474 -0.000257821116819874 0.000406069701086308 0.000121009633932681 0.000480469694237573 0.000423845913182359 0.000195587903872463 9.46312541566164e-05 -0.000197695070805565 -0.000294019104820581 -0.000501116136876059 5.75343075272569e-05 -0.000339587479404128 -0.000322410915222415
"201" 0.00216066844288986 0.000418096629024335 0.00104924040266354 -0.000240122783234713 0.000417684805108462 0.000116061014958466 0.000488839133157095 0.000426977378530104 0.000222167340872804 0.000121799718206389 -0.000199540581898001 -0.000294666330427435 -0.000497703164811604 4.32669058848957e-05 -0.000343254154485232 -0.000325439992398025
"202" 0.00219075260942727 0.00046341860038136 0.00106300762826113 -0.000220921768810658 0.000429272559707548 0.000111694302829129 0.000497414532064536 0.000431333985137494 0.000248460064197754 0.000148236551910787 -0.000200449400738456 -0.000295315503633457 -0.00049374620800298 2.94921504379408e-05 -0.000345353240945599 -0.000327856783137863
"203" 0.0022240790375556 0.000510656897771453 0.00107720203128309 -0.000200342630139001 0.000440762645196787 0.000107918109653465 0.000506135378618962 0.000436855121226591 0.0002742869894686 0.000173749451271681 -0.00020045055300326 -0.000296014673650846 -0.000489335615695304 1.62991398695256e-05 -0.000345922180649707 -0.000329627073367934
"204" 0.00226043495344534 0.000559432391277123 0.00109172785479968 -0.000178518740887429 0.000452080939020849 0.000104739444312397 0.000514942485504768 0.000443472768035993 0.000299473675183299 0.000198157957712425 -0.000199576905171879 -0.000296806108329277 -0.00048456358665678 3.75992359432992e-06 -0.000345005096482743 -0.000330726942713139
"205" 0.00229959348330231 0.000609360330838821 0.00110649393622044 -0.000155586812085968 0.000463154181932084 0.000102156674388518 0.00052377757822181 0.00045110646682655 0.000323843029844271 0.000221291136976698 -0.000197864604174192 -0.000297734334817513 -0.000479521386884041 -8.05323069609959e-06 -0.000342661310906378 -0.00033112693622173
"206" 0.00234130008939267 0.000660045810589165 0.00112140287611049 -0.000131691437610582 0.000473924988736081 0.000100171500186755 0.000532585291566419 0.000459672928220886 0.00034723360893843 0.000242994954943077 -0.000195357963496041 -0.000298842702391551 -0.000474295864210213 -1.90815857454565e-05 -0.000338953248251805 -0.00033080593470451
"207" 0.0023852710884867 0.000711087182423939 0.00113634979647187 -0.00010698113940697 0.000484327113538806 9.87802510653762e-05 0.000541306947429578 0.000469078477557813 0.000369484904288652 0.0002631333336466 -0.000192107807337092 -0.000300172350059363 -0.000468973083920518 -2.92728270507942e-05 -0.000333957132742792 -0.000329749339076456
"208" 0.00243121661835296 0.000762090826416935 0.0011512311240908 -8.16040511757803e-05 0.000494305422807463 9.79770495006659e-05 0.000549890608172771 0.000479227030453778 0.00039045505184775 0.000281585422822648 -0.000188160594293463 -0.000301765233708743 -0.000463634009128024 -3.85837767714121e-05 -0.000327754023262137 -0.000327949144550666
"209" 0.00247882751208882 0.000812667167212708 0.00116594926396572 -5.57097715208016e-05 0.000503820140085674 9.77563078804823e-05 0.000558293621120181 0.000490018728027147 0.000410005862431625 0.000298249815323387 -0.000183579137271509 -0.000303659084871697 -0.000458358161335101 -4.69819493216087e-05 -0.000320427962999119 -0.000325395579868288
"210" 0.00252778875404812 0.000862431053253362 0.00118040841321597 -2.94474416843896e-05 0.000512826739729734 9.81080224677188e-05 0.000566470878297903 0.000501349553234136 0.00042801784160357 0.000313049328787992 -0.000178418202072195 -0.000305887407365331 -0.000453215422053676 -5.44446169575221e-05 -0.00031207886482378 -0.000322093274098256
"211" 0.00257777399076188 0.000911013170682625 0.00119451642254686 -2.96328976835938e-06 0.000521291885410043 9.90212369793533e-05 0.000574388543084702 0.000513120652806173 0.000444388331100732 0.000325924859298379 -0.000172744313684112 -0.000308487684150654 -0.000448275069339609 -6.09562056961345e-05 -0.000302800350470849 -0.000318048512600698
"212" 0.00262845822396891 0.000958057578028929 0.00120818905413544 2.35992580522216e-05 0.000529202043904123 0.000100483352870545 0.000582022859278613 0.000525224090478101 0.000459016998461507 0.000336831829058716 -0.000166623433124975 -0.000311488906486493 -0.000443597304257322 -6.6511281191288e-05 -0.000292698872009079 -0.000313268826547757
"213" 0.00267951405981938 0.00100322852044335 0.0012213487239388 5.01007110672727e-05 0.000536541912082842 0.00010248124240168 0.000589350661715842 0.000537566738577605 0.000471837568548462 0.000345762833387337 -0.000160121427882652 -0.000314920722438062 -0.000439234855535892 -7.11164217798889e-05 -0.000281873100097662 -0.000307778778888902
"214" 0.00273062784733807 0.00104622193717187 0.00123392887442955 7.64120874636855e-05 0.00054330856669223 0.000105000351796551 0.000596366948831697 0.000550048838823234 0.000482792024317999 0.000352717199938585 -0.000153306901050688 -0.000318809385261729 -0.000435236417715488 -7.47820704684956e-05 -0.000270435018757637 -0.000301597988638394
"215" 0.00278148154866859 0.00108674306712348 0.00124587835546793 0.000102407793193111 0.00054951445166177 0.000108026976895822 0.000603069690462151 0.000562579999583219 0.000491837960028191 0.000357728947009223 -0.000146248702562536 -0.00032317373138841 -0.00043163905705191 -7.75326269635021e-05 -0.000258492175632026 -0.000294760921758015
"216" 0.00283177790806965 0.00112453787045781 0.00125714816292035 0.000127970434109409 0.000555174384843836 0.000111540459267492 0.000609473031396259 0.000575076290666399 0.000498959339125339 0.000360837930585684 -0.00013901872886531 -0.000328038035802202 -0.00042847748879941 -7.93971427209063e-05 -0.000246146729712738 -0.000287303312623394
"217" 0.00288122690417348 0.00115937816841584 0.00126771129960887 0.000152993170078794 0.000560317960692481 0.000115526186338987 0.000615596120692039 0.000587458519849763 0.000504156165239213 0.000362121493549201 -0.000131685340596635 -0.000333415127080036 -0.000425774961925916 -8.04143676304427e-05 -0.000233507806710578 -0.000279269257084619
"218" 0.0029295624558516 0.00119106910004663 0.0012775502205939 0.000177379172153986 0.000564986878700777 0.000119965949361896 0.000621471016983142 0.000599658819775202 0.000507443977210406 0.000361663906932933 -0.00012431765828922 -0.000339316038909426 -0.000423543432369886 -8.06284249757519e-05 -0.000220677312829217 -0.000270703708041402
"219" 0.00297653315386458 0.00121944928847155 0.00128666375838649 0.000201040378228845 0.000569227502239691 0.000124841306765227 0.00062714592746997 0.000611616340077491 0.00050886499886218 0.000359575490802182 -0.000116981591393446 -0.000345750314550758 -0.000421796397012486 -8.00960763273776e-05 -0.000207759597692308 -0.000261668054226166
"220" 0.00302191174859399 0.00124439442939234 0.00129506724488653 0.000223901337760369 0.000573103159011467 0.000130134250627797 0.000632668937911089 0.000623279812400232 0.000508474531779141 0.0003559818914356 -0.000109745380499265 -0.000352724671989954 -0.000420528800963104 -7.88729763289418e-05 -0.000194847080212685 -0.000252219582877788
"221" 0.00306548943740495 0.00126581143113088 0.00130278222033574 0.00024589743066978 0.000576676022489654 0.000135822470811796 0.000638108623788205 0.000634609559031873 0.000506350739980093 0.000351027783245425 -0.000102668905272175 -0.000360236398951784 -0.000419735585002107 -7.70253504857656e-05 -0.000182033698222315 -0.000242425290433636
"222" 0.00310709283596165 0.00128365132678817 0.00130985633757088 0.000266975252895338 0.000580021923328505 0.00014188977086656 0.000643537631308941 0.000645574161293695 0.000502582078404008 0.000344868568638013 -9.5815618219397e-05 -0.00036828312807571 -0.000419400584731193 -7.46225508357255e-05 -0.000169408083555177 -0.000232351519167037
"223" 0.0031465682786345 0.00129789844372857 0.00131634465521411 0.000287093372331997 0.000583222259615248 0.000148313523467399 0.000649039683488852 0.000656155462014819 0.00049728433105066 0.000337675621750236 -8.92440589801506e-05 -0.000376859551663638 -0.000419501051289424 -7.17392095017682e-05 -0.00015704751606769 -0.000222078676496937
"224" 0.00318378920243893 0.00130857547556341 0.00132231532265544 0.000306223394915402 0.000586363863213979 0.000155072905698351 0.000654706461995725 0.000666344561161243 0.00049058412931819 0.000329635559593342 -8.3004629030252e-05 -0.000385954350575457 -0.000420007856807105 -6.84546059012721e-05 -0.000145032902843983 -0.000211682324542653
"225" 0.00321866309980805 0.0013157347006148 0.00132785325328842 0.000324344520807831 0.000589543660452829 0.000162148970609355 0.000660635047888084 0.000676143210906497 0.000482622001355329 0.00032094211371613 -7.71471346263663e-05 -0.000395550767477905 -0.000420886899801335 -6.48474874962897e-05 -0.000133427321543272 -0.000201246709377364
"226" 0.0032511199079063 0.00131947674334821 0.00133304913239812 0.00034145413052199 0.000592850743760817 0.000169519123659573 0.000666934228260202 0.000685563568800995 0.000473557913646636 0.000311791507130035 -7.17208492824229e-05 -0.000405633111143823 -0.000422096462515218 -6.10031723084615e-05 -0.000122294358561899 -0.00019085410340773
"227" 0.00328112265911781 0.00131992293422968 0.00133801564819909 0.00035755515599188 0.000596388785314644 0.000177161214658344 0.000673711813213703 0.000694623464777892 0.000463556490340931 0.000302393605880236 -6.67636048196549e-05 -0.000416181434387649 -0.000423594571175054 -5.700271497189e-05 -0.000111685025327423 -0.000180592709313575
"228" 0.00330866202441531 0.00131723519742729 0.00134286027568543 0.000372663393324831 0.000600256621117417 0.000185050817909159 0.000681081365309866 0.00070335781904516 0.000452796322147708 0.000292958522813906 -6.23149243842937e-05 -0.000427168169730065 -0.000425328895464076 -5.29318182570848e-05 -0.000101645378529493 -0.000170550300216856
"229" 0.0033337526589646 0.00131159851096763 0.00134771226834032 0.000386803619750962 0.000604553716917647 0.00019316424993387 0.000689159623636609 0.000711802585164906 0.000441468605031286 0.000283700099594748 -5.84003129350554e-05 -0.000438565697177179 -0.000427249270258226 -4.88736251848113e-05 -9.22133577288912e-05 -0.000160815355422965
"230" 0.00335644080877218 0.00130323246809211 0.0013526974634308 0.000400011580146468 0.000609376033547394 0.000201480634078518 0.000698063810663919 0.000720001138178513 0.000429766720483463 0.000274833527345712 -5.50504952873684e-05 -0.000450345347002625 -0.000429299262502227 -4.49112783312404e-05 -8.34210267083534e-05 -0.000151477647193815
"231" 0.00337679354356308 0.00129238006722899 0.0013579461164128 0.000412331877242422 0.000614821188899751 0.000209970835112567 0.000707906359573136 0.000728005516644307 0.000417889933899089 0.00026656452624891 -5.22814133834431e-05 -0.00046247357711362 -0.00043142470390093 -4.11232857851771e-05 -7.5284993854569e-05 -0.000142622689887678
"232" 0.00339490108541326 0.00127930174430577 0.00136359979715354 0.000423813264233002 0.000620981482184474 0.000218609522397513 0.00071880463263615 0.000735873990109875 0.000406039965217166 0.000259097139651481 -5.01098146055347e-05 -0.000474914640330831 -0.000433568897042905 -3.75874851568549e-05 -6.78217251973341e-05 -0.000134334750966302
"233" 0.00341087633832271 0.00126428069691157 0.00136979028003028 0.00043451799009165 0.000627939941906737 0.000227369913024127 0.000730861098765832 0.000743659509702626 0.000394421288995194 0.000252634549884791 -4.85448635076604e-05 -0.000487632509574873 -0.000435672079135216 -3.43766981902401e-05 -6.10354989675656e-05 -0.000126698880334231
"234" 0.00342484778711922 0.00124761442241804 0.00137665659386242 0.00044450821404342 0.000635778529642257 0.000236221529592175 0.000744179614501955 0.000751427107021708 0.000383237628573657 0.000247361387727593 -4.75883391236298e-05 -0.000500587819429908 -0.000437681743230656 -3.15602785099903e-05 -5.49266176286474e-05 -0.000119791883762351
"235" 0.00343696339330459 0.00122961308821307 0.00138432734659626 0.000453853572560922 0.0006445663407481 0.00024513772583308 0.000758855423933022 0.000759235794948188 0.000372683835132508 0.000243457922281978 -4.72360564581036e-05 -0.000513740226955899 -0.000439542944934539 -2.92007705027057e-05 -4.94882527833076e-05 -0.000113688694986841
"236" 0.00344737898640407 0.00121059414262259 0.00139293255280096 0.00046262932955289 0.000654362610952638 0.000254084575062524 0.000774970046936917 0.000767143346320196 0.000362958582370362 0.000241088935962399 -4.74823753200604e-05 -0.000527047938956113 -0.000441204781145923 -2.73567761762941e-05 -4.47022975958714e-05 -0.000108458839653644
"237" 0.00345626562375656 0.00119088092414348 0.00140258509363317 0.00047091101801779 0.000665219472004154 0.000263029147922108 0.000792595624563575 0.000775211845431522 0.000354240156150399 0.000240403139770363 -4.83153537670416e-05 -0.000540469823028469 -0.000442617863359813 -2.60784177412094e-05 -4.05467757441215e-05 -0.000104162191173423
"238" 0.00346379686974555 0.00117079680791463 0.00141340243901125 0.00047877789281575 0.000677177891298011 0.000271940050739171 0.000811791963464959 0.000783492920462957 0.000346708386056868 0.000241531456389938 -4.97126530872975e-05 -0.000553964654372989 -0.000443737820681431 -2.54115789497457e-05 -3.69971692880999e-05 -0.000100856427598835
"239" 0.00347014512384669 0.00115065784973344 0.0014254781279623 0.000486307692417225 0.000690259796537236 0.000280781537428415 0.000832604772710347 0.000792035051014179 0.000340523720387966 0.000244592127956435 -5.16499313033443e-05 -0.000567489333996827 -0.000444521922064695 -2.53918117791915e-05 -3.40195258200983e-05 -9.85879756673656e-05
"240" 0.0034754960216888 0.00113078282571854 0.00143889566253417 0.000493581844281667 0.000704481871081641 0.000289516319774015 0.000855060904764216 0.000800881395722093 0.000335833667663191 0.000249676111123799 -5.41043396461068e-05 -0.000581003455470914 -0.000444938913367337 -2.60490149390359e-05 -3.15764387041459e-05 -9.73945911465783e-05
"241" 0.00348002055723459 0.00111146977377349 0.00145373095309509 0.000500676560408649 0.000719843133507023 0.000298106691135572 0.000879168289306652 0.000810064176985723 0.000332773255464694 0.000256856526326033 -5.70384992780207e-05 -0.000594461111083323 -0.000444957615601975 -2.74043542325764e-05 -2.96298197018707e-05 -9.73067901861575e-05
"242" 0.00348388445234448 0.00109300765480388 0.00147002893124712 0.000507666096605913 0.000736322207159876 0.000306514849601686 0.000904923384869553 0.000819610977079711 0.00033145403517921 0.000266182669392779 -6.04174902830556e-05 -0.000607826799039398 -0.000444551261382834 -2.94740422026669e-05 -2.81341742527652e-05 -9.83473100255961e-05
"243" 0.00348724810099148 0.00107566811718801 0.0014878298967794 0.000514621849008475 0.00075388653498255 0.000314700792272171 0.000932295862594842 0.000829536043909742 0.000331972305284733 0.000277679948372381 -6.42010541923598e-05 -0.00062105915193964 -0.000443703775007952 -3.22597174228413e-05 -2.70412767316382e-05 -0.000100525400017232
"244" 0.00349025685748412 0.0010596981525132 0.00150714888832367 0.000521611369256429 0.000772493894343323 0.000322625237228903 0.000961239294078682 0.000839845762714538 0.000334397935949343 0.000291350809803335 -6.83485760835481e-05 -0.000634117130073782 -0.000442401911025327 -3.57611903215008e-05 -2.63058303676709e-05 -0.000103841357874534
"245" 0.00349304001563204 0.00104532624356174 0.00152797964820198 0.000528697150612723 0.000792078329319648 0.000330244514162248 0.000991679288896369 0.000850533957079511 0.000338789668125205 0.000307167359201852 -7.28113796470576e-05 -0.000646965444621054 -0.000440637833576918 -3.99655430264391e-05 -2.58743608996105e-05 -0.00010828622989665
"246" 0.00349570270116733 0.0010327487280318 0.0015502887943544 0.000535931613401803 0.000812554517898931 0.000337520941104199 0.00102352496355258 0.000861581391400766 0.000345172848175243 0.000325088135333545 -7.75443954583616e-05 -0.000659568612729388 -0.000438413461543529 -4.48565707636759e-05 -2.57019264160745e-05 -0.000113840830563425
"247" 0.00349834335018919 0.00102213786256652 0.00157403278661629 0.000543365285760847 0.000833826711294456 0.000344411377649534 0.00105666705235588 0.000872956581136329 0.000353550977143605 0.000345028969657511 -8.24984348335605e-05 -0.000671890457412271 -0.00043573300590005 -5.04049797728402e-05 -2.57345679648319e-05 -0.000120473115940888
"248" 0.00350102984613971 0.0010136333633599 0.00159913296120796 0.000551035478462711 0.000855787075315148 0.000350873521486993 0.00109096308295331 0.000884619888230958 0.000363905932789185 0.000366897005613441 -8.76284910936721e-05 -0.00068389789388316 -0.000432608936381728 -5.65797694134109e-05 -2.59230322976007e-05 -0.000128144166245248
"249" 0.00350380083305451 0.00100734486437219 0.00162549360620656 0.000558976388037573 0.000878305881732893 0.00035686710777103 0.00112625767195946 0.000896511702708227 0.000376199128236375 0.000390566527258286 -9.28772604931449e-05 -0.00069556106159099 -0.000429057080140747 -6.33383621155253e-05 -2.62250593271086e-05 -0.000136802448859536
"250" 0.00350667978920958 0.00100334198778877 0.00165298943183986 0.000567211904715314 0.000901242167276081 0.000362353413151045 0.00116236814772417 0.000908565496377672 0.000390358813877434 0.000415890853867318 -9.82005711388707e-05 -0.000706849231570528 -0.000425100210445692 -7.06362774378147e-05 -2.65891942135842e-05 -0.000146387340085319
"251" 0.00350965955796493 0.00100167155958819 0.00168147767327955 0.000575752769712739 0.000924438379871881 0.0003672909448989 0.00119910042874724 0.000920702220086845 0.000406294073021984 0.000442700441764752 -0.000103551152764788 -0.000717735439247868 -0.000420767135287972 -7.84179931207482e-05 -2.69778563736694e-05 -0.000156830756846742
"252" 0.00351270730842887 0.00100233832954055 0.00171079157320244 0.00058460643099165 0.000947729249763295 0.00037164660867036 0.00123622765058759 0.000932828050143268 0.000423896572639485 0.000470805953829928 -0.000108874528465764 -0.000728192106358116 -0.000416089573189686 -8.66267260556103e-05 -2.73507954826344e-05 -0.000168057686675195
"253" 0.003515761953914 0.00100531242265485 0.0017407348378049 0.00059376746076812 0.000970936562829278 0.000375380347373158 0.0012735157794867 0.000944844163336498 0.000443020976471352 0.000499995198786625 -0.000114133894641634 -0.000738195031153085 -0.000411102845917973 -9.52010561514479e-05 -2.76693886362198e-05 -0.000179974598563964
"254" 0.00351874488994584 0.00101053959550365 0.00177110364214984 0.000603223192525888 0.000993872293309168 0.000378459272277501 0.00131071052303274 0.000956633471286424 0.000463516519342845 0.000530041510106407 -0.000119282504044285 -0.000747722847933426 -0.000405847980226828 -0.000104073457454478 -2.79062282494243e-05 -0.000192493861161783
"255" 0.0035215436931671 0.001017917865291 0.00180166126901323 0.000612950483071647 0.00101634268127611 0.000380856368609178 0.00134754132989121 0.000968078188673508 0.000485208453490154 0.00056070432326026 -0.000124275967285432 -0.000756751133251799 -0.000400366071707639 -0.000113173377045448 -2.80340020692349e-05 -0.000205516983468228
"256" 0.00352402747173704 0.00102733459849368 0.0018321657952289 0.000622917887652468 0.00103814789415361 0.000382539864374864 0.00138373174133387 0.000979047515202214 0.000507898240640143 0.000591730987870148 -0.000129082838752191 -0.000765263513337005 -0.000394701372610484 -0.000122430995455462 -2.80267900341915e-05 -0.000218933210329987
"257" 0.00352604478602417 0.00103862746225445 0.00186235077724553 0.000633086223020135 0.00105907873807036 0.000383486224462885 0.00141898929850709 0.000989405768409729 0.000531380410641723 0.000622852165901095 -0.000133665779021685 -0.000773238952348244 -0.000388905083653023 -0.000131767951379547 -2.78684610830046e-05 -0.000232636710287412
"258" 0.00352741989239206 0.00105162435474779 0.0018919431790444 0.000643409853102089 0.00107893521684893 0.000383674689728155 0.0014530161170187 0.000999014742886219 0.000555431290942368 0.000653803144843596 -0.000137994001091897 -0.000780660982872455 -0.000383022519792928 -0.000141113862788247 -2.75490945596292e-05 -0.000246513166281564
"259" 0.00352796963794779 0.00106611989285232 0.00192065859336263 0.000653834483280491 0.00109751173822643 0.000383087792978806 0.00148551407696731 0.00100772918311613 0.000579818113312576 0.000684306775282784 -0.000142040509855995 -0.00078751611497727 -0.000377103332135918 -0.000150391438495553 -2.7058113759302e-05 -0.000260444853279544
"260" 0.00352749288117855 0.00108188967057694 0.00194820174837335 0.000664298098606162 0.00111461004178665 0.000381711858005213 0.0015161814424293 0.00101540633057417 0.000604297908042536 0.000714083999678591 -0.000145781383800774 -0.000793789657902242 -0.00037119618512161 -0.000159524940938374 -2.63926636586504e-05 -0.000274314195446157
"261" 0.00352577335216767 0.0010986931285347 0.00197428144739674 0.000674739845435358 0.00113002868648165 0.000379540327359226 0.00154471903097425 0.00102190206078625 0.000628628528554507 0.000742867454441043 -0.000149199440728635 -0.000799469129813262 -0.000365349019172208 -0.000168442135222869 -2.55552166380805e-05 -0.000288003658144645
"262" 0.00352259907571321 0.00111627219438048 0.00199860123268191 0.000685086503488222 0.00114358585023025 0.000376567225672823 0.00157083942593699 0.00102707336187181 0.000652558032563231 0.000770386478983614 -0.000152273455290557 -0.000804542548147904 -0.000359610349697181 -0.000177071709235051 -2.45556723331003e-05 -0.000301392491040745
"263" 0.00351774214811422 0.00113435393447598 0.00202086841560554 0.000695266363349918 0.00115510480668722 0.000372794544832729 0.00159425295651067 0.00103078122505355 0.000675839748654477 0.000796382033059446 -0.000154997656982714 -0.00080900114015904 -0.000354026120433475 -0.000185342055620788 -2.33992047047724e-05 -0.000314368838426342
"264" 0.00351098536118333 0.00115266665648505 0.00204080304459842 0.000705205308551024 0.00116442236093393 0.000368231151864248 0.00161469677068483 0.00103289763476241 0.000698224351483197 0.000820603951165636 -0.000157358875718995 -0.000812837653788249 -0.000348638521147718 -0.000193191742425316 -2.2106026723135e-05 -0.000326812614607667
"265" 0.00350211023607736 0.00117092521593062 0.00205812832412419 0.000714824671787489 0.00117138671564417 0.000362884717465009 0.00163191437863901 0.00103329857625613 0.000719476735657883 0.00084282359866605 -0.000159354027584885 -0.000816042821898098 -0.000343486903656376 -0.000200553803661426 -2.06955468690141e-05 -0.000338620420830237
"266" 0.00349090574044132 0.00118884854298964 0.00207258633457475 0.000724051349854585 0.00117587169956224 0.000356774181682297 0.00164567525854303 0.00103186765424059 0.000739364572826733 0.00086282283366643 -0.000160983229857631 -0.000818609474622685 -0.000338611351776915 -0.000207374628525003 -1.91888254531879e-05 -0.000349682258050422
"267" 0.00347717288462896 0.0012061543325804 0.00208393882491058 0.000732805260611819 0.00117776269783649 0.000349922996295272 0.00165577048247541 0.00102850733053656 0.000757665674288283 0.000880400746288493 -0.00016224518943172 -0.000820536302368213 -0.000334043561191776 -0.000213598727599666 -1.76130490355836e-05 -0.000359900055475974
"268" 0.00346072632590089 0.00122256913299593 0.00209196295364501 0.000741013240362921 0.00117697375411628 0.000342358882238637 0.00166201609799318 0.00102312647777881 0.0007741816696238 0.000895388670009584 -0.000163145010571539 -0.000821817361680571 -0.000329812495402009 -0.00021918204992992 -1.59997221778828e-05 -0.000369184773125149
"269" 0.00344140063437126 0.00123783123399802 0.00209646753078972 0.000748604335015312 0.001173431301267 0.00033411297268392 0.00166425342744012 0.00101565415594895 0.000788718439396699 0.000907632884618798 -0.000163688299632661 -0.000822448237661435 -0.000325942403590686 -0.000224082642276231 -1.43738548197071e-05 -0.000377447291094751
"270" 0.0034190477690135 0.00125167980523399 0.00209728428521943 0.000755507963747835 0.00116709489895083 0.000325226163351929 0.00166236283178441 0.00100603160452804 0.000801105519374218 0.00091701078068872 -0.000163885669775877 -0.000822431323636452 -0.000322453985645616 -0.00022826463193043 -1.2772951747922e-05 -0.000384613594795463
"271" 0.00339354082538643 0.00126388193934684 0.00209427447985007 0.000761662359421703 0.00115794006916154 0.000315742627055711 0.00165625374565194 0.000994221638658205 0.000811197514549027 0.000923419311639643 -0.000163747856959006 -0.000821762824995583 -0.000319360936689113 -0.00023170292579468 -1.12286799069741e-05 -0.00039061775580585
"272" 0.00336478390608669 0.00127421316583245 0.00208733618447321 0.000767005758555131 0.00114597628683846 0.000305708970732828 0.00164586484479056 0.000980202497232113 0.000818862372296157 0.000926791056678766 -0.000163285295767535 -0.000820443587558533 -0.000316673379996358 -0.000234375700324385 -9.77685227859982e-06 -0.000395404421537377
"273" 0.00333270356765161 0.00128247345385767 0.00207639569491601 0.000771486724795308 0.00113122789006292 0.000295181240322598 0.00163117837040281 0.000963970869011313 0.000823999396788634 0.000927084785642585 -0.000162510325455027 -0.000818475704129564 -0.000314392414754389 -0.000236266317970364 -8.45647788255916e-06 -0.000398923228920553
"274" 0.00329725588287676 0.00128848618297375 0.00206141347043536 0.000775056428649413 0.00111375355025298 0.000284215334542158 0.00161220713143489 0.000945545992910508 0.000826528805785049 0.000924284884626324 -0.000161440350791497 -0.000815859515838724 -0.000312520009537568 -0.000237373344851455 -7.29733104221008e-06 -0.000401142502385816
"275" 0.00325842732722404 0.00129209048505326 0.00204238758418089 0.000777673914087191 0.00109362793405908 0.000272875497108586 0.00158900558456457 0.000924965626766528 0.000826390807804154 0.00091841032955108 -0.000160090434874276 -0.000812597654700191 -0.000311046437987756 -0.000237695462755831 -6.34118046839201e-06 -0.000402036888173421
"276" 0.00321622951611182 0.00129316328271887 0.00201935348645089 0.000779305744204014 0.00107095849677001 0.000261226507273834 0.00156165505954062 0.000902287947914189 0.000823569281289802 0.000909509065308346 -0.000158473974671162 -0.000808695028398506 -0.000309958765275111 -0.000237242279743898 -5.61428174895336e-06 -0.000401597495687964
"277" 0.00317071149739097 0.00129159802864105 0.00199238228162971 0.000779926703714857 0.00104586853234971 0.000249337925754326 0.00153028348320563 0.000877587589508583 0.000818050810852919 0.000897649443067615 -0.000156605686304171 -0.000804155441541669 -0.000309241363101382 -0.00023602830892836 -5.15786536097627e-06 -0.000399821004365229
"278" 0.0031219441949855 0.00128731218985038 0.00196157181227688 0.000779518650475249 0.00101850751966738 0.000237279561858462 0.0014950435618055 0.000850959222599897 0.000809864687804041 0.000882930129962676 -0.000154501303712622 -0.000798982900370067 -0.000308871541001787 -0.0002340801874742 -4.99851042007301e-06 -0.000396718661248187
"279" 0.00307003274606278 0.001280259085209 0.00192705576605815 0.000778067427460834 0.00098904148996436 0.000225128538422157 0.00145612478208634 0.000822520541729752 0.000799060998017345 0.000865479599087005 -0.000152178097224381 -0.000793186273458085 -0.000308819245609972 -0.000231428531256959 -5.16592376738621e-06 -0.000392317680420344
"280" 0.00301510776660926 0.00127041890824803 0.00188900771727704 0.000775574841776975 0.000957651453085742 0.00021295714578271 0.00141374961764961 0.000792397261425768 0.00078571328848426 0.000845446154715326 -0.000149649723579071 -0.000786767513590701 -0.000309057014665911 -0.000228110051045468 -5.6871032813942e-06 -0.000386649933581223
"281" 0.00295733081216724 0.00125778952626409 0.00184761641284879 0.000772042683837571 0.000924542182006889 0.000200844841274856 0.00136815889772338 0.000760737786546879 0.000769926165001612 0.000823004715862263 -0.000146929401735088 -0.000779736347035487 -0.00030954685969387 -0.000224171428284141 -6.59100207987608e-06 -0.000379763065233459
"282" 0.00289688077267755 0.00124240675425471 0.00180311065280274 0.000767484437799375 0.000889928330293405 0.00018886805369185 0.00131963032248264 0.000727700268790485 0.000751813354302789 0.000798342725639495 -0.000144031032647855 -0.000772101203052888 -0.000310249943035364 -0.000219662414396007 -7.89312270200599e-06 -0.000371712531494026
"283" 0.00283396216154795 0.00122431967832167 0.0017557329068959 0.000761920609078117 0.000854037165014884 0.000177102770670897 0.00126845622667917 0.000693457289499585 0.000731519391727088 0.000771673073281813 -0.000140969123063493 -0.000763869940725486 -0.000311128448733125 -0.000214640741940255 -9.61645314225194e-06 -0.000362565133609747
"284" 0.00276880632559981 0.00120361249051854 0.00170575247468617 0.000755377789617445 0.000817101221050594 0.000165627165289773 0.00121495129330704 0.000658192628009784 0.00070920805923334 0.000743220138367764 -0.000137756098406155 -0.000755053117711353 -0.000312136678623806 -0.000209168112853546 -1.17762675851338e-05 -0.000352397211271819
"285" 0.00270165212652587 0.00118038944812726 0.00165345897820823 0.000747894418509178 0.000779366153246019 0.000154514533686958 0.00115944444251389 0.00062209453774528 0.000685060796747276 0.000713221071955387 -0.000134399726628097 -0.000745661657936429 -0.000313231032234357 -0.000203311904532687 -1.43847476156135e-05 -0.000341294616053079
"286" 0.00263276303678805 0.00115477574513705 0.00159914755359597 0.000739508036422822 0.00074107738672321 0.000143838022478498 0.00110227681093056 0.000585365016021439 0.000659271298481766 0.000681926126247814 -0.000130917392651207 -0.000735706414326464 -0.000314367006932622 -0.000197143097761271 -1.74516647316091e-05 -0.000329349765996308
"287" 0.00256241172042746 0.00112691527363347 0.00154313701787049 0.000730267293840116 0.000702482488068584 0.000133668744148406 0.00104380421827779 0.00054820182871362 0.000632050831661759 0.000649595656173884 -0.00012731453734155 -0.000725200317561886 -0.000315501073258163 -0.000190737113320612 -2.09799388921267e-05 -0.000316662089600103
"288" 0.00249088133785885 0.00109697098299214 0.00148574214612008 0.000720225731527653 0.000663832460780429 0.000124070646840935 0.000984376200648939 0.000510813841088633 0.000603619762309912 0.000616487008571504 -0.000123604478974257 -0.000714160001492205 -0.000316585343979157 -0.000184169998991184 -2.49732578621633e-05 -0.000303339255435096
"289" 0.002418466417157 0.00106512254785954 0.00142729164384002 0.000709444788533398 0.000625370664351466 0.000115108162573195 0.000924356439818252 0.000473403691325259 0.000574205214785644 0.000582869621491673 -0.000119792712148982 -0.000702597686188504 -0.000317580457147921 -0.000177519915120644 -2.94290408391492e-05 -0.000289490491368124
"290" 0.00234545992945605 0.00103156610551092 0.00136811160351064 0.000697987105339517 0.000587334735359769 0.000106838969835631 0.000864103178938016 0.000436174900101306 0.00054404684260098 0.000549003614559003 -0.000115890883010533 -0.000690532780989693 -0.000318442498161497 -0.000170868538410653 -3.43410637045294e-05 -0.000275230931385319
"291" 0.00227216223542483 0.000996501761313405 0.00130853567465521 0.000685922437942782 0.00054996338001258 9.93135057762284e-05 0.00080396773650775 0.000399328569396483 0.000513378159826496 0.000515149431617263 -0.000111909892360773 -0.000677984518390168 -0.000319134816471733 -0.000164297264309977 -3.97034094208579e-05 -0.000260676768878964
"292" 0.00219887253746158 0.000960149556672907 0.00124887648429973 0.000673322117118699 0.00051347770078913 9.25825560055925e-05 0.00074429983186405 0.000363056920215131 0.000482444188066655 0.000481568558181644 -0.000107854198559567 -0.000664971858873567 -0.000319625371161107 -0.000157882564603456 -4.5497970436509e-05 -0.000245947401762541
"293" 0.00212588392568404 0.000922727959488649 0.00118945714358858 0.000660263385981366 0.000478090254691514 8.66840614504046e-05 0.000685429633648971 0.000327546579547965 0.000451485646780635 0.000448506976571692 -0.000103733304851305 -0.000651518331543967 -0.000319880657915573 -0.000151702885735188 -5.17130380793212e-05 -0.000231164198242812
"294" 0.0020534880025644 0.000884462362878565 0.00113058225063704 0.000646826240007154 0.000443999636978161 8.16538414157137e-05 0.000627684328661937 0.000292974197080759 0.000420735129748504 0.000416195969747257 -9.95553387485313e-05 -0.000637647329162413 -0.000319876703725941 -0.000145837296026145 -5.83268804222063e-05 -0.000216442127814977
"295" 0.00198196511549414 0.000845585440741784 0.00107254779790781 0.000633089575151337 0.000411394151037883 7.75189638101293e-05 0.000571367023443766 0.000259507747158121 0.000390426942335431 0.000384871074989719 -9.53275948417793e-05 -0.000623383457398356 -0.000319591623191463 -0.000140354518650199 -6.5319377494819e-05 -0.000201900939324706
"296" 0.00191158533108737 0.000806324524917553 0.00101563192546414 0.000619137571424634 0.0003804423241433 7.43027597396237e-05 0.000516770726639795 0.000227300965324565 0.000360784370262483 0.000354740454659061 -9.10557893630703e-05 -0.000608755943927892 -0.000319007862554425 -0.000135324785305955 -7.26603552254141e-05 -0.000187657454034444
"297" 0.00184261059867437 0.000766905369612854 0.000960104413785508 0.000605055275892995 0.000351298465615907 7.20149535418382e-05 0.00046416443894967 0.000196493632869532 0.000332018082618915 0.000325992684675504 -8.67515198676167e-05 -0.000593795804049927 -0.000318119527864499 -0.000130811163507928 -8.03237164065076e-05 -0.000173817021101585
"298" 0.00177528413824174 0.000727553185719255 0.00090620903153728 0.000590925006470446 0.000324095951771338 7.06613949663156e-05 0.000413798546248321 0.000167213686473791 0.000304326978377303 0.0002988102564918 -8.24177834668801e-05 -0.000578532912244322 -0.000316920863366547 -0.000126872119177834 -8.82765693521658e-05 -0.000160487907608426
"299" 0.00170983465900591 0.000688485054712894 0.000854182818357388 0.000576833130235499 0.000298952379964398 7.02427649267178e-05 0.000365893999151775 0.000139570748834487 0.000277899043421894 0.000273346279809679 -7.80640566361968e-05 -0.000563003678724924 -0.000315413998066141 -0.000123558550627222 -9.64849624194208e-05 -0.000147769704821389
"300" 0.00164647592073262 0.000649907772645516 0.000804228929481365 0.000562862275657418 0.000275968641710332 7.07487455627869e-05 0.000320652874450664 0.000113661733532288 0.000252906528418353 0.000249736670045309 -7.36999411419841e-05 -0.000547241265225761 -0.000313605770251404 -0.000120917513628524 -0.000104910325289993 -0.000135757824540752
"301" 0.00158540393926789 0.000612020853373942 0.000756542154341228 0.000549092462745564 0.000255220246504286 7.21630913796375e-05 0.000278253941168162 8.95648809900589e-05 0.000229499046179812 0.000228098271788887 -6.93277713570909e-05 -0.000531287598581421 -0.000311512306734664 -0.000118984186606247 -0.000113514753696858 -0.000124535088503649
"302" 0.00152678639158876 0.000575012603641481 0.000711285524463844 0.000535606555189915 0.000236765322201726 7.44609264724926e-05 0.000238845110367357 6.7343803757623e-05 0.000207814269482593 0.000208518494005625 -6.49589612464265e-05 -0.000515179850518692 -0.000309152337654456 -0.000117789112941111 -0.000122257944084099 -0.00011418094654995
"303" 0.0014707801597431 0.000539051757411976 0.000668608736279531 0.000522475902811928 0.000220637845884537 7.76131373908128e-05 0.000202548894262201 4.70410969304915e-05 0.000187964058366159 0.000191063392849891 -6.05983271211319e-05 -0.000498959142739035 -0.000306554114191591 -0.000117352299643605 -0.000131098543656342 -0.00010476670308308
"304" 0.00141751174728311 0.000504301183991639 0.00062862912342683 0.000509781231708364 0.000206861864319497 8.15799164233115e-05 0.000169461788210834 2.86861843418684e-05 0.000170046600724968 0.00017577737915112 -5.62547840450443e-05 -0.00048267054120007 -0.000303745868725588 -0.000117688974471116 -0.000139988806829063 -9.63509695022997e-05
"305" 0.00136709390276461 0.000470904263993472 0.000591448005190156 0.000497587930590849 0.000195434815839398 8.63176425020853e-05 0.000139651435067389 1.22898186011401e-05 0.00015412882186975 0.000162680124373759 -5.19341141342811e-05 -0.000466357978096884 -0.000300764052417043 -0.000118801211460959 -0.000148888316578817 -8.89836566794124e-05
"306" 0.00131960720914645 0.00043898092412023 0.000557141884679149 0.000485960142640613 0.000186328245031977 9.17783417343747e-05 0.000113159715159587 -2.14987689684467e-06 0.000140266605166178 0.000151764015702408 -4.76439142582847e-05 -0.000450065792930904 -0.000297650523293694 -0.00012068740054974 -0.000157747357172321 -8.27075245022922e-05
"307" 0.00127511690063506 0.000408640284409725 0.000525762219206168 0.000474960473501457 0.000179506667323329 9.79044358207162e-05 9.00001648152294e-05 -1.46568442006984e-05 0.000128488246171637 0.000143004526293091 -4.33910464341953e-05 -0.000433842787429186 -0.00029444930723766 -0.000123329467732786 -0.000166522064675558 -7.75519014549619e-05
"308" 0.00123366103815092 0.000379970813095164 0.000497340647070839 0.000464643099895417 0.000174912432939017 0.000104635655178574 7.01583642106323e-05 -2.5268204260807e-05 0.000118797642025991 0.000136344800095901 -3.9182287230679e-05 -0.000417736288858019 -0.000291209349569241 -0.00012670565963794 -0.000175164889966301 -7.35369347590005e-05
"309" 0.00119525508957876 0.00035303841491266 0.000471880714431443 0.000455053339013318 0.000172464140641735 0.000111910185845525 5.35996714970128e-05 -3.40283175004739e-05 0.000111185546757454 0.000131714703252029 -3.50229173355004e-05 -0.000401793868276583 -0.000287979947310628 -0.000130787678816224 -0.000183635283278841 -7.06763343565615e-05
"310" 0.00115989405009409 0.000327893057472719 0.000449369662463216 0.000446235816814321 0.000172070276936436 0.000119657238287582 4.02571545841243e-05 -4.10064793752758e-05 0.000105609335702128 0.000129017262827833 -3.0922330712279e-05 -0.00038606291939778 -0.00028481497090937 -0.000135532215725824 -0.000191880571215587 -6.89664023429902e-05
"311" 0.00112754335062613 0.000304563989649525 0.000429771672001555 0.000438223507647132 0.000173625098503311 0.000127807690653869 3.00464484381106e-05 -4.6275538595973e-05 0.000102012415222845 0.000128136805236647 -2.68850331686619e-05 -0.000370592628214476 -0.000281764857823242 -0.000140894266894113 -0.000199861363071779 -6.8396453053415e-05
"312" 0.00109815534933488 0.000283060254831855 0.000413028638457271 0.000431043815753088 0.000177002777803403 0.000136288584325622 2.28554951394798e-05 -4.99263240043778e-05 0.000100318593050508 0.000128937780744582 -2.29172240095921e-05 -0.000355431156754054 -0.000278887206454594 -0.000146815768550014 -0.000207534195920768 -6.89477646783241e-05
"313" 0.00107165749522812 0.000263368718466714 0.000399059895095331 0.000424716771410237 0.000182067487318602 0.000145023412601259 1.85542621931972e-05 -5.20527373046812e-05 0.000100434225141395 0.000131274331275529 -1.9026255787281e-05 -0.000340625525847468 -0.000276235919628671 -0.000153235300930255 -0.000214856098691455 -7.05918853548893e-05
"314" 0.00104795961044493 0.000245461318901064 0.000387777583087481 0.000419253274515251 0.000188670835239803 0.000153938511378617 1.69927820344961e-05 -5.27614514901104e-05 0.00010224348907608 0.000134975730640416 -1.52174126997171e-05 -0.000326222161822909 -0.000273861466728532 -0.00016008529377994 -0.000221789182402547 -7.3287570437797e-05
"315" 0.00102695168795817 0.00022929408534114 0.000379066063263378 0.000414661760753454 0.000196659643192863 0.000162959028686969 1.80000590502541e-05 -5.21655299415614e-05 0.000105617083505208 0.000139867568684237 -1.1496548853669e-05 -0.000312267578128872 -0.000271815929193226 -0.000167288617690548 -0.000228292756491538 -7.69883067810085e-05
"316" 0.00100850701341325 0.000214798693778721 0.00037279566118011 0.000410932545895856 0.000205866632843037 0.000172009358896158 2.13947045342684e-05 -5.03887718307169e-05 0.000110418037606289 0.00014576085070096 -7.86760918868476e-06 -0.000298804640884419 -0.000270149999761704 -0.000174767867552112 -0.000234335956864145 -8.16424647025058e-05
"317" 0.000992485114201681 0.0002018953403046 0.000368825838191942 0.00040805793161001 0.000216118233239339 0.000181016430016773 2.69751311592479e-05 -4.75487631350326e-05 0.000116483346259586 0.00015245859464493 -4.33645411551275e-06 -0.0002858762688022 -0.000268908336690605 -0.000182437078651585 -0.000239883560294457 -8.71846546393189e-05
"318" 0.000978728324564546 0.000190491087806774 0.000367003222670876 0.000406015711472821 0.000227235860525261 0.000189909747148581 3.45307549331725e-05 -4.37784667148806e-05 0.000123653446818097 0.000159758655953081 -9.10735377089584e-07 -0.000273523108526767 -0.000268132136407741 -0.000190207691564691 -0.000244906553593077 -9.35462526575754e-05
"319" 0.000967072330135447 0.000180474075816804 0.000367157679127579 0.000404778781547969 0.000239043365875393 0.000198621945855578 4.38441490554251e-05 -3.92048352564985e-05 0.000131752507858815 0.000167455195896665 2.40713895816389e-06 -0.0002617852951739 -0.000267858606783354 -0.000197991613925706 -0.000249378681959167 -0.000100653706303076
"320" 0.000957335066665303 0.000171730363674387 0.000369121460174392 0.000404311543858139 0.000251361668902647 0.000207085773487613 5.46864576516942e-05 -3.39556284064066e-05 0.000140604333317253 0.000175343356807976 5.61152380631548e-06 -0.000250699827903505 -0.000268121400790858 -0.000205696204978787 -0.000253275911556479 -0.000108429591319816
"321" 0.000949337560388938 0.000164125755998952 0.000372706830445975 0.000404571421539304 0.000264002376853246 0.000215244584316666 6.68238100804866e-05 -2.81615997378398e-05 0.000150026972816677 0.000183220182216067 8.6997470703943e-06 -0.000240300179440493 -0.000268949018761783 -0.000213226957524267 -0.000256578646856824 -0.000116789921115212
"322" 0.000942884068824942 0.000157526386624039 0.000377729150537214 0.000405508993953283 0.000276794999577058 0.000223038021439285 8.0026232441567e-05 -2.19472758636176e-05 0.00015983567234123 0.000190885740551694 1.16663110633154e-05 -0.000230621008523711 -0.000270361408421207 -0.000220491563034671 -0.000259269623331044 -0.000125645793487992
"323" 0.00093777919730693 0.000151788199433815 0.000383999228706701 0.000407069825267017 0.000289561752375675 0.00023041674030738 9.4055808989508e-05 -1.54366889243223e-05 0.000169847654487984 0.000198143683210097 1.45084115187119e-05 -0.000221689962821541 -0.000272373651011414 -0.000227398705717003 -0.000261341620180306 -0.000134911283632853
"324" 0.000933829098210612 0.000146761682455329 0.000391321062384657 0.000409189944824373 0.000302137311598082 0.00023733435182458 0.000108682633004524 -8.74546030596829e-06 0.00017988915451628 0.00020481690574707 1.72271312995017e-05 -0.000213535280642354 -0.000274998048337491 -0.000233855348505872 -0.000262777532602826 -0.000144498609329334
"325" 0.000930837322985419 0.000142295748588377 0.000399513981771478 0.000411801508390793 0.000314361612951742 0.000243749826995689 0.000123678726376658 -1.98494589355243e-06 0.000189783182854348 0.000210724844315621 1.98127857754326e-05 -0.00020618431601704 -0.000278236103825155 -0.000239776876595973 -0.000263576831803919 -0.00015431545938774
"326" 0.000928606895825162 0.000138244615404793 0.000408379545077239 0.000414833359702754 0.000326080633098812 0.000249630404806371 0.000138822036133054 4.73736122238993e-06 0.000199366863867163 0.000215720462514626 2.22704621860409e-05 -0.000199656964304827 -0.000282085417553577 -0.000245075876287205 -0.000263740993557622 -0.000164272892141228
"327" 0.000926948336006966 0.000134457563573548 0.000417741566937536 0.000418208181164135 0.000337159048815481 0.000254944637556347 0.000153903303770751 1.13274210275184e-05 0.000208482759200138 0.0002196485230811 2.45963016621193e-05 -0.000193972829385897 -0.000286537731976058 -0.00024967460736158 -0.000263263506750382 -0.000174283855037777
"328" 0.000925678113804878 0.000130788921867209 0.000427418892851138 0.000421845888628786 0.000347464584116468 0.000259673604463485 0.000168719722584761 1.76944397593885e-05 0.000216986159346041 0.000222389907921292 2.67890660797843e-05 -0.000189151849049832 -0.000291572905238111 -0.000253495506787654 -0.000262157522371787 -0.000184262790872041
"329" 0.000924615574883256 0.000127095931833905 0.000437242865593831 0.000425660529157203 0.00035688680531747 0.000263799127150422 0.0001830881546779 2.37614692173463e-05 0.0002247485142871 0.00022383244114464 2.88498608293212e-05 -0.00018520377837935 -0.000297172571115537 -0.000256470430183052 -0.000260431649874422 -0.000194127435814727
"330" 0.000923599344322178 0.000123243832522395 0.000447052941550492 0.000429566517546589 0.00036532034318079 0.000267312617224153 0.000196830533043924 2.94562919747488e-05 0.000231650460514656 0.000223886270752057 3.07790473474354e-05 -0.000182144077449624 -0.000303307192515863 -0.000258533057768578 -0.000258096101403629 -0.000203800453037779
"331" 0.000922462005435033 0.000119104505300661 0.000456696228316166 0.000433476905899487 0.000372679588692 0.000270209341233465 0.000209793253115642 3.47221929046126e-05 0.00023758954067723 0.000222483862041982 3.25768256858222e-05 -0.000179979791887155 -0.000309942202859187 -0.000259630972598843 -0.000255172516675228 -0.000213209178566134
"332" 0.000921064221092724 0.000114562420985678 0.00046603790495421 0.000437301667429841 0.000378891648162702 0.000272490258121452 0.000221832855548263 3.95078563087878e-05 0.000242482404178797 0.000219575552512997 3.42491989237257e-05 -0.000178715726265528 -0.000317040330669693 -0.000259713245936119 -0.000251674779823678 -0.00022228304747096
"333" 0.000919271592050877 0.00010950881113779 0.000474949997518414 0.000440951941123225 0.000383906508753509 0.000274165774777313 0.000232831032583627 4.37769002451354e-05 0.000246260617260251 0.000215130011380543 3.57986406595965e-05 -0.000178356107971125 -0.000324552278972837 -0.000258736113370389 -0.000247628357256944 -0.000230960720112706
"334" 0.000916957979156861 0.000103844303505004 0.000483316804595957 0.000444338725326593 0.00038768283980624 0.000275247099655057 0.000242684185262609 4.74967938450474e-05 0.00024887147487986 0.000209143550598049 3.7226065906464e-05 -0.000178897290996348 -0.000332433230732136 -0.000256668881569588 -0.000243059121226947 -0.000239188162278832
"335" 0.000914021226874264 9.74824335761187e-05 0.000491043520264332 0.00044737232061356 0.000390193301769287 0.000275752807661012 0.00025130223609633 5.06518528972602e-05 0.000250280334242581 0.000201625980723511 3.85367743601365e-05 -0.000180340092006182 -0.000340627215398875 -0.000253485038678539 -0.000237996682222233 -0.000246913023774061
"336" 0.000910369213649898 9.03536318410527e-05 0.000498045241492313 0.000449968077294525 0.000391436978912171 0.00027570730762854 0.000258628204716304 5.32318733716399e-05 0.000250470736806146 0.000192609151306779 3.97355090681028e-05 -0.000182675775517736 -0.000349079849490078 -0.000249168307338351 -0.000232469736463187 -0.000254090995570847
"337" 0.000905922468046078 8.2397168780307e-05 0.000504251932927641 0.000452040139964523 0.000391417898734513 0.000275132170719854 0.000264609337392703 5.52369772955486e-05 0.000249443446574672 0.000182140679426946 4.082858487669e-05 -0.000185896772447448 -0.000357729378676476 -0.00024371078204083 -0.000226509767560518 -0.000260688963341072
"338" 0.000900615411905895 7.35645479396817e-05 0.000509601222453071 0.000453507629029895 0.000390158947342456 0.000274063353558696 0.000269221556576733 5.66779582388942e-05 0.000247218371489163 0.00017029082408888 4.18234801953707e-05 -0.000189987508838251 -0.000366511232515656 -0.000237115567533364 -0.000220155013338176 -0.000266676196484457
"339" 0.000894403116049551 6.38245703044192e-05 0.000514059267909694 0.000454295363593992 0.000387695362070148 0.000272529735706225 0.00027245585881038 5.75699331925765e-05 0.000243823430568823 0.000157145281313557 4.27231894888915e-05 -0.000194932678800453 -0.000375364412885058 -0.000229390012604681 -0.000213439509751639 -0.000272033039451312
"340" 0.000887250084216587 5.31517666632191e-05 0.000517592648059743 0.00045432692229916 0.000384081395009799 0.000270569375132838 0.00027432073522858 5.79367776367792e-05 0.000239306263573818 0.000142799503929062 4.35363861833713e-05 -0.00020071478125778 -0.000384219499782204 -0.000220552860425852 -0.00020640081598637 -0.000276742876728203
"341" 0.000879125527677172 4.15441980616296e-05 0.000520189072897567 0.000453536932075467 0.000379375774204267 0.000268218797327849 0.000274839270750561 5.7807481883697e-05 0.000233728379849324 0.000127366593761464 4.42683187776105e-05 -0.000207308802967681 -0.000393012300318885 -0.000210631111738655 -0.000199081259867027 -0.000280798525686281
"342" 0.000870035689016245 2.90088951640578e-05 0.000521847554013967 0.000451861767195664 0.000373648580483573 0.000265516415495337 0.000274052285354643 5.72196774752587e-05 0.000227162978716289 0.000110975274561602 4.49263298437651e-05 -0.00021469136034373 -0.000401675631958999 -0.000199661708430711 -0.000191512695709482 -0.000284195887362419
"343" 0.000859969945108366 1.55585733396336e-05 0.000522573639676832 0.000449244965379963 0.000366987554670493 0.000262503786199265 0.000272016411894455 5.62105352925443e-05 0.000219693856516313 9.37521608309893e-05 4.55176495602891e-05 -0.00022283053403453 -0.000410143601485908 -0.000187684742873186 -0.000183740869438982 -0.000286942486984524
"344" 0.000848949447964537 1.22740672801092e-06 0.00052238925776124 0.00044563587195975 0.000359480120541824 0.000259219204793696 0.000268795912556777 5.48239913339476e-05 0.000211415549591053 7.58430281831001e-05 4.6048721138576e-05 -0.000231697825128157 -0.000418349821658958 -0.000174749049666611 -0.000175803423011416 -0.000289049131257586
"345" 0.000836998014816135 -1.39420471530384e-05 0.000521328406743834 0.000440990290729291 0.00035122776232906 0.000255699533965669 0.000264466199820226 5.31039597051753e-05 0.000202426298455565 5.73929833273988e-05 4.65239714704464e-05 -0.000241254182901041 -0.000426232619846236 -0.000160915020088725 -0.000167741470437556 -0.000290528998117272
"346" 0.000824150985022541 -2.98992633263034e-05 0.000519422686180409 0.000435275833919472 0.000342328275511608 0.000251985916450276 0.000259115774437282 5.10981662030269e-05 0.000192840365668097 3.85541983782349e-05 4.69554891928067e-05 -0.000251462024732722 -0.000433732342054808 -0.000146243775264278 -0.000159593465410117 -0.000291404810967922
"347" 0.000810445773938514 -4.65796900214589e-05 0.000516726656905158 0.000428461027564544 0.000332892655100773 0.000248114074522231 0.000252838456308346 4.88535758465498e-05 0.000182766285336286 1.94806034100696e-05 4.73431721837945e-05 -0.000262279368656758 -0.000440789888641425 -0.000130803722931562 -0.000151395716743822 -0.00029170017936469
"348" 0.000795932282188091 -6.3913318259377e-05 0.000513289843306988 0.000420529790427388 0.000323030473628745 0.000244119892818407 0.000245735657946942 4.64126776084447e-05 0.000172317262974019 3.21867217064158e-07 4.76947729603052e-05 -0.000273661561643157 -0.000447351981013138 -0.000114671703704839 -0.0001431888850263 -0.000291444519970347
