"V1" "V2" "V4" "V5" "V7" "V8" "V10" "V11" "V13" "V14" "V15" "V17" "V18" "V20" "V21" "V23"
"1" 0.000232710720253948 -0.000214547182874936 -4.5767022881586e-05 4.235302239125e-05 -0.00015409153793203 -0.000242492569730392 -0.000205069356559643 -0.000334445162404325 -3.47088835465397e-05 2.49803616281063e-05 0.000235174573857572 -0.000214223446224224 0.000398711862258945 -5.00123449141752e-05 0.000492703989984341 -4.90640862405488e-05
"2" 0.00022601987761211 -0.000216966523808067 -5.60478872996867e-05 2.72631739125837e-05 -0.000157402767768051 -0.0002432269997511 -0.00020902786958015 -0.000333682824861071 -5.15016261675342e-05 1.2930488799591e-05 0.000220765576379771 -0.000214765186358236 0.000385556651807319 -5.74418354407807e-05 0.000468769896710564 -6.76666710413653e-05
"3" 0.000219080983570771 -0.000218137768312887 -6.67110581184307e-05 1.20190416055982e-05 -0.000160773144495114 -0.000243553320685599 -0.000212630750516523 -0.000332539141594121 -6.79990819925198e-05 1.17741594458507e-06 0.000206515910851954 -0.000215131953069357 0.000372354158553348 -6.45409778595325e-05 0.000443446853936254 -8.62793483678737e-05
"4" 0.000211935007735946 -0.000218009997874077 -7.77100384619203e-05 -3.33981243447061e-06 -0.000164191443565483 -0.000243459150323854 -0.000215856411818362 -0.000330997080335772 -8.41331608919877e-05 -1.02567711346011e-05 0.000192496254643466 -0.000215346309357949 0.000359173058107774 -7.12766868293889e-05 0.000416837555777725 -0.000104816447697953
"5" 0.000204634836753752 -0.00021653641753853 -8.89834009980215e-05 -1.87698215625809e-05 -0.00016762911815029 -0.000242938292707492 -0.000218674266361488 -0.00032904746750657 -9.981791420723e-05 -2.13444622184627e-05 0.000178786148190613 -0.000215423807982248 0.000346092973691256 -7.76081216242055e-05 0.0003890593931033 -0.000123181821418753
"6" 0.000197224383449864 -0.000213683856830108 -0.000100467330241685 -3.42284528355922e-05 -0.000171068479346396 -0.000241991288445912 -0.000221052220956886 -0.000326679663345853 -0.000114978690971054 -3.20560702739649e-05 0.0001654510390138 -0.000215380561363045 0.000333194416751716 -8.34995206299794e-05 0.00036023022026464 -0.000141292565996718
"7" 0.000189759897327487 -0.000209425598856531 -0.000112100374393859 -4.96644626863837e-05 -0.00017448406616958 -0.000240623399785241 -0.000222966985908671 -0.000323896793385649 -0.000129540908622617 -4.23624959110032e-05 0.00015256487613521 -0.000215223323464843 0.000320550046125542 -8.8915843014287e-05 0.000330481409700207 -0.00015906533800591
"8" 0.000182292332434163 -0.000203746797184774 -0.000123817765556506 -6.50324849958088e-05 -0.000177852503160359 -0.000238841499574309 -0.000224391239748796 -0.000320699346149543 -0.000143437206102668 -5.22268557835529e-05 0.000140187274519158 -0.000214957401099746 0.000308243293670766 -9.38216587819889e-05 0.000299945158453612 -0.000176421104208912
"9" 0.000174867695109467 -0.000196637642878082 -0.000135551569499675 -8.02839776653049e-05 -0.0001811450363233 -0.000236667236615327 -0.00022530174595652 -0.000317094695045347 -0.000156596639082429 -6.16152148385585e-05 0.000128380427342544 -0.000214579528591084 0.00029633908184641 -9.81850986124151e-05 0.000268762957157572 -0.000193290943556785
"10" 0.000167540939412141 -0.000188111179157567 -0.000147232098310902 -9.53672281957313e-05 -0.00018433688825482 -0.000234117261347945 -0.000225678544618796 -0.000313099602161358 -0.000168953267860818 -7.04906936948015e-05 0.000117198259177946 -0.000214080188955639 0.000284911701614875 -0.000101974805398685 0.000237077796991348 -0.000209602475993888
"11" 0.00016036524414682 -0.000178174051462262 -0.000158789770391806 -0.000110236787396167 -0.000187401814802328 -0.000231219107707741 -0.00022549635071126 -0.000308724523073203 -0.00018045543199112 -7.88112938666815e-05 0.000106686887040747 -0.000213445014956855 0.000274029122374093 -0.000105160569707115 0.000205029224506698 -0.000225301140824696
"12" 0.000153390194039791 -0.000166860235597258 -0.000170157844795058 -0.000124837833721829 -0.000190311051879716 -0.000228003002011915 -0.000224742580649096 -0.000303996296893295 -0.000191042960915397 -8.6535227643568e-05 9.68943668634801e-05 -0.000212653202947385 0.000263752486371143 -0.000107715872765442 0.000172763162449439 -0.000240330497781861
"13" 0.000146662406043124 -0.000154200375729413 -0.00018126401702757 -0.000139127210985364 -0.000193039173541484 -0.000224506681330242 -0.000223404010986598 -0.000298934018415843 -0.000200674443629829 -9.36157083542361e-05 8.78496484962995e-05 -0.000211674717128833 0.00025413613481108 -0.000109614192038577 0.000140420434763252 -0.000254649401919385
"14" 0.00014022627056722 -0.000140246526505681 -0.000192045033759212 -0.000153056814273292 -0.000195556139527782 -0.000220764441372466 -0.000221469228183506 -0.000293571789154134 -0.000209303286684725 -0.000100009150725828 7.95866016868978e-05 -0.00021048094374529 0.000245231849302748 -0.000110837470825894 0.000108134240377535 -0.000268219445721654
"15" 0.000134132185603792 -0.000125048866901454 -0.000202429450584746 -0.000166581421988117 -0.000197833220170443 -0.000216822085010278 -0.000218927422143946 -0.000287931627760491 -0.000216894926894525 -0.000105664593044326 7.21329298718834e-05 -0.000209024133883322 0.000237084694412418 -0.000111361155748518 7.60501485949462e-05 -0.000281009130443299
"16" 0.000128417130022952 -0.00010867892430818 -0.00021235637813707 -0.000179655913054048 -0.000199846879380803 -0.00021272366290173 -0.000215776606465753 -0.00028205585579386 -0.000223418217376941 -0.000110533478849075 6.55007888228725e-05 -0.000207265399788593 0.000229732491199985 -0.00011117089887866 4.42892489397941e-05 -0.000293002438190945
"17" 0.0001231209051703 -9.12130742847156e-05 -0.000221764029832712 -0.000192240536775548 -0.000201567028883179 -0.000208516939394129 -0.000212020017133284 -0.000275979033157618 -0.000228855296804795 -0.000114569083039055 5.97017465684979e-05 -0.00020514886956704 0.000223201235176807 -0.000110256508501587 1.29729348876188e-05 -0.000304184994262328
"18" 0.000118274813043001 -7.27334273090309e-05 -0.000230592840830317 -0.00020429891707554 -0.000202974478863317 -0.000204251827411108 -0.000207658176782542 -0.000269735540606236 -0.000233186666513085 -0.000117717339731912 5.47392187863167e-05 -0.000202618436445533 0.000217513971290162 -0.000108604691425539 -1.77728454123641e-05 -0.000314552654787061
"19" 0.000113914882951194 -5.33299527206714e-05 -0.000238781316074616 -0.000215797562770495 -0.000204033675080781 -0.000199977718414234 -0.00020269681276042 -0.000263363582407014 -0.00023640384592227 -0.000119926304167011 5.06158618984213e-05 -0.000199616242617216 0.000212685380088197 -0.000106208399958588 -4.78452668876458e-05 -0.000324106790533318
"20" 0.000110061810685017 -3.31096934662237e-05 -0.000246285926624061 -0.000226701586540269 -0.000204728702576977 -0.000195747790845293 -0.000197149242530596 -0.000256912360937868 -0.000238507806598529 -0.000121152326601637 4.73167665943449e-05 -0.000196075632746392 0.000208718609729863 -0.00010306932995896 -7.71504076334999e-05 -0.000332862064905906
"21" 0.000106743516423359 -1.21774349627386e-05 -0.000253054465108113 -0.000236986122861627 -0.000205037377900522 -0.000191610422190709 -0.000191036374530016 -0.000250418932430773 -0.000239501822679619 -0.000121342771813062 4.48288696110299e-05 -0.000191931042249515 0.000205608027095864 -9.91882795696597e-05 -0.000105594103642753 -0.000340836024773208
"22" 0.000103976854079414 9.35724912835425e-06 -0.000259042340144152 -0.000246626571595032 -0.000204934041128283 -0.000187620864201825 -0.000184370199690739 -0.000243921739320163 -0.000239395068446829 -0.000120449632755241 4.31334867741727e-05 -0.000187110364332785 0.000203348341770325 -9.45657093804121e-05 -0.000133088706527467 -0.000348054512156777
"23" 0.000101768972420652 3.13681326485266e-05 -0.00026421378744325 -0.000255604646800333 -0.000204404819220046 -0.000183824188735801 -0.000177182556272173 -0.000237468626662585 -0.000238214572969392 -0.000118434291629691 4.22034012202498e-05 -0.000181550425297847 0.000201916263634335 -8.92156733599345e-05 -0.000159574710319012 -0.000354550067402938
"24" 0.000100137003375575 5.37372579375437e-05 -0.000268528076559373 -0.000263902607844162 -0.000203427119056338 -0.000180270477200942 -0.000169495288210477 -0.000231098649442266 -0.000235978026052437 -0.000115251741143774 4.20107540459413e-05 -0.000175177420051902 0.000201288921985026 -8.31493938116932e-05 -0.000184975884876713 -0.000360358186709448
"25" 9.90747580889191e-05 7.63352288332489e-05 -0.000271964278043164 -0.00027150993720246 -0.000201994905922118 -0.000177002850465858 -0.000161344151432298 -0.000224849135752343 -0.000232721933613814 -0.000110869648977209 4.25172347117798e-05 -0.000167924967613778 0.000201427788313458 -7.6384404860487e-05 -0.000209252850942553 -0.000365523919777049
"26" 9.85883907616732e-05 9.90303065069323e-05 -0.000274492383305083 -0.000278422100038225 -0.000200091256884779 -0.000174066034697163 -0.000152765526128909 -0.000218765756395642 -0.000228484861630042 -0.000105252834530963 4.36844303445029e-05 -0.000159724936836241 0.000202295830062595 -6.89430711054229e-05 -0.000232356963796497 -0.000370094955972305
"27" 9.86620835997999e-05 0.00012168735151244 -0.00027610266319736 -0.000284632375323044 -0.000197707063995615 -0.000171498439475623 -0.000143802270946791 -0.000212884111523211 -0.000223310082903047 -9.83772589270731e-05 4.54706689143428e-05 -0.000150520556675406 0.000203843835731853 -6.08500518364581e-05 -0.000254255007314811 -0.000374119129535208
"28" 9.9287365976864e-05 0.00014417988394699 -0.000276778989959223 -0.00029014533144408 -0.000194835072001756 -0.000169334766280808 -0.000134492486845128 -0.000207235825247824 -0.000217249750053237 -9.02230884721472e-05 4.78289835272562e-05 -0.00014025100872117 0.000206017796899001 -5.21362761945125e-05 -0.0002749267168333 -0.000377653067137795
"29" 0.000100450427905583 0.000166370411095361 -0.000276516403033054 -0.000294961907261987 -0.000191476397772103 -0.000167610134488 -0.000124885175456694 -0.000201859162984526 -0.000210354785668029 -8.07816455764231e-05 5.07141555199831e-05 -0.000128869348509946 0.000208769360977093 -4.28331208481647e-05 -0.000294348366241084 -0.000380748140876163
"30" 0.000102122220853511 0.000188125875880259 -0.000275317723007447 -0.000299095399588525 -0.000187626749690137 -0.000166346504455999 -0.000115036445332613 -0.000196785678358456 -0.000202688626458426 -7.00444595724345e-05 5.40730529773257e-05 -0.000116329251076608 0.000212026989006781 -3.29818768522649e-05 -0.000312520019699051 -0.00038346451653445
"31" 0.000104277296547226 0.00020931552034624 -0.000273188162282902 -0.000302555478404173 -0.000183296436207799 -0.000165569413512228 -0.000104994592846985 -0.000192045128064684 -0.000194316613356056 -5.80186856911926e-05 5.78529465243042e-05 -0.000102600769227968 0.000215731849185776 -2.26239127552248e-05 -0.000329440071866868 -0.000385860417219564
"32" 0.000106886776549336 0.000229814855210179 -0.000270143925313864 -0.000305360043391949 -0.000178484208825983 -0.000165295154568156 -9.48162593874458e-05 -0.00018766222850335 -0.000185298928775239 -4.47219365242781e-05 6.20078370708945e-05 -8.76578757110179e-05 0.000219816007314026 -1.18017069820861e-05 -0.00034510544998254 -0.000387985412829057
"33" 0.000109905877705728 0.000249495430978609 -0.000266206049975951 -0.00030752685573648 -0.000173209512454655 -0.000165536374908554 -8.45620833571618e-05 -0.000183661862456734 -0.000175717287532578 -3.01760309021709e-05 6.64780411702119e-05 -7.14893615850246e-05 0.00022421173382271 -5.68092818599847e-07 -0.000359539923434945 -0.00038990302157088
"34" 0.000113302172834152 0.000268245051989461 -0.000261395734598388 -0.000309079174310229 -0.000167481792142356 -0.000166302062297347 -7.42864738676263e-05 -0.000180060016975054 -0.000165634759377753 -1.44156805532432e-05 7.12178367670468e-05 -5.40945815421552e-05 0.000228852732201311 1.10274144137398e-05 -0.000372750068646449 -0.000391656966989969
"35" 0.000117030335012789 0.000285946689880327 -0.000255749394673174 -0.00031004333967691 -0.000161323168627609 -0.000167591748805478 -6.40576400425078e-05 -0.000176879150289547 -0.000155133579172451 2.50847499398391e-06 7.61750628443921e-05 -3.54861164779493e-05 0.000233670789538008 2.292643020454e-05 -0.000384758659496923 -0.000393302018000204
"36" 0.000121037226933986 0.000302495837667513 -0.000249303719972486 -0.000310443541911458 -0.000154755859347876 -0.000169404548671609 -5.39335212732128e-05 -0.000174129477576254 -0.00014428598623275 2.05386325581572e-05 8.13019909058919e-05 -1.56939675582923e-05 0.000238597828089757 3.50717336893206e-05 -0.000395588851494531 -0.00039487881082824
"37" 0.000125276352773424 0.000317794458545443 -0.000242107658926001 -0.00031030905104002 -0.000147808699765746 -0.000171730025869863 -4.39790303802139e-05 -0.000171830008992369 -0.000133171761613298 3.96008397410931e-05 8.6551537891011e-05 5.2389624245805e-06 0.000243573788619407 4.74030385643921e-05 -0.000405265515012222 -0.000396431112653187
"38" 0.000129693661060234 0.000331758379910366 -0.000234202331039864 -0.000309672629646111 -0.000140508329437438 -0.000174560304753301 -3.42513519819387e-05 -0.000169975974094354 -0.000121864693075866 5.96153089833922e-05 9.1878898001356e-05 2.72531894447678e-05 0.000248536995107206 5.98546158835348e-05 -0.000413813681107963 -0.000397992580190798
"39" 0.000134232587954535 0.000344301541794015 -0.000225652944882514 -0.000308563854671732 -0.000132890666918098 -0.000177874118412534 -2.48185372796358e-05 -0.000168586834205398 -0.000110442548853397 8.04829114460426e-05 9.72460308914906e-05 5.02735653405993e-05 0.000253437811909852 7.23630765566293e-05 -0.000421260480180468 -0.000399588576582471
"40" 0.000138837840024974 0.000355357080321978 -0.000216511035296545 -0.000307017510794319 -0.00012499793338484 -0.000181653611238039 -1.57361210386367e-05 -0.000167658774755368 -9.89765424947493e-05 0.000102093634635879 0.000102617332310837 7.42065900916219e-05 0.000258221211309278 8.48602291267424e-05 -0.000427626510369438 -0.000401244549327369
"41" 0.000143448459147407 0.000364866237449804 -0.000206848095651971 -0.000305065578815141 -0.000116869934896369 -0.000185870460453174 -7.06463928001963e-06 -0.000167193861518001 -8.75443994196741e-05 0.000124329941467584 0.000107958851017072 9.89430398469866e-05 0.000262847885443212 9.72818317575097e-05 -0.000432939873846598 -0.000402971927442712
"42" 0.000148012307075109 0.00037278169499057 -0.000196725382282235 -0.000302743750247848 -0.000108549044623117 -0.00019049855035363 1.13943336431534e-06 -0.000167187236300676 -7.62083848779531e-05 0.000147057710544166 0.000113243983986763 0.000124354821371348 0.00026728328262972 0.000109555411788758 -0.000437216038644037 -0.000404778751833151
"43" 0.000152466578880049 0.000379063938937062 -0.000186219667322491 -0.000300081842642107 -0.000100086558934752 -0.00019550544192476 8.82595045105459e-06 -0.000167635848531543 -6.50387467077061e-05 0.000170133912731378 0.000118453940156077 0.000150298036461945 0.000271495786044842 0.000121617372639073 -0.000440474791439119 -0.000406662552736952
"44" 0.00015675779983629 0.000383690520037592 -0.000175403524676323 -0.000297118960826504 -9.15312096637517e-05 -0.000200855305862969 1.5942276683605e-05 -0.000168537033855728 -5.40974261112291e-05 0.000193403611742501 0.000123567555552246 0.000176614029552589 0.000275471745020926 0.000133396126120311 -0.000442728038969549 -0.00040861625366831
"45" 0.000160829768752952 0.000386649671697426 -0.000164355261832279 -0.000293881968183437 -8.29387637927744e-05 -0.000206512853909775 2.24430112600391e-05 -0.000169876535418591 -4.34345786379338e-05 0.000216706798396032 0.000128575435257072 0.000203129553276155 0.000279200557597005 0.000144832704164977 -0.000443984789000394 -0.000410620832243722
"46" 0.000164626045150822 0.000387937137366538 -0.000153149905409072 -0.000290410732272945 -7.43612550891231e-05 -0.000212436734409291 2.82893459678674e-05 -0.0001716458901821 -3.31082950180756e-05 0.000239874078690155 0.000133471543512976 0.000229651091135309 0.000282681206254629 0.000155858755170218 -0.000444244688552703 -0.000412649943461125
"47" 0.000168101147849803 0.00038756820580728 -0.000141869217162302 -0.000286731986412379 -6.58592382171439e-05 -0.000218592366714287 3.34415623506586e-05 -0.000173830495108696 -2.31606975491726e-05 0.000262729419138464 0.000138258294036405 0.000255981212281933 0.000285920735560731 0.000166413519623787 -0.000443506874733709 -0.000414671373928957
"48" 0.000171199761257927 0.000385561382195714 -0.000130590006291881 -0.000282878095617901 -5.74852847124714e-05 -0.000224933100320701 3.78719619161499e-05 -0.000176417082137329 -1.36308181872378e-05 0.0002850929506057 0.00014293717893451 0.000281905597420492 0.000288940106565759 0.000176441246050912 -0.000441768358112198 -0.000416642503842116
"49" 0.000173884931754185 0.000381948725750541 -0.000119391550952578 -0.000278878696263963 -4.93032867080125e-05 -0.000231423498683865 4.15498907025138e-05 -0.000179387580951405 -4.55516549211852e-06 0.000306781436218512 0.00014751952769243 0.000307199907422032 0.000291766678622083 0.000185889175031882 -0.00043900577918725 -0.000418518981965316
"50" 0.000176112841579878 0.000376777153018455 -0.000108350675305066 -0.000274763685909969 -4.13671233495092e-05 -0.000238017393624648 4.44557549371456e-05 -0.000182723524387922 4.04090625389775e-06 0.000327612943463875 0.000152022450861432 0.000331637595321069 0.000294440905584818 0.000194705824469406 -0.000435207167873078 -0.000420241907054222
"51" 0.000177849162808834 0.000370101433177316 -9.75371040815115e-05 -0.0002705627374819 -3.37330078210292e-05 -0.000244679387287184 4.65791434755637e-05 -0.000186399159145357 1.21368822642546e-05 0.000347408413753121 0.000156467792895017 0.000354984503814247 0.000297007352141538 0.000202852122088227 -0.00043034599876733 -0.000421753038281224
"52" 0.000179059849286687 0.000361983098110851 -8.70302662333053e-05 -0.000266302668275509 -2.64631187227861e-05 -0.000251365001918928 4.79038028078529e-05 -0.00019039499964104 1.97182297672206e-05 0.000365988545776196 0.000160879951343715 0.000377005045555614 0.000299522113442225 0.000210285535842813 -0.000424395033606226 -0.000422986961716339
"53" 0.000179721969854224 0.000352494328491199 -7.6889974829899e-05 -0.000262007764699297 -1.96065611437058e-05 -0.000258039894117845 4.84320195227278e-05 -0.000194683447841856 2.67799717767796e-05 0.00038317911178272 0.000165287909000137 0.000397463923843639 0.000302051572897606 0.000216980858211504 -0.000417316729765326 -0.000423870253658418
"54" 0.000179808951316448 0.000341715794776426 -6.71832527978921e-05 -0.000257707947667715 -1.32206729676086e-05 -0.000264668999203773 4.81601794902092e-05 -0.000199234701866394 3.33186900617389e-05 0.000398821410656088 0.000169720736457276 0.000416127755251897 0.000304657171990501 0.000222906983346349 -0.000409083024049575 -0.00042433658418082
"55" 0.000179306328870881 0.000329733649851756 -5.79672687055828e-05 -0.000253427979372712 -7.35154152156956e-06 -0.000271214533908541 4.70960852907617e-05 -0.000204014633038057 3.93364768454149e-05 0.00041276072602661 0.000174217379228583 0.000432775705407978 0.000307422396465895 0.000228054096032844 -0.000399645742913755 -0.000424307931440611
"56" 0.000178199088613458 0.000316638229287038 -4.92949504065757e-05 -0.000249193894758299 -2.05242515709708e-06 -0.000277646379908553 4.52538926857048e-05 -0.00020899063528013 4.48473197315231e-05 0.000424852834641663 0.000178810274629588 0.000447188765837609 0.00031042709664353 0.000232407382527436 -0.000388970689183131 -0.000423711436824031
"57" 0.00017648521527701 0.000302532716528901 -4.12134474597812e-05 -0.00024503219611566 2.63551037610023e-06 -0.000283935191897226 4.26510619109579e-05 -0.000214121412508242 4.98609195800969e-05 0.000434973256378983 0.000183539302086168 0.000459165639320953 0.000313754888891108 0.000235965783351488 -0.000377019195588201 -0.000422469262174734
"58" 0.000174154829772106 0.000287509479056047 -3.37611759748746e-05 -0.000240969895086359 6.6747436360835e-06 -0.000290054681009769 3.93029336729998e-05 -0.00021937077611475 5.43983693439955e-05 0.000443006883878635 0.000188441049485545 0.000468513692262875 0.00031749053959348 0.000238736691201159 -0.000363748074350139 -0.000420509723508897
"59" 0.000171216310678195 0.000271679197275049 -2.69687037156423e-05 -0.00023703242057097 1.00237726649904e-05 -0.000295982428838145 3.52421084807124e-05 -0.000224686932568397 5.84810572133533e-05 0.000448861081728467 0.000193552807296811 0.000475069502329726 0.000321726854749473 0.000240733588615243 -0.000349120138599856 -0.000417764588762595
"60" 0.000167677326517992 0.000255143129891782 -2.08670448288943e-05 -0.000233244191858615 1.26574566746084e-05 -0.000301697382570449 3.04883733599651e-05 -0.000230026645589066 6.21362505616734e-05 0.000452454777161184 0.000198912418461709 0.000478675077068178 0.000326550556117606 0.000241980188457875 -0.000333103528337041 -0.000414165503367152
"61" 0.000163537942260978 0.000238006057808308 -1.54753416352644e-05 -0.000229638735040433 1.45417918187775e-05 -0.000307181650605628 2.5075857749787e-05 -0.000235334752027969 6.53887270789728e-05 0.000453730969224212 0.000204548315142346 0.000479202852978388 0.000332045907742609 0.000242499235380668 -0.000315670556877185 -0.000409655716161049
"62" 0.000158820834590254 0.000220369391280958 -1.0801320373707e-05 -0.000226237849087045 1.56547117789225e-05 -0.000312421326083377 1.90372001195533e-05 -0.000240561452810908 6.82674938168089e-05 0.000452644722237805 0.000210494964746641 0.000476549759556058 0.000338297392236354 0.000242332244825711 -0.000296799998025797 -0.000404179712609492
"63" 0.000153543346083137 0.000202340972045457 -6.85166008028346e-06 -0.000223075667177863 1.59863798542326e-05 -0.000317404400081069 1.24057794567371e-05 -0.000245638070637612 7.08049592923005e-05 0.000449182229118167 0.00021677899212417 0.000470639483878099 0.000345386835303367 0.000241520392749709 -0.000276468498666329 -0.000397688786615315
"64" 0.000147719405979373 0.00018401602644259 -3.62377016016871e-06 -0.000220181403046109 1.55148231652117e-05 -0.000322125338236846 5.22338046920403e-06 -0.000250510609830608 7.30250867890023e-05 0.000443336721204059 0.000223417896654581 0.000461419657324971 0.000353383069937562 0.000240111905229175 -0.000254679874857329 -0.000390147933538204
"65" 0.000141379171972961 0.000165493690942956 -1.10798406015373e-06 -0.00021758255827844 1.42403271333175e-05 -0.000326575692680394 -2.48150294296262e-06 -0.000255109500236959 7.49615881226842e-05 0.00043512700639428 0.000230432315833481 0.000448862853081296 0.000362356123588751 0.000238161327069172 -0.000231428439394779 -0.000381528871009048
"66" 0.00013454117232983 0.000146864681877503 7.08292820080991e-07 -0.000215314724055177 1.21546259599733e-05 -0.000330754319869881 -1.06648000724868e-05 -0.000259373505395398 7.66357990987541e-05 0.00042459304485229 0.000237834742247149 0.000432978133214675 0.000372361674478725 0.000235726969775682 -0.00020673484628287 -0.000371814102062638
"67" 0.000127236111409976 0.000128212680499466 1.84437406868811e-06 -0.00021340901878519 9.26228383817437e-06 -0.000334660993022041 -1.92961770261784e-05 -0.000263228517861913 7.80722811022694e-05 0.000411782352329366 0.000245623941449963 0.000413796052291315 0.000383443492419211 0.000232866374132259 -0.000180619611110701 -0.000360998054134853
"68" 0.000119492721818047 0.000109617633973832 2.33215379260876e-06 -0.000211896482641536 5.57101417847067e-06 -0.000338293606616226 -2.83372924472578e-05 -0.000266608523683422 7.92919835203428e-05 0.000396772909518992 0.000253799438478336 0.000391381578467933 0.000395642778614459 0.000229650877295392 -0.000153125269156632 -0.000349084023723517
"69" 0.000111336304512466 9.11591070657962e-05 2.19925357913235e-06 -0.000210811563798639 1.09230203087715e-06 -0.000341661730824934 -3.77513445860107e-05 -0.000269430600864858 8.03105327410565e-05 0.000379648128774437 0.000262354110358773 0.000365822344118274 0.000408984579344081 0.000226144302502186 -0.000124299170546396 -0.000336090314095386
"70" 0.000102797555627613 7.28972709997654e-05 1.47854063876259e-06 -0.000210188484328864 -4.16060755320352e-06 -0.000344765890902986 -4.75096374351237e-05 -0.000271632609195093 8.11415724942633e-05 0.000360511657361509 0.00027126843284632 0.000337236201758042 0.000423478111093279 0.000222414363038471 -9.42105470698099e-05 -0.000322045032634217
"71" 9.39083751799035e-05 5.48964930440362e-05 2.11722813538598e-07 -0.000210057951144866 -1.01631499288055e-05 -0.000347613655354625 -5.75747829107005e-05 -0.000273132208185704 8.17902903600009e-05 0.000339474947092628 0.000280518072546469 0.000305764588007443 0.000439128638601734 0.000218529092865489 -6.29326828678161e-05 -0.000306989061691517
"72" 8.46938214291823e-05 3.72039986043631e-05 -1.56097936162127e-06 -0.000210453410138756 -1.68965539234714e-05 -0.000350210732652279 -6.79213889569761e-05 -0.000273865435132331 8.22598686269923e-05 0.000316666291613124 0.000290069906266487 0.000271574660526844 0.000455912586809428 0.000214552103246588 -3.05639624080226e-05 -0.000290973446184732
"73" 7.51808783826045e-05 1.98671628791268e-05 -3.79533872037415e-06 -0.00021140396375787 -2.43288863904976e-05 -0.000352565567726395 -7.85208790790253e-05 -0.000273748095962968 8.25477184047456e-05 0.000292221739818711 0.00029988646581625 0.000234853332601396 0.000473809281536355 0.00021055110731367 2.7936769372008e-06 -0.000274065109963985
"74" 6.54005308913424e-05 2.9242434065637e-06 -6.44829814819507e-06 -0.000212941931684696 -3.24300248062074e-05 -0.000354684370498871 -8.93456227913041e-05 -0.000272715608653278 8.26431101222802e-05 0.000266286010613763 0.000309919882687314 0.000195809898964864 0.000492771648024427 0.000206584859463193 3.70168436122541e-05 -0.000256334678852863
"75" 5.53712565388775e-05 -1.3598945009476e-05 -9.4736335553663e-06 -0.000215094420546135 -4.11729328588261e-05 -0.000356576908767555 -0.000100377766867325 -0.000270695533637098 8.25297585032647e-05 0.000239007584674996 0.000320111682459859 0.000154668786354874 0.000512738692928806 0.000202709913032688 7.197137316317e-05 -0.000237876102649673
"76" 4.51218541899707e-05 -2.96795014936604e-05 -1.2822794177341e-05 -0.000217886008016488 -5.05155122972374e-05 -0.000358245239015838 -0.000111595280373389 -0.000267625435425138 8.2191209811633e-05 0.000210545710149032 0.000330404067925993 0.000111672579774942 0.00053364363349747 0.00019897911557652 0.000107510938838237 -0.000218774421509007
"77" 3.46742815384918e-05 -4.53028154420602e-05 -1.6454324965495e-05 -0.000221337699242934 -6.04184292166184e-05 -0.000359695962142442 -0.000122977659535493 -0.000263436368730826 8.15988549113872e-05 0.000181060271888693 0.000340733198214384 6.70756234357704e-05 0.000555400346192505 0.000195441626552842 0.000143479138063987 -0.000199138975414456
"78" 2.40401522630376e-05 -6.04597434933538e-05 -2.0322396808079e-05 -0.000225474568530042 -7.08432739410693e-05 -0.000360934909747894 -0.000134512413563944 -0.000258070094399264 8.07214711496387e-05 0.000150719211998611 0.000351021143895347 2.11448584562448e-05 0.000577901223093717 0.00019213317962974 0.000179703077481564 -0.000179081402896686
"79" 1.32406035347299e-05 -7.51478584268544e-05 -2.43820862919384e-05 -0.000230307922727941 -8.17509154927846e-05 -0.000361963715682136 -0.000146180931959891 -0.000251469286077554 7.95268452014542e-05 0.000119677906833972 0.000361193976476517 -2.58505500535892e-05 0.000601046134721496 0.000189091159311754 0.000216011158462784 -0.000158718891920054
"80" 2.28674431311424e-06 -8.93757258144213e-05 -2.86009368426003e-05 -0.000235853179144487 -9.30957356662812e-05 -0.00036278069647587 -0.000157975727779737 -0.000243589656744531 7.79699611906653e-05 8.8106725730165e-05 0.000371166156802334 -7.36290199562629e-05 0.000624697936036912 0.000186337508371042 0.000252203465144047 -0.000138173594140283
"81" -8.80689834506101e-06 -0.000103148535581721 -3.29337267963783e-05 -0.00024211499803873 -0.000104835997067691 -0.000363387587186402 -0.000169886601877617 -0.000234380385132655 7.60097201181982e-05 5.61649132190749e-05 0.000380857357902771 -0.000121911599082534 0.000648736128811564 0.00018389961292558 0.000288100405294827 -0.000117569892332513
"82" -2.00408706429299e-05 -0.000116483034928417 -3.73474508368732e-05 -0.00024909945761162 -0.000116925589160526 -0.000363777513439298 -0.000181902695702812 -0.000223802796625835 7.36032677724557e-05 2.40120203158433e-05 0.000390176185163622 -0.000170419835624807 0.000673001029433076 0.000181776993923562 0.000323495775693016 -9.70393263643012e-05
"83" -3.13941753027986e-05 -0.00012939392782995 -4.181429390335e-05 -0.000256803177598846 -0.000129316431604976 -0.00036394913959444 -0.000194015498696624 -0.000211828260789412 7.07005388918328e-05 -8.19461593786738e-06 0.00039904246075715 -0.000218870648504298 0.000697352008085063 0.000179984061972556 0.000358192545568729 -7.67086144617056e-05
"84" -4.28769826573938e-05 -0.000141907492763997 -4.63034257432839e-05 -0.000265221362061478 -0.000141972486397356 -0.000363889808601389 -0.000206220096178618 -0.000198431822229886 6.7250164499122e-05 -4.03052175370056e-05 0.000407359155576956 -0.000266992946523929 0.000721626443634048 0.000178508807783359 0.000391983190506106 -5.6708865205754e-05
"85" -5.44816921801695e-05 -0.000154044761437612 -5.07903366589746e-05 -0.000274338261952809 -0.000154842041335583 -0.000363593867332092 -0.000218509746432498 -0.000183595636377888 6.32075369532834e-05 -7.21775907456516e-05 0.000415045240969731 -0.000314521964256756 0.000745657399184427 0.000177343616760687 0.000424673502653523 -3.71640680045655e-05
"86" -6.62118197879194e-05 -0.00016583058158417 -5.52582413912115e-05 -0.000284137587662966 -0.000167882330582237 -0.000363044849803196 -0.000230875615826547 -0.000167313180654304 5.8519781935917e-05 -0.000103669446746283 0.000422011978911746 -0.000361196140379575 0.000769283402808524 0.000176466384412905 0.000456061729600848 -1.81965476920375e-05
"87" -7.80646631552305e-05 -0.000177295297437044 -5.96893386374351e-05 -0.0002945952464935 -0.000181051859111362 -0.000362229580892762 -0.000243312646380826 -0.000149584759925843 5.31477842234876e-05 -0.00013465279992104 0.000428183671394209 -0.000406773354160134 0.000792334129720436 0.000175854070203549 0.000485955289783223 7.73476795234023e-08
"88" -9.00422824305558e-05 -0.000188461796897919 -6.40703037568485e-05 -0.000305681113585689 -0.000194305545687439 -0.000361134757929572 -0.000255811616849266 -0.000130421066827866 4.70410107191429e-05 -0.000165003005140121 0.000433479386911267 -0.000451016387223606 0.000814644693572813 0.000175476448759128 0.00051417490071786 1.75494841754545e-05
"89" -0.00010215161036754 -0.000199362307329993 -6.83945607021212e-05 -0.000317360277539032 -0.000207606729577948 -0.000359739432309555 -0.00026836328273687 -0.000109845637308307 4.01665345837373e-05 -0.000194607821519287 0.000437829306900259 -0.000493708780049654 0.000836046677176108 0.000175292489245964 0.000540540002354407 3.411320928994e-05
"90" -0.000114392636889504 -0.000210021738921222 -7.2654679874945e-05 -0.000329586455994242 -0.00022090832450224 -0.000358025100131564 -0.000280956406701011 -8.78873579809368e-05 3.2486764575526e-05 -0.00022336200539337 0.000441170876491331 -0.000534648820311861 0.000856388692331084 0.000175261780152541 0.000564894818829597 4.96826702969034e-05
"91" -0.000126771721220047 -0.000220462234339216 -7.68541649256259e-05 -0.000342320266068311 -0.000234177629723982 -0.000355976951845773 -0.000293575365188184 -6.45887320931353e-05 2.39773771655673e-05 -0.000251170002490604 0.000443443729816575 -0.000573653060830297 0.000875513709589611 0.000175337234380362 0.000587085084957923 6.41714474478953e-05
"92" -0.000139280706534357 -0.000230709401093245 -8.09878048951369e-05 -0.0003555016082682 -0.000247373204108658 -0.000353569813702383 -0.000306209016416548 -4.00025124027931e-05 1.46206995914708e-05 -0.000277946437115514 0.000444606895976663 -0.000610552338423957 0.000893287094061197 0.000175474428086823 0.000606989700622602 7.75157385346029e-05
"93" -0.000151932643259713 -0.000240783850915309 -8.50703481579362e-05 -0.000369075845793932 -0.000260459207957793 -0.000350787926475301 -0.000318836699324526 -1.41952800664714e-05 4.39906354544746e-06 -0.000303616636718135 0.000444618699456531 -0.000645205665808819 0.000909567089455683 0.000175618759949563 0.000624486195937766 8.96548304869388e-05
"94" -0.000164715224723005 -0.000250701508732058 -8.9098346551629e-05 -0.000382977374598601 -0.000273405054503548 -0.00034760906182601 -0.000331437654550512 1.27566233985557e-05 -6.68440541506354e-06 -0.000328115974288539 0.000443456673123279 -0.000677485874312651 0.000924245687431843 0.000175721432786353 0.000639488963769697 0.000100548201569418
"95" -0.000177628295809543 -0.000260475991993061 -9.3090199295281e-05 -0.000397138589156944 -0.000286175460586688 -0.000344017358721126 -0.000343988744722606 4.07675276920284e-05 -1.8624882018951e-05 -0.000351391931418012 0.000441101555361778 -0.00070729101483098 0.000937211426558821 0.000175725853144644 0.00065192202267613 0.000110162158499738
"96" -0.00019066154029051 -0.000270120321717172 -9.70533770027834e-05 -0.000411485489528161 -0.000298738704005869 -0.000339998594600579 -0.000356456823547053 6.97377961251697e-05 -3.14020983757159e-05 -0.00037340217609143 0.000437555435403537 -0.000734542971676505 0.000948387449482025 0.000175589654693972 0.000661744152173623 0.000118486452881808
"97" -0.000203807109728785 -0.000279637241071516 -0.000100999209426568 -0.000425942734412035 -0.000311067902160605 -0.000335535441286052 -0.000368820052175699 9.95542829644068e-05 -4.49862474195847e-05 -0.000394114231172275 0.000432823022062778 -0.000759183385809476 0.000957700157884788 0.000175260597497067 0.000668929290705068 0.000125518526263537
"98" -0.000217047449195103 -0.000289029280815641 -0.000104943331158217 -0.000440428179136326 -0.000323133922375945 -0.000330620156391777 -0.000381032433133337 0.000130100377218081 -5.93372063257216e-05 -0.000413505016426496 0.000426936191217634 -0.000781175517747854 0.000965101333362175 0.000174698718547871 0.000673479617343712 0.000131274631689443
"99" -0.000230364479805045 -0.000298293168508301 -0.000108896871726359 -0.000454859778548446 -0.000334912605396263 -0.000325243645755224 -0.000393065498429115 0.000161240478957625 -7.44001668901579e-05 -0.000431561689755048 0.000419922116805305 -0.000800507881585394 0.000970561287186727 0.000173859088498473 0.000675424747036779 0.000135780141809203
"100" -0.000243735540029809 -0.000307423860881158 -0.000112875914410085 -0.000469151416015424 -0.000346378039821036 -0.000319404873741772 -0.000404871195129456 0.000192838519396124 -9.01115584504936e-05 -0.000448283183220751 0.000411837662384095 -0.000817189344299659 0.000974075065570472 0.000172714286571872 0.000674817956277705 0.000139082086203567
"101" -0.000257126918864122 -0.000316405439330939 -0.000116888820860377 -0.000483212297427007 -0.000357508250464277 -0.000313100824319794 -0.000416404511110641 0.000224738426921398 -0.000106389642414144 -0.000463673357458631 0.000402745563319893 -0.000831248671632874 0.000975655892750104 0.000171235118496144 0.00067174170685113 0.000141235056159455
"102" -0.000270513249538041 -0.000325221380690578 -0.000120949903823113 -0.000496956761183655 -0.000368282445859366 -0.000306341672345955 -0.000427621431915624 0.000256783967290247 -0.000123150807365515 -0.000477749509456645 0.00039271723832397 -0.000842741119755085 0.00097534199488318 0.000169400794982446 0.000666299123098961 0.000142308072108717
"103" -0.000283847263301123 -0.000333845994353874 -0.000125063427112308 -0.000510294532511657 -0.00037867967263393 -0.000299136764705606 -0.000438460201155269 0.00028881515628121 -0.000140288182101667 -0.000490531311864477 0.00038185107888452 -0.000851733737366435 0.000973192723765234 0.000167205994932962 0.000658632254673199 0.000142387420678671
"104" -0.000297097566880071 -0.000342258768934713 -0.000129239460050893 -0.000523137052996216 -0.000388681759821731 -0.000291503686116215 -0.000448878844127742 0.000320651954911768 -0.000157691682013845 -0.000502045160845296 0.000370240349877808 -0.000858315177983923 0.000969291151594735 0.000164645931976286 0.000648887073713328 0.000141561559639286
"105" -0.000310207275922169 -0.000350422131884201 -0.000133481162568925 -0.000535397746722631 -0.00039827059716859 -0.000283466894722804 -0.000458812207994262 0.000352123687950599 -0.000175238639185111 -0.000512329401595609 0.000358001829519845 -0.000862596141585321 0.000963737497435147 0.000161730218610135 0.000637252053777315 0.000139937530378957
"106" -0.000323133592021653 -0.000358303941058374 -0.000137788457019376 -0.000546989163015689 -0.000407432081738998 -0.000275057542275687 -0.000468204212122639 0.000383052794965983 -0.000192795475737027 -0.000521422417358229 0.000345257485416898 -0.000864696429736742 0.000956653736033917 0.000158475798711696 0.000623923994571133 0.00013762374083479
"107" -0.000335811980682464 -0.000365861766913523 -0.000142154357113277 -0.000557826684357976 -0.000416143249540026 -0.000266308120075203 -0.000476995180237949 0.000413259800069832 -0.000210217533809097 -0.000529361180404946 0.000332142894991052 -0.000864748718229409 0.000948189464305372 0.00015491708797867 0.000609134188580092 0.000134745651009812
"108" -0.000348188666359136 -0.000373054278917187 -0.000146574631441385 -0.000567833741385668 -0.00042439551417138 -0.000257262281765977 -0.00048512585248945 0.000442558071246487 -0.000227362070183068 -0.000536197641817726 0.00031879698356879 -0.000862905140817729 0.000938506073739502 0.00015109123843387 0.000593116847703855 0.000131422792651603
"109" -0.000360203417991904 -0.000379833975489729 -0.000151035865322366 -0.00057693173226005 -0.000432170998407488 -0.000247972816251657 -0.000492534737847807 0.000470776384851587 -0.000244071348883643 -0.000541973825787762 0.000305368141590444 -0.000859322719079446 0.000927780570449843 0.000147050455940588 0.00057613306819659 0.000127785232223887
"110" -0.000371788197276041 -0.000386154959570052 -0.000155519831765032 -0.000585053448078844 -0.000439460417560515 -0.00023849247703186 -0.000499162322992502 0.000497735503908504 -0.000260182951983327 -0.000546741304290488 0.000292010185041764 -0.000854165706267193 0.00091620992216831 0.000142859904989826 0.000558450924894735 0.000123968750208129
"111" -0.000382876926229468 -0.000391961348128558 -0.000160004472284298 -0.000592132613171419 -0.000446239653072161 -0.000228886604594595 -0.000504951737691159 0.000523268654762349 -0.000275539410704005 -0.000550548622414946 0.000278879721034857 -0.00084760869984533 0.000904005989632626 0.000138590601710231 0.000540357370095348 0.000120103361761725
"112" -0.000393400593561108 -0.000397206423064406 -0.000164464839415845 -0.000598110718740461 -0.000452503614794156 -0.000219222857261857 -0.000509846819542266 0.000547215575127777 -0.000289969997399816 -0.000553440329645752 0.000266140861509042 -0.000839828985079613 0.00089138641702766 0.000134330224763371 0.000522140402776836 0.000116321835287036
"113" -0.000403287352724219 -0.000401834097261062 -0.000168868171747126 -0.000602934822814051 -0.000458238274913876 -0.000209572301184731 -0.000513791748512366 0.000569422047644023 -0.000303312475156649 -0.000555463818652125 0.000253955975468734 -0.000831004553995557 0.00087858666897233 0.000130169534377274 0.000504099136302244 0.000112754697328971
"114" -0.000412472756003444 -0.000405796211149433 -0.000173176334701972 -0.000606566604527293 -0.000463425103683989 -0.000200019177207734 -0.000516742870834068 0.000589747116396424 -0.000315408236972424 -0.000556662868268949 0.0002424786531833 -0.000821312866887812 0.000865836619180339 0.000126212389607409 0.000486528653398391 0.00010952521660461
"115" -0.000420886439450451 -0.000409035435287615 -0.000177348610665263 -0.000608968755080508 -0.000468050562842693 -0.00019064216305974 -0.000518645716094394 0.000608060804374937 -0.000326090922777032 -0.000557076383050248 0.000231875976483869 -0.000810933005563271 0.000853385370226621 0.000122572533080181 0.000469732021891991 0.000106755846890912
"116" -0.000428455015928494 -0.000411503393212173 -0.000181339380278356 -0.000610114140954948 -0.000472103033278755 -0.000181532478651131 -0.000519464012185065 0.000624250673463139 -0.000335207864470523 -0.000556740314873513 0.000222302910492464 -0.000800035595170892 0.000841477681286412 0.000119371133704334 0.000454002899669881 0.000104561154913341
"117" -0.000435118668449407 -0.000413159017283587 -0.000185097252377599 -0.000609983904756809 -0.000475568067560396 -0.000172780180962803 -0.000519162796058436 0.000638216122317505 -0.000342616706341827 -0.000555692416878308 0.00021390164854737 -0.0007887916978421 0.000830358039882359 0.000116730631852947 0.000439630987921776 0.00010303737288332
"118" -0.000440810390223891 -0.000413948152295704 -0.000188567140838223 -0.000608576059338594 -0.000478432398815808 -0.000164476777349098 -0.000517711884825228 0.000649875797078126 -0.000348175212146079 -0.000553957145537959 0.000206823495493119 -0.000777356489109631 0.000820265424681508 0.000114783621951129 0.000426896976805619 0.000102285543278696
"119" -0.000445466008702309 -0.000413835773216188 -0.000191695034859969 -0.000605887551101014 -0.000480679773791221 -0.000156717100443106 -0.000515083927387017 0.000659166648483983 -0.000351756607723692 -0.000551558974624089 0.000201196695588078 -0.000765883768848871 0.000811441238012163 0.000113665347957344 0.000416067861394397 0.000102386560889819
"120" -0.000449030300868888 -0.000412782834686905 -0.000194413694011837 -0.000601932548212718 -0.000482291517838288 -0.000149594518912839 -0.000511267379874479 0.000666046748525783 -0.000353247585251068 -0.000548517930298338 0.000197148666860239 -0.00075451122110426 0.000804116355289674 0.0001135171897273 0.000407401327008095 0.000103409114544695
"121" -0.000451448240253507 -0.000410763647971261 -0.000196664919340906 -0.000596731473352038 -0.000483263500627595 -0.000143202301870925 -0.00050625275374946 0.000670489200455685 -0.000352546941003859 -0.000544850298117746 0.000194785070361966 -0.000743367946856829 0.000798502690367484 0.000114469780230654 0.000401125414420894 0.000105407838667132
"122" -0.000452673495560238 -0.000407746363688486 -0.000198379390343019 -0.000590315881944686 -0.000483570564634489 -0.000137631873465437 -0.000500037945705137 0.000672488903178263 -0.000349565045549616 -0.000540567381799115 0.000194212130150134 -0.000732568588988031 0.000794810816335399 0.000116666265685813 0.000397461203992947 0.000108431082246913
"123" -0.000452664245927062 -0.000403719520289013 -0.000199499408377276 -0.00058272713231664 -0.000483207517409152 -0.000132969554501538 -0.000492630741852327 0.000672064826185956 -0.000344238690500711 -0.000535674781389102 0.000195508515113666 -0.000722212341700733 0.000793231350227196 0.000120239466971202 0.000396595752257412 0.00011250066864402
"124" -0.000451378050885138 -0.000398670823339781 -0.000199952260769573 -0.000574014952463938 -0.000482157334318697 -0.000129299696936686 -0.00048404534757365 0.000669258818441495 -0.000336513893185098 -0.000530175032765124 0.000198748063194339 -0.000712385217961306 0.000793939009332228 0.000125322088502615 0.000398704415858347 0.000117631774564198
"125" -0.000448787648134282 -0.000392592733818188 -0.00019967235612599 -0.00056423814644879 -0.000480404908647248 -0.000126700148503317 -0.000474304613287289 0.000664128297674095 -0.000326361002908093 -0.000524064591691652 0.000203979234066655 -0.000703157204481308 0.000797084280393814 0.000132034140455294 0.000403923177694115 0.000123822614880905
"126" -0.000444868316175554 -0.000385494752079362 -0.00019860142871254 -0.000553463707539681 -0.000477941024063662 -0.000125240627740447 -0.00046344461711594 0.000656757374816718 -0.000313767059101286 -0.000517342207304955 0.000211238562134179 -0.000694581922143033 0.000802801107477685 0.000140494999309794 0.000412365303037837 0.000131053175751316
"127" -0.000439605933855415 -0.000377386690790784 -0.000196670507831585 -0.000541766144777471 -0.00047475456345632 -0.000124986006544211 -0.000451501197006511 0.000647244981775787 -0.000298745198637426 -0.000509995115972763 0.000220538993137482 -0.000686694053559776 0.000811197699777714 0.000150810535532464 0.000424110938328665 0.000139290533384378
"128" -0.000433001510550271 -0.000368296906310847 -0.000193830224274759 -0.000529228036390329 -0.000470835916343939 -0.000125989015808577 -0.00043852794975436 0.000635716713861372 -0.000281329217569278 -0.00050201534696063 0.000231879274801986 -0.000679516968528333 0.000822353039619482 0.000163071691749106 0.000439210107834397 0.000148482998244464
"129" -0.000425045254477738 -0.000358248775214709 -0.00019001746886244 -0.00051593790318508 -0.000466176505791893 -0.000128295358434436 -0.000424582443559405 0.000622317370980063 -0.000261570655623463 -0.000493391095192371 0.000245238233240171 -0.000673054051438783 0.000836326917673542 0.000177365006887832 0.000457682928702653 0.000158572445578141
"130" -0.00041576160601023 -0.000347288438582338 -0.000185188149628235 -0.000501988836542884 -0.000460774056963142 -0.000131936884552591 -0.000409729510383449 0.000607206833915541 -0.000239548050450511 -0.000484104090368132 0.000260566896840747 -0.000667290062269841 0.000853142932093311 0.000193752878097992 0.000479508017708879 0.000169475647898571
"131" -0.000405166333133139 -0.000335463049874541 -0.000179296102744765 -0.000487482848059055 -0.000454622018571206 -0.000136935666363426 -0.000394045918924222 0.000590565776657767 -0.000215364028797317 -0.000474138767622127 0.000277805354469087 -0.000662196812139845 0.000872796211937266 0.000212283656690072 0.000504628440586546 0.000181103376525019
"132" -0.000393298058708637 -0.000322833782982119 -0.000172302651459259 -0.000472520486136876 -0.000447722299186659 -0.000143302966067054 -0.000377615858858362 0.000572592560626555 -0.000189141135681742 -0.000463477666401732 0.000296863411008549 -0.000657730541277793 0.000895251976348432 0.000232986358731233 0.000532961611477481 0.000193352408648401
"133" -0.000380204548750805 -0.000309468344605082 -0.000164181253273106 -0.000457209810275582 -0.000440076028341113 -0.000151030259613201 -0.000360531601278854 0.000553497264656416 -0.000161026637465294 -0.000452102738898882 0.000317637141951678 -0.000653832364244652 0.000920444044138544 0.000255870964025264 0.000564378801714294 0.000206103847109209
"134" -0.000365938630792249 -0.000295444904283618 -0.000154905195801366 -0.000441659086055378 -0.000431687698345153 -0.000160104728471078 -0.000342891101810139 0.000533509549510121 -0.000131190181619523 -0.00043999847578746 0.000339996270528122 -0.000650427360208834 0.000948269934304149 0.000280925316773275 0.000598724303155455 0.000219233815369361
"135" -0.000350573618993963 -0.000280843811920711 -0.000144462446318405 -0.000425976930862708 -0.000422565128993181 -0.000170490658993711 -0.000324799043640604 0.000512871503723051 -9.982006689333e-05 -0.000427142382914079 0.00036379808877778 -0.000647427550179286 0.000978599265518845 0.000308118796631836 0.000635801426449946 0.000232609317435877
"136" -0.000334187976449964 -0.000265761307169259 -0.000132846941121243 -0.000410277053150538 -0.00041272409360038 -0.000182145336441222 -0.000306368783336027 0.000491833788350392 -6.71248719423288e-05 -0.000413522440718258 0.000388870933819465 -0.000644736111326109 0.00101126552458642 0.000337387467835519 0.000675381183506931 0.000246082632360311
"137" -0.000316876645529447 -0.000250300558457532 -0.000120061748703334 -0.000394668076058164 -0.000402177204174272 -0.000195005374773667 -0.00028771881680566 0.000470651956033963 -3.33367826945953e-05 -0.000399117376641258 0.000415026920714046 -0.000642241428645439 0.00104606887142325 0.000368650054222547 0.000717197845689065 0.000259507662910253
"138" -0.000298749551519854 -0.000234568329129992 -0.000106119360086873 -0.000379258439228685 -0.000390946226020945 -0.000209001416726038 -0.000268974883119033 0.000449600486361563 1.30225242763013e-06 -0.000383917159892404 0.000442064473502014 -0.000639822532917463 0.00108278292630919 0.000401801571305161 0.000760959454615644 0.000272729496797292
"139" -0.000279918693500798 -0.000218677268296186 -9.10462262674853e-05 -0.00036415537418399 -0.000379050464346087 -0.00022404205011596 -0.000250261805673511 0.000428949122382919 3.65244292305744e-05 -0.000367912395819959 0.000469759979608369 -0.000637355850501768 0.00112114245976914 0.000436702970230612 0.000806342154672883 0.000285589538985755
"140" -0.000260509476493146 -0.000202747544095482 -7.48750516629925e-05 -0.000349460392103026 -0.000366518646988469 -0.000240028228537977 -0.000231708108533273 0.000408977396609113 7.20624209445495e-05 -0.000351095224563791 0.00049787918930867 -0.000634705364572754 0.00116086010828522 0.000473200116005665 0.000852994762030984 0.000297933037418226
"141" -0.000240668828999342 -0.000186904689190391 -5.76479752153406e-05 -0.00033527510507998 -0.0003533827338305 -0.000256844313608908 -0.000213455492160138 0.000389958300774669 0.000107618576979829 -0.000333455785487018 0.000526167705161659 -0.000631732043954326 0.00120161158201405 0.000511104755283968 0.000900534409337621 0.000309596702694911
"142" -0.000220539781116824 -0.00017127974335817 -3.94252217955962e-05 -0.000321690664747742 -0.000339675666830496 -0.000274364167955885 -0.000195632396749642 0.000372167482264374 0.000142906947622236 -0.000315001500052622 0.000554367489892378 -0.00062829769510871 0.00124305881274612 0.000550206573087848 0.000948566013835075 0.000320428427274904
"143" -0.000200272827666145 -0.000155999878693216 -2.02642485217045e-05 -0.000308796306708017 -0.000325434452300886 -0.000292451920187983 -0.000178377379818192 0.000355878490158804 0.000177620690222806 -0.000295735448749677 0.000582206940221191 -0.000624255281916751 0.00128483290902746 0.000590271801538438 0.000996675785577673 0.000330274898302767
"144" -0.000180033170481277 -0.000141200778831415 -2.43131957306395e-07 -0.000296674198145859 -0.000310700650303271 -0.000310958333994754 -0.000161820636796171 0.000341349516155785 0.000211457523266795 -0.000275667542172523 0.00060940337348299 -0.00061947120874242 0.00132654483274232 0.000631041298098216 0.00104442127814234 0.00033899306663295
"145" -0.000159987082858658 -0.000127016370930846 2.05502692547644e-05 -0.000285397348773091 -0.000295520325448841 -0.000329730361027042 -0.000146093320012247 0.000328834525089183 0.000244110286127549 -0.000254822712956702 0.000635679222063157 -0.000613805375925072 0.00136779587239649 0.000672235867589002 0.00109136820045861 0.000346442259522425
"146" -0.000140304718725608 -0.000113581965328785 4.20275924262687e-05 -0.000275030550637354 -0.000279940613814289 -0.000348600224646925 -0.000131321124689564 0.000318572239086775 0.000275275359349118 -0.000233224716650387 0.000660747419428265 -0.000607131053769674 0.00140816497149014 0.000713548831128794 0.00113706097663866 0.000352494266863939
"147" -0.000121148042717469 -0.000101029322113347 6.40795155744915e-05 -0.000265631936869505 -0.000264009893997687 -0.000367401016963852 -0.000117622230492368 0.000310784269872559 0.000304659708414912 -0.000210914053505739 0.000684326190095193 -0.000599326324721291 0.00144723285664012 0.00075466298454368 0.00118105343095126 0.000357038840068878
"148" -0.000102691854822956 -8.94887629873551e-05 8.65966388412035e-05 -0.000257244821550822 -0.000247786150606974 -0.00038595583776258 -0.000105114618333548 0.000305668434298641 0.000331973158205468 -0.000187931771608579 0.00070613325932931 -0.000590278754360826 0.00148455858478962 0.000795238182569217 0.00122289171028943 0.000359970081621722
"149" -8.50931623700075e-05 -7.90887830815807e-05 0.000109456217609972 -0.000249905846313693 -0.000231320402965859 -0.000404084874624224 -9.38979101353352e-05 0.00030340462969068 0.000356941090178187 -0.000164341968575738 0.000725900471534329 -0.000579897787864119 0.00151972286566906 0.000834918730906576 0.00126214209026417 0.000361198605233756
"150" -6.85133157248036e-05 -6.99492064646639e-05 0.000132526235816434 -0.000243642998375597 -0.000214671639880727 -0.000421610748079634 -8.40663652690913e-05 0.000304142418103132 0.000379306204387713 -0.000140210433689933 0.0007433630142593 -0.000568099828836171 0.00155229102144535 0.000873341305786007 0.00129837543585395 0.000360660534584617
"151" -5.31030230453892e-05 -6.21916012699614e-05 0.000155678034565103 -0.000238466472564485 -0.000197901318369292 -0.000438352213153298 -7.57024695737589e-05 0.000308005425316925 0.000398828612044217 -0.000115619829863627 0.000758273242643901 -0.000554822444420876 0.00158185293896871 0.000910130879614239 0.00133118762372326 0.000358299346969771
"152" -3.8991107267015e-05 -5.59191117245261e-05 0.000178761354804393 -0.00023437535154126 -0.000181073987446098 -0.000454129931765578 -6.88722574035738e-05 0.000315074032232953 0.000415287218044448 -9.0664502826028e-05 0.000770403530059086 -0.000540025938738189 0.00160800708228538 0.000944908587716494 0.00136019720091569 0.000354088278910533
"153" -2.63073995915788e-05 -5.12366405035675e-05 0.000201633164562789 -0.000231359305239502 -0.00016425299126324 -0.000468773015939029 -6.36281085692679e-05 0.000325413428200657 0.0004284888614717 -6.54512227712751e-05 0.000779536754220673 -0.000523687304177673 0.00163036773530002 0.000977289672667626 0.00138505388126046 0.000348017584123237
"154" -1.51655303349129e-05 -4.82325395496073e-05 0.000224136771980925 -0.000229397512946931 -0.000147502722640625 -0.000482110200231688 -6.00094336225991e-05 0.00033902421117552 0.000438266056166853 -4.01019067483314e-05 0.000785484912500901 -0.000505812561853527 0.00164857551056957 0.00100689098589935 0.00140543009066326 0.000340094443256776
"155" -5.64979187815019e-06 -4.69892185905745e-05 0.000246114815822608 -0.000228448596717339 -0.000130894610630379 -0.000493977087588862 -5.80356447116869e-05 0.000355894368324336 0.000444480786466864 -1.47428698529781e-05 0.000788086024544267 -0.000486421752946033 0.00166230368747764 0.00103334036603162 0.00142105242974872 0.000330360869303483
"156" 2.15474253746324e-06 -4.7576180465284e-05 0.000267411304880689 -0.000228464896313276 -0.000114499389543654 -0.000504225802187403 -5.77142103930448e-05 0.00037595177754589 0.000447025901858832 1.04790002900351e-05 0.000787193887101568 -0.000465571515415108 0.001671252470591 0.0010562689335648 0.00143167873480893 0.000318869715599006
"157" 8.19169266687863e-06 -5.00488874797098e-05 0.000287861552407502 -0.000229385221019708 -9.83881378028502e-05 -0.000512705496695738 -5.90340624777792e-05 0.000399092487600196 0.000445824259242077 3.54121174169205e-05 0.000782700293446977 -0.000443335303690838 0.00167515652498801 0.0010753205494812 0.00143711528160224 0.000305703768565444
"158" 1.24276947843139e-05 -5.44535561495402e-05 0.000307300703188961 -0.000231134175802835 -8.26372702965082e-05 -0.000519289991235948 -6.19620292794235e-05 0.000425168938352381 0.000440831895053322 5.98967581549905e-05 0.000774522976612816 -0.000419812963275126 0.00167379285334128 0.00109015778993486 0.00143721118409459 0.000290968751240127
"159" 1.48324097455794e-05 -6.08130082190585e-05 0.00032557283665939 -0.000233626366614098 -6.7319567242223e-05 -0.000523859184850686 -6.64592025723523e-05 0.000453994909471588 0.00043204385122095 8.37674252673403e-05 0.000762612042937528 -0.000395126828121248 0.00166698588470184 0.00110046431765164 0.00143187328041302 0.000274788214850237
"160" 1.54113376673228e-05 -6.91455583205292e-05 0.000342512931015701 -0.000236770234990702 -5.25157798534935e-05 -0.000526310753545489 -7.24610263826507e-05 0.000485340135842998 0.000419477620888895 0.000106846116213287 0.00074694112217576 -0.000369425445735092 0.00165459192039088 0.00110595029849408 0.00142105084534158 0.00025730729026279
"161" 1.41741277701013e-05 -7.9451497957932e-05 0.000357968159253889 -0.000240456585237839 -3.83057265973803e-05 -0.000526552326071212 -7.98955637713951e-05 0.00051894119135888 0.00040319541977541 0.00012896319172753 0.000727526262033538 -0.000342877257928817 0.00163652466061613 0.00110635392727869 0.00140474835670247 0.00023869153109776
"162" 1.11582929731648e-05 -9.17084526894801e-05 0.0003717830919577 -0.000244574309041074 -2.47654265667022e-05 -0.000524515402557699 -8.86707676351287e-05 0.000554496938447903 0.000383288527888523 0.000149945544363359 0.000704404925290456 -0.000315661885569884 0.00161274091239018 0.00110144411618365 0.00138302035172208 0.000219128094715127
"163" 6.40850913604875e-06 -0.00010588612843461 0.000383816372386057 -0.00024900305246741 -1.19812810333759e-05 -0.000520147590718757 -9.869109567681e-05 0.000591674351319341 0.000359877354948661 0.000169617063504703 0.000677649254424265 -0.000287986738445732 0.00158324225111646 0.0010910283342272 0.0013559707546008 0.000198812788946772
"164" -1.13579303363384e-08 -0.000121931558606154 0.000393931788184295 -0.000253618714712368 -3.53686670747644e-08 -0.000513411128549699 -0.00010984119967493 0.000630121970051796 0.000333113990042287 0.000187817011262726 0.000647356861839725 -0.000260064102129133 0.00154808224412233 0.00107495143294298 0.00132374844422488 0.000177958594535897
"165" -8.03334141793435e-06 -0.000139780843116559 0.000401998384907595 -0.000258291239101294 1.09959397508647e-05 -0.000504291506202817 -0.000121999848509987 0.000669451618423617 0.000303178141651728 0.000204387252068318 0.00061365915169222 -0.000232119348998366 0.00150735716923734 0.00105309882953881 0.00128655095171575 0.000156786624898289
"166" -1.75697050914905e-05 -0.00015935513741062 0.00040790191625523 -0.000262889736557721 2.10260585990627e-05 -0.000492787801960661 -0.000135044451676731 0.000709264645394096 0.000270279424988981 0.000219179216444491 0.000576705566238682 -0.000204380794754625 0.00146121055023043 0.00102540167836231 0.00124461566786192 0.000135526128976274
"167" -2.85227281058498e-05 -0.000180551550047117 0.000411542868430013 -0.000267284387345989 2.99832420002921e-05 -0.000478929397498749 -0.000148839801810989 0.000749150768995817 0.000234649570285196 0.000232059479776949 0.000536679212933817 -0.000177089695920055 0.00140983732917491 0.000991841378874077 0.00119822607915224 0.00011441334167893
"168" -4.07994021652179e-05 -0.000203264649273484 0.000412826317296641 -0.000271344409219192 3.7788521435661e-05 -0.000462754629906244 -0.000163246746496422 0.000788693308766971 0.000196538057062293 0.000242909301969313 0.000493774834131135 -0.000150474084607086 0.00135346053706057 0.000952437791953073 0.00114768986767027 9.36797784743186e-05
"169" -5.42867414330888e-05 -0.000227368116779536 0.000411684716041113 -0.000274944499372234 4.43739395716076e-05 -0.000444324878897559 -0.000178129948503133 0.000827466601251716 0.000156221817508189 0.00025162784509403 0.000448222498022132 -0.000124769423003818 0.00129235469978415 0.000907268027541408 0.00109335391182662 7.35643028415123e-05
"170" -6.88801451911112e-05 -0.00025272576221973 0.000408063122794744 -0.000277963543170235 4.96704632913872e-05 -0.000423723641604718 -0.000193344351633166 0.00086505919249186 0.000113983939515436 0.00025813020617115 0.000400253062825721 -0.00010019744863394 0.00122682511070227 0.000856448981105189 0.00103558758558173 5.42899595075658e-05
"171" -8.44612523990331e-05 -0.000279190341006731 0.000401925595887034 -0.000280287706127109 5.3623065153295e-05 -0.000401047317380925 -0.000208758964049454 0.000901065380040712 7.01268876857299e-05 0.00026235270205823 0.000350128633282733 -7.69771438896904e-05 0.00115721178129165 0.000800155124142734 0.000974785248001126 3.60818592828432e-05
"172" -0.00010091921443114 -0.000306603131021805 0.000393260848618531 -0.000281814064379873 5.61842867959747e-05 -0.00037641514452126 -0.000224226660657593 0.000935097133296428 2.49624305533173e-05 0.000264252989180368 0.000298116546545345 -5.53065982482124e-05 0.001083887573231 0.000738601670582028 0.000911355947661884 1.91437826376965e-05
"173" -0.000118133544857157 -0.000334799390501773 0.000382072943042997 -0.000282445980129619 5.7311657845133e-05 -0.000349958446090298 -0.000239621011257583 0.000966782568566998 -2.11878950426268e-05 0.000263807473229789 0.000244498487730687 -3.53721644434479e-05 0.00100724324107874 0.000672052005043602 0.000845719867096057 3.67405637973301e-06
"174" -0.000135984615046843 -0.000363605175855965 0.000368387244631849 -0.000282101134981677 5.69773343660728e-05 -0.000321828464217534 -0.000254807930664421 0.000995784031378943 -6.80005877639465e-05 0.000261015900225493 0.000189564742669716 -1.73434065822843e-05 0.000927709594972697 0.000600812153712429 0.000778310174348019 -1.01522786886825e-05
"175" -0.000154357700690124 -0.000392846438662975 0.000352257468757028 -0.000280708642602168 5.51697916760843e-05 -0.000292187744904683 -0.0002696654143813 0.0010217841486632 -0.000115149329997589 0.000255899509374933 0.000133613061709747 -1.37059187322066e-06 0.000845716567552167 0.000525228290402204 0.000709555435252269 -2.21760074621308e-05
"176" -0.000173134214450368 -0.000422333787180183 0.000333754231457451 -0.000278214417739128 5.18817895507903e-05 -0.000261212035922008 -0.000284069834897102 0.00104450612796904 -0.000162309985105203 0.000248499352945659 7.69426351545951e-05 1.24235190271558e-05 0.000761714713789888 0.000445685718957166 0.00063988912610606 -3.22588352184534e-05
"177" -0.000192196732796414 -0.000451888573980972 0.000312973670911941 -0.000274572262359354 4.71257762265805e-05 -0.000229094656637032 -0.000297908114036305 0.00106371174303596 -0.000209159578950522 0.000238870864227204 1.9859687015642e-05 2.39275994243104e-05 0.000676170641017753 0.000362604202998328 0.000569740357090715 -4.02867350786392e-05
"178" -0.000211428405090367 -0.000481328360481602 0.000290025383516741 -0.000269756419784758 4.09223450673629e-05 -0.000196030897890774 -0.000311080892686558 0.00107918477460224 -0.000255387407894923 0.000227095624486642 -3.73369871114763e-05 3.30620031982083e-05 0.000589549270632902 0.00027641997250512 0.000499517066991876 -4.61701495245997e-05
"179" -0.000230716170186207 -0.000510463397911117 0.000265048807570436 -0.000263755980004851 3.3317526079545e-05 -0.000162227628534651 -0.000323480708527569 0.00109077413148757 -0.000300687018331004 0.000213262574750922 -9.43419613335648e-05 3.97685424657122e-05 0.000502321043122817 0.000187611171470607 0.000429630682022329 -4.98441435624232e-05
"180" -0.00024993884077096 -0.000539112911940107 0.000238191743513527 -0.000256570426207609 2.43573953567067e-05 -0.000127899506502388 -0.000335023458859875 0.00109834311241602 -0.000344764529487673 0.000197481934861476 -0.000150863740860292 4.40077704876491e-05 0.000414949337903735 9.66607786067332e-05 0.000360467254676556 -5.12704785912765e-05
"181" -0.000268988448896088 -0.000567096288094291 0.000209626074391324 -0.000248220007480271 1.4113643041455e-05 -9.32638480361805e-05 -0.000345621197732939 0.00110181119690595 -0.000387342364741689 0.000179873431957948 -0.000206612194402446 4.57667933100225e-05 0.000327890888444885 4.06941664342987e-06 0.000292394901060768 -5.04377880838451e-05
"182" -0.000287744821982127 -0.00059424019232447 0.00017953946548529 -0.000238732690049897 2.66366830421143e-06 -5.85422052990437e-05 -0.000355201914766657 0.00110113806572234 -0.000428153465286321 0.000160564299354931 -0.000261309607012801 4.50550416737707e-05 0.000241597845245089 -8.96539042975743e-05 0.000225761158642332 -4.73537333491897e-05
"183" -0.00030609923909153 -0.000620374185648325 0.000148123959857242 -0.000228154329159673 -9.89753304155841e-06 -2.39596862962725e-05 -0.000363696208311877 0.00109631674333373 -0.000466955450182168 0.000139694936835786 -0.000314689615732944 4.19015593980278e-05 0.000156498945968144 -0.00018399533357593 0.000160895629616455 -4.20596097361359e-05
"184" -0.000323937266695021 -0.000645332606037549 0.000115596558705819 -0.000216542972407664 -2.34675586206563e-05 1.02675176134552e-05 -0.000371046905650917 0.00108737646176275 -0.00050352509537729 0.000117407651926155 -0.000366492798343999 3.63539407976296e-05 7.30091481700713e-05 -0.000278448223857934 9.80909108462162e-05 -3.46208107053413e-05
"185" -0.000341141534157317 -0.000668959117404926 8.21700748637961e-05 -0.000203967881705671 -3.7928996931912e-05 4.39190124090573e-05 -0.000377201566604467 0.0010743921369161 -0.000537653907762063 9.38514085168488e-05 -0.000416478599857824 2.84819757655071e-05 -8.4747350123066e-06 -0.000372507562552444 3.76258778899458e-05 -2.5115120807585e-05
"186" -0.000357615291052641 -0.000691110322246026 4.80703693879643e-05 -0.000190508279059342 -5.31617987229294e-05 7.67825454014233e-05 -0.000382120892747926 0.00105746332937706 -0.000569167088025765 6.91716214190239e-05 -0.000464427927779303 1.83698021555416e-05 -8.75887581181379e-05 -0.000465682777816109 -2.02545955264007e-05 -1.36557737874058e-05
"187" -0.000373237021045182 -0.000711638974074175 1.3521494214274e-05 -0.000176255238202234 -6.90351808179173e-05 0.000108653052261646 -0.000385765838761593 0.00103672757745152 -0.000597903269796778 4.35192917922622e-05 -0.000510129537824183 6.11746092302822e-06 -0.000163986047385182 -0.000557499907858521 -7.53365474255279e-05 -3.64551079766053e-07
"188" -0.000387908273458567 -0.000730425150887671 -2.12389112528861e-05 -0.000161302293840216 -8.5411334347164e-05 0.000139333747135149 -0.000388117284156158 0.00101234482823355 -0.000623738974463677 1.70421802828147e-05 -0.000553400593474674 -8.16113277266613e-06 -0.000237357052085822 -0.000647500655841856 -0.000127432836048308 1.46120995004791e-05
"189" -0.000401529577786267 -0.000747345542736533 -5.59869001749046e-05 -0.000145756978171799 -0.000102147392500914 0.000168638551431955 -0.000389154360717389 0.000984508418041898 -0.000646566331941627 -1.01186286656974e-05 -0.000594072633726351 -2.43429217947668e-05 -0.000307417922273011 -0.000735256096152324 -0.000176383938044464 3.11111959047621e-05
"190" -0.000413996759714481 -0.000762296956486345 -9.04958658524182e-05 -0.0001297218002952 -0.00011910345521371 0.000196397983973679 -0.000388869535778257 0.000953430169886667 -0.000666310080286206 -3.78239737248523e-05 -0.000632001649134689 -4.22880357215747e-05 -0.000373917697935236 -0.000820359417337261 -0.000222063257112284 4.89616446414219e-05
"191" -0.000425224308606969 -0.000775179650372041 -0.000124544036764391 -0.000113314681624981 -0.000136134527598203 0.000222451055339439 -0.000387261746454238 0.000919346298354301 -0.000682921671047112 -6.59406033797203e-05 -0.00066706599826532 -6.18545694455976e-05 -0.000436641760435538 -0.000902432172229214 -0.000264377297294576 6.79778248435719e-05
"192" -0.000435118609211635 -0.000785913278741797 -0.000157917309340377 -9.66477461671048e-05 -0.000153095185133102 0.000246654408307463 -0.000384337004119096 0.000882506256201863 -0.000696376262826789 -9.434334075788e-05 -0.000699159907468693 -8.2889409676637e-05 -0.000495405157700908 -0.000981125023462797 -0.000303253441310257 8.79711441143623e-05
"193" -0.000443607010553132 -0.000794430641684112 -0.000190414596010322 -7.98348564695965e-05 -0.000169845195742224 0.000268886903011145 -0.000380117666369907 0.000843183094223716 -0.000706680853662084 -0.000122912572046159 -0.000728213252024713 -0.000105236883470219 -0.000550066126007132 -0.00105612936168782 -0.000338657209103626 0.000108736836873684
"194" -0.000450616298446644 -0.000800670213415852 -0.000221833058395534 -6.29909607481325e-05 -0.000186246389827385 0.000289037517191726 -0.000374618539579312 0.000801650415954123 -0.000713863826487644 -0.000151540877881342 -0.000754170098393025 -0.00012872873378732 -0.000600507528689792 -0.00112715966742217 -0.000370576552087769 0.000130074550847431
"195" -0.000456082033732618 -0.00080459248063208 -0.000251996932985953 -4.62270091266217e-05 -0.000202168973993174 0.000307019598929619 -0.000367880831203734 0.00075820278141129 -0.000717988158025526 -0.000180123496054346 -0.000777000514025869 -0.000153207421785644 -0.000646654881346506 -0.00119397466488725 -0.000399034259400491 0.000151780632453936
"196" -0.000459960989219432 -0.0008061692137902 -0.000280736655622973 -2.96536128302909e-05 -0.000217484270401006 0.000322766950146869 -0.00035994165075197 0.000713139431950574 -0.000719132320102015 -0.000208568135850552 -0.00079670129820635 -0.000178500214493389 -0.000688463721131989 -0.00125635720762072 -0.000424069861989254 0.000173653995993061
"197" -0.000462202286427232 -0.000805380729510334 -0.000307895580449635 -1.33754132658888e-05 -0.00023208127512394 0.000336230331165471 -0.00035084777033723 0.00066675767186852 -0.000717404611334899 -0.000236785534643356 -0.000813287058085094 -0.000204440807755057 -0.000725927122491303 -0.00131413440432322 -0.00044575949861947 0.000195495141016052
"198" -0.000462792975171994 -0.000802227880983231 -0.000333334290368546 2.50845977597861e-06 -0.000245847794829161 0.000347383138071514 -0.000340660252541747 0.000619377309334165 -0.000712934109326525 -0.000264699794052694 -0.000826800693260194 -0.000230860037820048 -0.000759066712860662 -0.00136716669364383 -0.000464193735956732 0.000217111297712987
"199" -0.000461714479766443 -0.000796724183969744 -0.000356934655482343 1.79025396288706e-05 -0.000258687716720074 0.000356219146818042 -0.000329445497718475 0.000571292678652604 -0.000705877298700921 -0.000292240251528459 -0.000837304398712452 -0.000257593728434531 -0.000787944231582376 -0.00141534978541985 -0.00047949790306237 0.000238313638767236
"200" -0.000458972355482276 -0.000788891931173983 -0.000378586721545249 3.27212330476728e-05 -0.000270516931500916 0.0003627521428047 -0.000317272738727862 0.000522825197267015 -0.000696403808629124 -0.000319341647122267 -0.000844881646073796 -0.000284472628908087 -0.000812639269099783 -0.00145860896302757 -0.000491809920058867 0.000258934231273698
"201" -0.000454581616192364 -0.000778774379663656 -0.000398206020485923 4.68819527621508e-05 -0.000281261802118824 0.000367017661077749 -0.000304225894250734 0.000474270702145841 -0.000684701317850752 -0.000345949021682561 -0.000849640176970959 -0.000311338320316559 -0.000833269344163362 -0.00149691092366062 -0.000501285369841664 0.000278802410523986
"202" -0.000448580226931227 -0.000766423731937706 -0.000415718402971555 6.03155422644567e-05 -0.000290858273342838 0.000369068069962191 -0.000290394025478399 0.000425937085654597 -0.000670981731551165 -0.000372008642998058 -0.000851704171543207 -0.000338030935198807 -0.000849983172877752 -0.00153025128854341 -0.000508113527299708 0.000297768545100121
"203" -0.000441017338658875 -0.000751902218116346 -0.000431069148461025 7.29546015176634e-05 -0.000299257117653237 0.000368974081936257 -0.000275869347571228 0.000378121165387441 -0.000655461056793947 -0.000397472125718241 -0.000851216920929182 -0.000364392067683833 -0.000862943335754268 -0.00155865564904374 -0.000512487700905433 0.000315691505506246
"204" -0.000431957018368899 -0.000735287647511971 -0.000444221641100775 8.47469094977044e-05 -0.000306423382144147 0.000366826927280343 -0.000260754294635233 0.00033111016791076 -0.000638368879633758 -0.000422293177461722 -0.00084833350063291 -0.000390268915389136 -0.00087234168405332 -0.001582179307316 -0.000514613109926039 0.000332449481447024
"205" -0.000421483420245858 -0.000716670664872037 -0.000455160051021972 9.56392197374579e-05 -0.000312333541534769 0.000362732117012766 -0.000245158344569753 0.000285181885934493 -0.000619948398336404 -0.000446434633750137 -0.00084323629925511 -0.000415516802032768 -0.000878392433898861 -0.00160091060644055 -0.000514721361901166 0.000347932802027661
"206" -0.000409694684508225 -0.000696149529026401 -0.00046388053613693 0.000105597605257932 -0.000316979217806866 0.000356808583399056 -0.000229193833777092 0.000240609780886134 -0.000600443090124885 -0.000469856009028811 -0.000836108210550492 -0.000439994596087752 -0.000881325502241987 -0.00161496120801809 -0.000513040619048557 0.000362050192482963
"207" -0.00039669771357039 -0.000673832818726704 -0.000470390264255134 0.000114590619215857 -0.000320358269242317 0.000349189968025479 -0.000212973934529595 0.000197651361870725 -0.000580103182933153 -0.000492520680312051 -0.000827149407985878 -0.00046356407934667 -0.000881388471277095 -0.00162446360954065 -0.000509813400701195 0.000374725740030621
"208" -0.000382618440236522 -0.000649839007093855 -0.00047472139453222 0.000122592707337959 -0.000322485855399193 0.000340019252726488 -0.000196622190361295 0.000156546587268949 -0.000559179631386663 -0.000514393656962028 -0.000816570930447139 -0.000486095994211164 -0.000878839778815552 -0.00162958117448262 -0.000505284342389917 0.000385898710345756
"209" -0.00036759471984718 -0.000624289492065 -0.000476917603184414 0.000129593257823535 -0.000323383771027608 0.000329451849371458 -0.000180252054896905 0.000117529421703251 -0.000537913611479929 -0.000535438766236588 -0.00080458175993992 -0.000507468517922688 -0.000873950435616238 -0.00163049168505616 -0.000499701101317802 0.000395535701626388
"210" -0.00035176867281337 -0.000597322895015193 -0.000477029618243013 0.000135583007164409 -0.000323089098613897 0.00031765219987139 -0.000163992367352874 8.08098731882474e-05 -0.000516553048890759 -0.000555622419894249 -0.000791405689066835 -0.000527563501837466 -0.000866997263028655 -0.00162740063215035 -0.00049332134977619 0.000403603727476347
"211" -0.000335295290751561 -0.000569071384915241 -0.000475126269353516 0.000140567162789621 -0.000321644439797434 0.000304786912547005 -0.000147955467065674 4.65814174563676e-05 -0.000495331384987064 -0.00057491146262035 -0.000777261124901327 -0.000546276438174014 -0.000858260078588024 -0.00162051672933863 -0.000486377181218245 0.0004101017002285
"212" -0.00031832995050317 -0.000539678387337359 -0.000471289389763836 0.000144553713014296 -0.000319100786166044 0.00029103068652167 -0.00013226343947364 1.50244248273721e-05 -0.000474468024434172 -0.000593269843544319 -0.000762368601528269 -0.000563507496749659 -0.00084802509432155 -0.00161007641871743 -0.000479114445237987 0.0004150385768778
"213" -0.000301032080197219 -0.000509289987448137 -0.000465603167225363 0.000147558628002033 -0.000315520563078432 0.000276560536900063 -0.000117025562997306 -1.37141846075613e-05 -0.000454173268900657 -0.000610668567336255 -0.000746943494817395 -0.0005791686649037 -0.000836565635300413 -0.00159631638426184 -0.000471759816919378 0.000418442827704304
"214" -0.000283569448861022 -0.000478055052334213 -0.000458173546504084 0.000149605195195372 -0.000310968446548302 0.000261549958130776 -0.000102352057525595 -3.95050036088085e-05 -0.000434647724649188 -0.000627077894148156 -0.000731201565682978 -0.000593185869101991 -0.000824163330443476 -0.00157949570873821 -0.000464537386318752 0.000420357124036633
"215" -0.000266096186180381 -0.00044612205651245 -0.000449098799623433 0.000150725348079772 -0.000305511674048443 0.000246177032837273 -8.83396787462696e-05 -6.22346944355321e-05 -0.000416063220981151 -0.000642467081731648 -0.000715341412120494 -0.000605489808324287 -0.000811082728068867 -0.00155986773122465 -0.000457646327971406 0.000420840201408487
"216" -0.000248776319915878 -0.000413638737629741 -0.000438501244406656 0.000150953800195708 -0.000299232878143183 0.000230612812259874 -7.50845952162652e-05 -8.18310616872855e-05 -0.000398578951925277 -0.000656812990237178 -0.000699555520933196 -0.000616027843878259 -0.000797578646451385 -0.00153770444337434 -0.000451276505140154 0.000419968155772116
"217" -0.000231749919491009 -0.000380753800021347 -0.00042649423191225 0.000150333930347531 -0.000292201843493367 0.000215027927636677 -6.26646643867733e-05 -9.82309899170018e-05 -0.000382327901538318 -0.000670092235078422 -0.000684023729233109 -0.000624761388441325 -0.000783889345710366 -0.00151326760485428 -0.000445590792444828 0.000417833062741228
"218" -0.0002151589920435 -0.000347610242212499 -0.00041320191482279 0.000148915111428499 -0.000284502289841896 0.000199583875554419 -5.1144833299827e-05 -0.000111410603650447 -0.000367425205814412 -0.000682288259220949 -0.00066890523324198 -0.000631661355820889 -0.000770241781182629 -0.0014868340942056 -0.000440731751699596 0.000414537092267856
"219" -0.000199137284942285 -0.00031435356803956 -0.000398754795057188 0.000146749972555042 -0.000276212892666714 0.000184438702810298 -4.05912413289944e-05 -0.000121375253727139 -0.000353962672819964 -0.00069339040574836 -0.000654352582518774 -0.000636719429169323 -0.000756840037932036 -0.00145866457674653 -0.000436826446868392 0.000410198112350012
"220" -0.000183792200293852 -0.000281117859538216 -0.000383281064986052 0.000143895544690427 -0.000267415638639407 0.000169734310542562 -3.10400997535653e-05 -0.000128147038897196 -0.000342004107082102 -0.000703395217523958 -0.000640489395116391 -0.000639935358474169 -0.00074386962154025 -0.00142902978250847 -0.000433970362560861 0.000404943386882659
"221" -0.000169226272526823 -0.000248036989307764 -0.000366908819792587 0.000140418966138007 -0.000258187919321096 0.000155611025756652 -2.25228477052104e-05 -0.000131783038359153 -0.000331584681535887 -0.000712297894673484 -0.000627422887326914 -0.000641326694814804 -0.000731485875984521 -0.00139818055403114 -0.000432223145677174 0.000398919353854068
"222" -0.000155528980325442 -0.000215240153618283 -0.000349770157490572 0.000136382992259169 -0.000248606645546989 0.00014219442331212 -1.50558487742891e-05 -0.000132373218490504 -0.000322727095652493 -0.000720113603014655 -0.000615243655467327 -0.000640929495405723 -0.000719827339578959 -0.00136637828702188 -0.000431636412431157 0.000392268730013908
"223" -0.000142761546307478 -0.000182844902854143 -0.000331995601079977 0.00013185932388263 -0.000238749802628586 0.000129598677380124 -8.64073480680467e-06 -0.00013002434859602 -0.00031541643279704 -0.000726855128635709 -0.000604012740824908 -0.000638785792552218 -0.000709008258365663 -0.00133386242451923 -0.000432223581542668 0.000385152190603207
"224" -0.000130979592844284 -0.000150966442372317 -0.000313715592110142 0.00012691949835644 -0.000228687835782124 0.000117924498689235 -3.26426670678843e-06 -0.000124872370666401 -0.000309625554204954 -0.000732547748219721 -0.00059377479144419 -0.000634965069499957 -0.000699110725206497 -0.00130086391551715 -0.000433968284949309 0.00037773477033342
"225" -0.000120216860349957 -0.000119710261899692 -0.000295054863366655 0.000121642999801983 -0.000218491291358779 0.000107261557181147 1.10466121171508e-06 -0.000117079103350204 -0.000305295103066383 -0.000737221269790763 -0.000584552321318766 -0.000629534876342719 -0.000690194885878092 -0.00126760791833724 -0.000436832883723477 0.000370185059907923
"226" -0.00011048550854928 -8.91701775665384e-05 -0.000276130772477992 0.000116101713166813 -0.000208218532968722 9.76844763406188e-05 4.50603723390687e-06 -0.000106831293690425 -0.000302348648762411 -0.000740917602546105 -0.000576341809464638 -0.000622587883787892 -0.000682293631690365 -0.00123430024473448 -0.000440750921940063 0.000362677732218321
"227" -0.000101789350155687 -5.94355023418127e-05 -0.000257067072826656 0.000110372278038135 -0.000197930369928948 8.92549174676011e-05 6.99079232809317e-06 -9.43240673956949e-05 -0.000300692405457409 -0.000743677869027526 -0.000569126053370384 -0.000614220234900221 -0.000675416775709619 -0.00120113428429197 -0.000445637130364581 0.000355383085755342
"228" -9.41149282376948e-05 -3.05867749227431e-05 -0.000237971261523873 0.000104530150725603 -0.000187688622928484 8.20166639991264e-05 8.62367620464997e-06 -7.97831701987492e-05 -0.000300211637327666 -0.000745557090090701 -0.000562867685735014 -0.000604544998732644 -0.000669551822933064 -0.00116829430323754 -0.000451383576798588 0.000348471825857645
"229" -8.74364503485808e-05 -2.69226528392592e-06 -0.000218952406196764 9.8656902968416e-05 -0.000177538465722343 7.60049742637669e-05 9.4791794061897e-06 -6.34391827951393e-05 -0.000300776063201382 -0.000746610587074729 -0.000557504862891917 -0.000593680215866967 -0.000664660558968215 -0.00113594015717172 -0.000457855161642202 0.000342115989613088
"230" -8.17114558262625e-05 2.41913382869079e-05 -0.000200111421285959 9.28193431340297e-05 -0.000167527929578546 7.12357283728721e-05 9.63938826285585e-06 -4.55356817418853e-05 -0.00030224288556057 -0.000746899853739028 -0.000552964859047285 -0.000581749718354841 -0.00066068515685719 -0.00110422062543837 -0.00046490914258767 0.000336479754935892
"231" -7.68908747438178e-05 5.0006754505942e-05 -0.000181536825650034 8.70929698249151e-05 -0.000157697065271905 6.77150272959857e-05 9.18743854979112e-06 -2.63329495556915e-05 -0.000304459421737805 -0.000746487784488189 -0.000549160890785232 -0.000568884983837426 -0.000657555736758993 -0.0010732702337574 -0.000472391174403037 0.000331711945307253
"232" -7.29166154123875e-05 7.47193039453896e-05 -0.000163320611380812 8.15437128616215e-05 -0.00014808843746273 6.54309767765129e-05 8.22303348386598e-06 -6.08039297719323e-06 -0.000307261114647756 -0.000745439794496519 -0.000545993969442994 -0.000555218514211185 -0.00065517912677078 -0.00104320496039952 -0.000480128122695095 0.000327964170445844
"233" -6.97241487772482e-05 9.82968866039651e-05 -0.000145534362496331 7.62369133751498e-05 -0.000138729635280116 6.43649019027692e-05 6.83266270034422e-06 1.49587766522375e-05 -0.000310480604801336 -0.000743820162228154 -0.000543349905816018 -0.000540890195801412 -0.000653454100377908 -0.0010141196572959 -0.000487940981442607 0.000325371246672755
"234" -6.72498160634799e-05 0.000120715317715001 -0.000128252748170948 7.12318008448789e-05 -0.000129650741775516 6.44774904907178e-05 5.11913656738927e-06 3.65286996575712e-05 -0.000313949294946822 -0.000741699933063045 -0.000541115942554092 -0.00052603364900224 -0.000652265081565434 -0.000986102077884934 -0.000495653542201859 0.00032404887239183
"235" -6.5421217701219e-05 0.000141965902434675 -0.000111535865741638 6.65779590621965e-05 -0.000120877974484707 6.57268189372894e-05 3.16819317996096e-06 5.83720305373384e-05 -0.000317495072225022 -0.000739139981676559 -0.000539165444725636 -0.000510783677214059 -0.000651496892451752 -0.000959218312040291 -0.000503090043228422 0.000324104710341993
"236" -6.41661601717634e-05 0.000162039547381591 -9.54329207706535e-05 6.2329565240183e-05 -0.000112432509648687 6.80507745209617e-05 1.07738304547333e-06 8.02540787630198e-05 -0.00032094525768765 -0.000736202649536644 -0.000537371902960175 -0.00049527467350408 -0.000651010292049994 -0.000933512496585455 -0.00051006048540301 0.000325625692386646
"237" -6.3415592840126e-05 0.00018094841215927 -7.99921037181439e-05 5.85264496273046e-05 -0.000104330826971219 7.13853599831665e-05 -1.06564537955921e-06 0.000101937867501431 -0.000324136395834111 -0.000732948385314483 -0.000535604636906925 -0.000479629525050532 -0.000650682393499963 -0.000909026876102132 -0.000516397768703629 0.00032868113223253
"238" -6.31009494169248e-05 0.000198698528166354 -6.52486590413195e-05 5.52024035400034e-05 -9.65880140870731e-05 7.56548458285657e-05 -3.18026388211968e-06 0.000123200560048806 -0.000326906286370539 -0.000729429517501184 -0.000533738345322737 -0.000463968665824006 -0.000650382943430753 -0.000885776559858098 -0.000521935968470888 0.000333318764486169
"239" -6.31614597686703e-05 0.000215314717397406 -5.12308852493835e-05 5.23858456045131e-05 -8.92144981170758e-05 8.07721599870311e-05 -5.19338991488769e-06 0.000143842537486637 -0.000329101189138117 -0.000725696631669469 -0.000531646064345561 -0.000448406803023634 -0.000649980174405144 -0.000863770214719863 -0.000526519465559169 0.000339571051439863
"240" -6.35377519332502e-05 0.000230821124914253 -3.79590221895871e-05 5.01006294220687e-05 -8.2222174061255e-05 8.66494713607564e-05 -7.03861080232583e-06 0.000163673164678205 -0.000330586503943865 -0.000721797112203476 -0.000529210589882176 -0.000433049833596396 -0.000649352610457712 -0.000843000326015986 -0.000530011887780783 0.000347442998259224
"241" -6.41826956513494e-05 0.000245253200592117 -2.54386058526279e-05 4.83600747236202e-05 -7.56131774336578e-05 9.31885184662878e-05 -8.65659111399507e-06 0.000182530728468816 -0.000331231225167385 -0.00071776782521582 -0.000526314243083793 -0.00041799025496457 -0.000648377838829264 -0.000823446640054609 -0.000532281342087776 0.000356920733567241
"242" -6.50431888668047e-05 0.000258647191530978 -1.36792002442809e-05 4.71707198489286e-05 -6.93895506828885e-05 0.000100290144111444 -1.00004787957126e-05 0.000200265333878455 -0.00033091374634795 -0.00071364279335961 -0.000522850793828439 -0.00040331528961287 -0.000646949337982404 -0.000805073543355797 -0.000533223467071373 0.000367968411536603
"243" -6.60854218640561e-05 0.00027104856668408 -2.67477832783084e-06 4.65347963735483e-05 -6.35561164089562e-05 0.000107852473168127 -1.10353311825339e-05 0.000216753513988909 -0.000329535925206018 -0.000709448104381036 -0.000518722315437475 -0.000389098703003236 -0.000644962011683598 -0.000787838932292006 -0.000532743255520494 0.000380526262807627
"244" -6.72821289350709e-05 0.000282505771248313 7.58318442107686e-06 4.64435147508617e-05 -5.81107662833575e-05 0.000115767559543024 -1.1731334796263e-05 0.000231893883315203 -0.000327014814630416 -0.000705206796188098 -0.000513843752426475 -0.000375405705916445 -0.000642327549789147 -0.000771690784828092 -0.000530776048243007 0.000394516824793357
"245" -6.86023821138234e-05 0.000293072776686382 1.71145099930391e-05 4.6885352436956e-05 -5.30439364733819e-05 0.00012393241751308 -1.20739599423075e-05 0.000245608012102782 -0.000323275532918599 -0.000700928601182107 -0.00050813175054748 -0.00036228656913847 -0.000638968615881739 -0.000756565561629274 -0.00052726256461386 0.000409841647787584
"246" -7.00309993411258e-05 0.000302801727632537 2.59452665541365e-05 4.78432069338211e-05 -4.83576304115814e-05 0.000132242151287784 -1.20562374440703e-05 0.000257837450468424 -0.000318266997962671 -0.000696626946414078 -0.000501523363012233 -0.000349783821943346 -0.000634816778738545 -0.000742389571050156 -0.000522179714201827 0.000426377565811776
"247" -7.15645987099101e-05 0.000311746801820901 3.40982154943799e-05 4.92892176894114e-05 -4.40396654639609e-05 0.000140592819788392 -1.16876099027245e-05 0.000268546619514295 -0.000311955801611902 -0.00069230195155684 -0.000493968785735673 -0.000337924828306673 -0.000629826829356979 -0.000729092533333704 -0.000515519452180524 0.000443989838576295
"248" -7.31963195437494e-05 0.000319967508754227 4.16080340733732e-05 5.11986940206367e-05 -4.00822759242937e-05 0.000148886458301191 -1.09804822498597e-05 0.000277723969769379 -0.000304312882562512 -0.0006879472277867 -0.000485420237066018 -0.000326732243579288 -0.000623956600676353 -0.000716580258500059 -0.000507285288098352 0.000462522291770756
"249" -7.49249540311013e-05 0.000327526195897766 4.8515909101079e-05 5.35339571449366e-05 -3.64704727256282e-05 0.000157027554634288 -9.95483671442793e-06 0.000285375151534311 -0.000295344761686183 -0.000683554950963725 -0.000475851588570423 -0.000316208854841659 -0.000617184034870196 -0.00070476981774957 -0.000497511762456689 0.000481807630001507
"250" -7.67627178005562e-05 0.000334477925771456 5.48611958219125e-05 5.62594632959235e-05 -3.31959593808575e-05 0.000164928416531222 -8.64781999720242e-06 0.000291527740382389 -0.000285060207791692 -0.000679108469651143 -0.000465243730687753 -0.000306353683642778 -0.000609504180073411 -0.000693564399918274 -0.000486249915404869 0.000501662918681054
"251" -7.87185167850319e-05 0.000340881205684246 6.06843590627205e-05 5.93334801932244e-05 -3.02407892243765e-05 0.000172501669777785 -7.10378684684693e-06 0.000296223085022832 -0.000273488485877988 -0.000674585021323317 -0.000453594672725203 -0.000297153849184002 -0.000600923289476671 -0.000682868596002225 -0.00047357337145405 0.000521895510365701
"252" -8.08053916118482e-05 0.000346795416942026 6.60392721755321e-05 6.27129816162966e-05 -2.75891678173057e-05 0.000179677117210739 -5.36450256895341e-06 0.000299523270272739 -0.000260671820380085 -0.000669956909232805 -0.000440906961979055 -0.00028858227346474 -0.000591459802994318 -0.00067258189548164 -0.000459556179340212 0.000542306531312805
"253" -8.30462856175638e-05 0.000352271701622893 7.09700362347305e-05 6.63512731050938e-05 -2.52223746471505e-05 0.00018638175091275 -3.4858916063285e-06 0.000301497479726782 -0.000246667564692699 -0.000665193079769081 -0.000427204287421309 -0.000280610953506347 -0.000581151050507677 -0.000662605157060715 -0.000444308536031558 0.000562682786467798
"254" -8.54529239501465e-05 0.000357371859398252 7.55297940391483e-05 7.02025564772917e-05 -2.31200621540961e-05 0.000192558349837981 -1.52316609112458e-06 0.000302239648707452 -0.000231541210189913 -0.000660254658022233 -0.000412509143794137 -0.000273192610792863 -0.000570043198241276 -0.000652835580467515 -0.000427939908373471 0.000582824590187382
"255" -8.80493150445863e-05 0.000362136230724261 7.97614444809836e-05 7.42202439504663e-05 -2.12700615689563e-05 0.000198153808962955 4.58701502353816e-07 0.000301837337891206 -0.000215378425427694 -0.000655103200915156 -0.000396865206582196 -0.000266284316557927 -0.0005581972813847 -0.000643173156614597 -0.000410580852484831 0.000602512169270781
"256" -9.08556974849266e-05 0.000366622224612457 8.37191523436532e-05 7.83531172226957e-05 -1.96409801300891e-05 0.000203129346027609 2.39581512110105e-06 0.000300399276901433 -0.000198264671986512 -0.000649688259786416 -0.00038031848734269 -0.00025982310095355 -0.000545685015712299 -0.000633521131929927 -0.000392363895642018 0.000621542372677976
"257" -9.38881243094929e-05 0.000370869588511752 8.74576847432715e-05 8.25592934089029e-05 -1.82111093922937e-05 0.000207451034861292 4.22826076725737e-06 0.000298037196716329 -0.000180294036831871 -0.000643960316471819 -0.000362921951166183 -0.000253749517776026 -0.000532583684073594 -0.000623773374134401 -0.000373433974301503 0.000639713710662194
"258" -9.71683047382529e-05 0.000374918959499239 9.10138497666107e-05 8.67918371817923e-05 -1.6964543613922e-05 0.000211097406182771 5.88387439451502e-06 0.000294859590282549 -0.000161570525427518 -0.000637866895802739 -0.000344740745949899 -0.000247994876948697 -0.000518986756919466 -0.00061383876909507 -0.000353941776625142 0.00065682569613073
"259" -0.000100706729674854 0.000378814375022654 9.44442779083912e-05 9.10052816427511e-05 -1.58696218210756e-05 0.000214055920952902 7.30598459513752e-06 0.000290985276205002 -0.000142203520246072 -0.000631347322184792 -0.000325843120743372 -0.000242480783440036 -0.000504990893274499 -0.000603624166951035 -0.000334037675363736 0.000672694971141265
"260" -0.000104510747036418 0.000382580770237959 9.77865248789834e-05 9.516179956471e-05 -1.49029357074446e-05 0.000216324273072794 8.43013264453741e-06 0.000286527813935298 -0.000122300372156204 -0.000624341802781683 -0.000306302821043572 -0.000237131966883927 -0.000490698321321231 -0.000593035711828596 -0.000313875887844941 0.000687149825679581
"261" -0.000108596013752042 0.000386249821870767 0.000101080887997224 9.92235696379101e-05 -1.4043440757489e-05 0.000217908242355075 9.1933828381804e-06 0.000281598036722243 -0.000101973530992531 -0.000616790521354341 -0.000286200332812564 -0.00023186791433498 -0.000476219030037083 -0.000581990035735403 -0.000293612214164048 0.000700029701321152
"262" -0.000112960311066869 0.000389851574485024 0.000104372048192722 0.000103152238977747 -1.32603595329897e-05 0.000218823490074093 9.55380197421357e-06 0.000276305589531899 -8.1328583071361e-05 -0.000608623133503643 -0.000265611087989719 -0.000226602629121152 -0.000461662665636526 -0.000570403353839713 -0.00027339108729101 0.000711195135788465
"263" -0.000117603654030769 0.000393401494782143 0.000107688755125553 0.000106919737535918 -1.25317513182697e-05 0.000219094402664337 9.45583570773899e-06 0.000270751149541295 -6.04746405378352e-05 -0.000599775444083091 -0.00024462123270626 -0.000221253855977027 -0.000447143243780484 -0.000558196730533661 -0.000253361722475062 0.000720521058504351
"264" -0.000122514780366039 0.000396919894614077 0.000111066087718614 0.000110501335300733 -1.18277400291188e-05 0.00021874984565966 8.86260782761942e-06 0.000265025221565103 -3.95154003487935e-05 -0.000590182889823455 -0.000223311229258133 -0.000215734391974845 -0.000432769241890969 -0.000545297704066546 -0.000233657261562376 0.000727904468383487
"265" -0.000127681630478198 0.00040041445436745 0.000114528957506384 0.000113873120971107 -1.11259103654071e-05 0.000217833418352912 7.7369598777329e-06 0.000259214360791544 -1.85451023788134e-05 -0.000579774387445543 -0.000201763855251187 -0.000209957161198058 -0.000418656694321802 -0.000531634092962332 -0.000214408821320832 0.00073326283127467
"266" -0.000133086382849297 0.000403897681383038 0.00011810243005036 0.000117017599605805 -1.03964817113971e-05 0.000216383532107547 6.05841091126643e-06 0.000253390953629168 2.34632030438653e-06 -0.00056848440925067 -0.000180058629212642 -0.000203842208904108 -0.000404910602929724 -0.000517143600103877 -0.000195726489868671 0.000736540739722444
"267" -0.0001386953131002 0.000407372930450898 0.000121804847799596 0.000119923186144162 -9.6184407998635e-06 0.000214457392555881 3.81063136289848e-06 0.000247617184154454 2.30781450209491e-05 -0.000556246544193076 -0.000158272160123068 -0.000197304626590109 -0.000391630709275657 -0.000501765198103009 -0.0001777219173096 0.000737696803638792
"268" -0.000144479453835576 0.000410839439759735 0.000125652487893811 0.000122581055891364 -8.76237746724157e-06 0.00021210838706712 9.80734865130375e-07 0.000241939877219394 4.35793832134498e-05 -0.000542999731273885 -0.000136478191198082 -0.000190270457825721 -0.000378916739169431 -0.000485444750767926 -0.000160481121044914 0.000736722142894975
"269" -0.000150394394115088 0.000414299424238026 0.000129658613382887 0.000124990001808774 -7.80435746845875e-06 0.00020939483010874 -2.42144193921613e-06 0.000236398789930236 6.37944896318758e-05 -0.000528679725859022 -0.000114745259168128 -0.000182658768041326 -0.000366850977581372 -0.000468132930704233 -0.000144080352566147 0.000733626980299053
"270" -0.000156397320157853 0.000417739344675554 0.000133827032601887 0.000127151998240712 -6.72230900542934e-06 0.000206381068839154 -6.38936409516445e-06 0.000231011900599152 8.36703642704758e-05 -0.000513232569366677 -9.31382957214933e-05 -0.000174406388148162 -0.000355521924689243 -0.000449789700626515 -0.000128583278311286 0.000728442480209162
"271" -0.000162427408296163 0.000421154267835084 0.000138161547046141 0.000129076192023204 -5.49076399673819e-06 0.00020313242970262 -1.08974748102483e-05 0.000225790764528394 0.000103172491811776 -0.00049660386571165 -7.17142254636858e-05 -0.000165448009158625 -0.000344995559769106 -0.00043036861523028 -0.00011403218061367 0.000721228159787265
"272" -0.000168428766224999 0.000424531601499651 0.000142661421387375 0.000130770189486696 -4.0876808377049e-06 0.000199712404975982 -1.5913803071632e-05 0.000220735146065459 0.0001222769736397 -0.000478742254926507 -5.05238867484764e-05 -0.000155723639723924 -0.000335326971526246 -0.000409840529406337 -0.000100454922730845 0.000712062205720923
"273" -0.000174333703005317 0.000427855428222336 0.000147321605822213 0.000132253517221665 -2.48992484769431e-06 0.000196188832537219 -2.13966683200489e-05 0.000215817913380854 0.000140972784411809 -0.00045961217613978 -2.96123400671877e-05 -0.000145188886462045 -0.000326568022079967 -0.000388177159895665 -8.78595840846832e-05 0.000701044864409617
"274" -0.000180066575871008 0.00043110898662345 0.000152133631703703 0.000133546215604042 -6.74730720504977e-07 0.000192625641298543 -2.72977482038517e-05 0.000211016495655688 0.000159262172199201 -0.000439174998862588 -9.01756165347712e-06 -0.000133795380525951 -0.000318749390029683 -0.000365355789704297 -7.62465857215278e-05 0.000688292072514407
"275" -0.000185554841733826 0.000434270018068418 0.00015708534763233 0.000134672222527811 1.37233546615298e-06 0.000189091103572404 -3.35541906603843e-05 0.00020628467011163 0.000177159718269894 -0.000417404764539084 1.12304925108302e-05 -0.000121514785494809 -0.000311901397158775 -0.000341362188013043 -6.55966069515024e-05 0.000673942307284637
"276" -0.000190707425338269 0.000437326290122393 0.000162164320741511 0.00013565863131738 3.67202770918657e-06 0.000185641725095777 -4.00966689123831e-05 0.000201576032415252 0.00019469315334822 -0.000394284363423855 3.11141929465806e-05 -0.000108319833237861 -0.000306022168696612 -0.00031618140580358 -5.58676319722169e-05 0.000658147988431952
"277" -0.00019544538251658 0.000440246878956296 0.00016734465676501 0.000136536721720785 6.24163693866705e-06 0.000182338857058799 -4.68516386021693e-05 0.0001968212343753 0.00021189470097588 -0.000369800321990919 5.0612128144235e-05 -9.41962963688373e-05 -0.000301117313835756 -0.000289814262650075 -4.70121996218905e-05 0.000641074648599534
"278" -0.000199677566317148 0.000443014829547821 0.000172615935829942 0.000137341778983593 9.09808054686397e-06 0.000179236692716816 -5.37323252668837e-05 0.000191959947414789 0.000228815701919053 -0.000343953024278543 6.97193856974528e-05 -7.91406785823381e-05 -0.000297165502847468 -0.000262259625340478 -3.8963073782009e-05 0.000622902143742023
"279" -0.000203314641734577 0.000445602213246032 0.00017794642713782 0.000138106125044444 1.22543595785625e-05 0.000176387686150797 -6.0655200934161e-05 0.000186907245750625 0.000245512184239008 -0.000316752969713931 8.84312211919836e-05 -6.31525849555557e-05 -0.0002941423136525 -0.000233533513249724 -3.16528828912483e-05 0.000603816576713028
"280" -0.000206264937334338 0.000447990958557458 0.000183313575542492 0.000138867324618192 1.5718683867678e-05 0.000173835400600714 -6.75231467011814e-05 0.000181590716315966 0.000262047960441154 -0.00028822145330655 0.000106755227589792 -4.6253914107218e-05 -0.000291999932819899 -0.000203640440297262 -2.49860252398048e-05 0.000584018300198127
"281" -0.000208433155028581 0.000450152394034792 0.000188694574065904 0.000139666597732435 1.95056965485844e-05 0.000171623356503162 -7.42405734028064e-05 0.000175922475714739 0.000278496740478231 -0.000258389838911284 0.00012470065104772 -2.84669400475902e-05 -0.000290691711560351 -0.000172610965843304 -1.88746174858373e-05 0.000563702323292771
"282" -0.000209736541801334 0.000452068348689607 0.000194055092275771 0.00014054005057131 2.36201192228294e-05 0.00016978304470573 -8.07065609136585e-05 0.000169819428230676 0.000294933744051682 -0.000227295837715906 0.000142280468232113 -9.82635072509654e-06 -0.000290155700011203 -0.000140473037497076 -1.32145303166145e-05 0.000543074999994978
"283" -0.000210083437129513 0.000453714529908472 0.000199369368230623 0.000141529127524383 2.8069403794997e-05 0.000168345805737127 -8.68204265894261e-05 0.000163202953331306 0.000311443312655507 -0.000194999938797438 0.000159517724111645 9.62050540114354e-06 -0.00029031965394509 -0.000107265901131698 -7.90039025786243e-06 0.000522340538238911
"284" -0.000209394764618805 0.000455067878662892 0.000204606892643067 0.000142668727702102 3.28543742284943e-05 0.000167333598527746 -9.24827344050659e-05 0.000155988030336819 0.000328103751672528 -0.000161563815008211 0.000176429811783266 2.98165513630167e-05 -0.000291104948608454 -7.30377467786484e-05 -2.82117817769835e-06 0.000501695685622039
"285" -0.00020759243376283 0.000456115150726404 0.000209736115656614 0.000144000401508681 3.79750064757999e-05 0.000166763282056557 -9.75926477208499e-05 0.00014810789948814 0.000344999134421155 -0.000127066907112967 0.000193044357556244 5.06947659429212e-05 -0.000292423887935354 -3.7840017374695e-05 2.13553743832088e-06 0.000481339805571521
"286" -0.000204607951211074 0.000456834120088699 0.00021472402299528 0.000145555806890268 4.34326379819857e-05 0.000166642171066188 -0.000102051731245975 0.000139489501391568 0.000362209300148912 -9.15955923182413e-05 0.000209384909130476 7.21826903754597e-05 -0.00029418696945762 -1.74092587958303e-06 7.07696023386782e-06 0.000461461794921949
"287" -0.000200371191302637 0.000457209857893502 0.000219545222087246 0.000147372463906009 4.92207932317692e-05 0.000166975949301983 -0.000105766816679327 0.000130079797402762 0.000379817241480281 -5.52543905086481e-05 0.000225480585727712 9.41931439508015e-05 -0.00029629585970524 3.51937048221334e-05 1.21136861924614e-05 0.000442242103467092
"288" -0.000194838565004498 0.000457230248198 0.000224163270536369 0.000149481754802738 5.53290153176429e-05 0.000167761785763077 -0.000108650888371171 0.000119825728991802 0.000397890399468251 -1.81509527871745e-05 0.000241354236479507 0.000116631212608549 -0.000298657543922634 7.28769248253017e-05 1.73449742657191e-05 0.000423849025411689
"289" -0.00018795592070171 0.000456886165199518 0.0002285562823275 0.000151911124699512 6.1749310458518e-05 0.000168990752808606 -0.000110618258235484 0.000108694459319021 0.00041650299011959 1.95880961950649e-05 0.000257032072130199 0.000139399274075767 -0.000301169194278544 0.000111218884801391 2.28729164393227e-05 0.000406442665858006
"290" -0.000179691054720107 0.000456167450320303 0.000232688224853793 0.000154686338972742 6.84689788920138e-05 0.000170649108293461 -0.000111595307848205 9.66625409986517e-05 0.000435709508696887 5.78321266859791e-05 0.00027253490514813 0.000162388367456941 -0.000303736353045253 0.000150128055887657 2.8781724146093e-05 0.000390159547733721
"291" -0.000170026159947586 0.000455071194083399 0.000236536829807269 0.000157830962820201 7.54703315345841e-05 0.000172713839841718 -0.000111509037567198 8.37240546284697e-05 0.000455561473801803 9.64354891617303e-05 0.000287885852277112 0.000185478568443236 -0.00030625757984103 0.000189492214494428 3.51525568654612e-05 0.000375129617059284
"292" -0.00015894406796883 0.000453596282215281 0.000240077536751844 0.0001613598454446 8.27352088271565e-05 0.00017516493752741 -0.0001103060825961 6.98823762929643e-05 0.000476097667912889 0.00013525041523844 0.000303096723405914 0.000208556416480183 -0.000308643501864986 0.000229196047625397 4.20562343806142e-05 0.000361463893249102
"293" -0.000146450303783129 0.000451742289860864 0.00024328474292776 0.00016529072948621 9.02448084313271e-05 0.000177966858415259 -0.000107932698720268 5.51656398397605e-05 0.000497347167372426 0.000174111160437993 0.000318179503686482 0.000231491167638007 -0.000310804038868898 0.000269118954738164 4.95448372159428e-05 0.000349246821293319
"294" -0.000132560996116226 0.000449515250173154 0.000246135876247696 0.000169632418008766 9.79686298600927e-05 0.000181092103742321 -0.000104352428523843 3.96101955177054e-05 0.000519323898423764 0.00021285213831241 0.000333138536850835 0.000254158740184544 -0.000312659016033163 0.000309124345685048 5.76626695826722e-05 0.000338552547831993
"295" -0.000117298523259004 0.000446924993531195 0.000248613765438911 0.000174390740423183 0.000105883660907465 0.000184502855368969 -9.9535375257991e-05 2.32727092900641e-05 0.000542027488508598 0.000251298558292712 0.000347976449282872 0.000276423153998863 -0.000314129656290385 0.000349078092133345 6.64358861260541e-05 0.000329428717765186
"296" -0.000100711877567392 0.000443979874994138 0.000250699345578965 0.000179564096402508 0.000113960311454597 0.000188158337753442 -9.34667967891318e-05 6.22257385753462e-06 0.00056544419426936 0.000289271116879594 0.000362683819779719 0.000298153572519066 -0.000315156242913795 0.00038883423613807 7.58788765406915e-05 0.000321908433125614
"297" -8.28513386313049e-05 0.000440697936042921 0.0002523808004797 0.000185152168652241 0.000122167743038691 0.000192016200242602 -8.61389168670986e-05 -1.14502030317766e-05 0.000589546666050959 0.000326583598256446 0.000377247871240415 0.000319213269353543 -0.000315675871438061 0.000428236674070596 8.59936742146413e-05 0.000315996670920009
"298" -6.37829858307402e-05 0.00043709731506321 0.000253643154934132 0.000191144443840477 0.000130472564561346 0.000196036379504701 -7.75570963171664e-05 -2.9638860656021e-05 0.000614290628216433 0.000363055592145046 0.000391653614572266 0.000339476224112919 -0.000315642790496913 0.000467137258440467 9.67559903448813e-05 0.000311684742746706
"299" -4.35920930506292e-05 0.000433198898085097 0.00025447803125835 0.000197529018519768 0.000138837027571533 0.000200174410614103 -6.7743966197632e-05 -4.82303669032883e-05 0.000639614330643703 0.000398495686800717 0.000405867153089075 0.000358807203117789 -0.000315020964742996 0.000505371998815132 0.000108137589265634 0.000308938497531869
"300" -2.23623284111094e-05 0.00042903230469961 0.000254880014169655 0.000204288599997252 0.000147229223119244 0.000204384763381767 -5.67194496589217e-05 -6.70910008651787e-05 0.000665452756686338 0.00043271880180257 0.000419864777067497 0.000377080909715353 -0.000313783591026889 0.000542781544292615 0.000120092779874838 0.000307703590085265
"301" -1.98944494702549e-07 0.000424619565140913 0.000254841593947514 0.000211404308705637 0.000155610096802361 0.000208627874098215 -4.4531156971152e-05 -8.60781876008188e-05 0.000691708308944764 0.000465542360095107 0.000433602097898005 0.000394176215828575 -0.000311917954607094 0.000579203259236515 0.000132558559189103 0.00030791091574881
"302" 2.27889531946393e-05 0.000419994123237608 0.000254369253320287 0.000218846006549096 0.000163945610077569 0.000212861099612552 -3.12251303343229e-05 -0.000105038754418922 0.000718284915978597 0.000496786965526904 0.000447035527319017 0.00040997887543059 -0.000309420852903627 0.000614470555372576 0.000145456511562377 0.000309466371471002
"303" 4.6476858907521e-05 0.000415193078157154 0.000253458913328088 0.000226586106017242 0.000172192461412341 0.000217041030554648 -1.68636358337476e-05 -0.00012380686005394 0.000745067542789033 0.000526279532763954 0.000460117028563359 0.000424378903723942 -0.000306300093349431 0.000648421523844609 0.00015870049698411 0.000312261931572951
"304" 7.07397866650026e-05 0.000410250855868127 0.00025211830777473 0.000234595051971544 0.000180318914962551 0.000221135270076313 -1.51347493106124e-06 -0.000142217648647493 0.000771926667054761 0.000553852706471195 0.000472788261251178 0.000437278463236582 -0.000302575486204363 0.000680900334527691 0.000172190653450041 0.000316173431051231
"305" 9.54440318043785e-05 0.000405205491766469 0.000250355366798848 0.000242832973682618 0.000188282135312148 0.000225105784365252 1.47443642401989e-05 -0.00016009626428502 0.000798727192656377 0.000579357190368183 0.00048498968653025 0.000448587728402879 -0.000298280164563276 0.000711751798633127 0.000185812798717086 0.00032105883402378
"306" 0.00012044922282811 0.000400100721338481 0.000248178601727942 0.000251261449557964 0.000196047680820426 0.000228924531679722 3.18246926293574e-05 -0.000177263049583534 0.000825319261017847 0.000602647484214516 0.000496662851851897 0.000458228524889989 -0.000293455533368918 0.000740825697732184 0.000199453892479393 0.000326770216666735
"307" 0.000145619128553157 0.000394977161034489 0.00024560332229159 0.000259838827577384 0.000203585638835136 0.000232564405711521 4.96387107176618e-05 -0.000193549652933706 0.000851552236360413 0.000623596365307306 0.000507735289708824 0.000466139777880722 -0.00028815230864108 0.000767982157075994 0.000212978388500441 0.000333139805410325
"308" 0.000170807308108642 0.000389882504437278 0.00024264434261048 0.000268525702605119 0.000210856624202019 0.00023600500521806 6.8088605465679e-05 -0.000208775690203034 0.000877265315938211 0.000642086779231396 0.000518147008526706 0.000472267764815526 -0.000282430053766149 0.00079308370952991 0.000226264745090428 0.000339997891897074
"309" 0.000195871163958362 0.000384859330430819 0.000239318850539768 0.000277271532027092 0.000217835849612705 0.000239227614565779 8.7072581876309e-05 -0.000222774562204475 0.00090229354545156 0.000658025781286532 0.0005278236651007 0.000476572973902381 -0.000276359947382659 0.000816016454948392 0.000239168927329129 0.000347160395815059
"310" 0.000220672751828474 0.000379956393653857 0.000235652393667546 0.000286031834342874 0.000224493191980134 0.000242220962172014 0.000106488737115779 -0.000235376613215911 0.000926470912726952 0.000671336816549029 0.000536702377150656 0.00047903501704413 -0.000270012654668661 0.000836664192188307 0.000251562607039262 0.000354448020743024
"311" 0.000245071007735255 0.000375221370724056 0.000231660384200915 0.000294756975127102 0.000230803087818807 0.000244978390703655 0.000126226618332729 -0.000246435642195448 0.000949628970238976 0.000681962743381124 0.000544714961988017 0.000479648882054936 -0.000263474156998357 0.000854931884855578 0.000263299808774635 0.000361668111292387
"312" 0.00026893630854073 0.000370702568971568 0.000227373558677472 0.000303402116300535 0.000236745614318363 0.000247498785600852 0.000146185193461303 -0.000255804786706664 0.000971603424949294 0.000689863799869671 0.000551797378506204 0.000478420699013525 -0.000256830629225703 0.000870738149359965 0.000274254698623869 0.000368636407253297
"313" 0.000292137011307215 0.000366445034132617 0.000222814316094441 0.00031191434436515 0.00024230365857317 0.000249786092318063 0.000166256444359108 -0.000263355121786619 0.000992237579835268 0.000695025949486251 0.000557891720433297 0.000475377432225763 -0.000250171135410415 0.00088401531952264 0.000284295971286102 0.000375165901913534
"314" 0.000314559595886292 0.000362499964268456 0.000218009647369602 0.000320248357412893 0.000247459243413288 0.000251850804929239 0.000186335294570663 -0.000268970011833899 0.00101137185858378 0.000697460362327531 0.00056293915655109 0.000470562935152012 -0.00024358946049246 0.000894712815659286 0.000293294806008315 0.000381073760176771
"315" 0.000336094733670259 0.000358912167762233 0.000212989556393166 0.000328355779076631 0.000252206799976196 0.000253703712863196 0.000206328555148089 -0.000272550294830519 0.00102886099332691 0.000697190059175974 0.000566893524098277 0.000464033170812048 -0.000237175183011248 0.000902796174733533 0.000301145267533327 0.000386187262070431
"316" 0.000356645643695311 0.000355728542830277 0.000207786440394939 0.000336189546418949 0.000256540181895084 0.000255371538893457 0.000226132173838307 -0.000274019958534209 0.00104457101706066 0.000694275207897169 0.000569709400424233 0.000455865402024949 -0.000231025177703436 0.00090825267122182 0.000307740152515216 0.000390339052922212
"317" 0.000376110672234564 0.000352992743882127 0.000202427817898659 0.000343703221863585 0.000260457214997202 0.00025687342185267 0.000245658838493328 -0.000273316070165456 0.00105837423283474 0.000688788166293286 0.000571349868125159 0.000446148647436184 -0.000225230958650481 0.000911081532728223 0.000312981656476338 0.0003933717345433
"318" 0.000394430877726253 0.000350746853307234 0.000196946781552332 0.000350856775930054 0.000263963224874407 0.000258241284083037 0.000264822049149315 -0.000270400768481906 0.00107016098186206 0.000680824769253357 0.000571788912154041 0.000434987395223472 -0.000219876914667289 0.000911309562896223 0.000316794972428877 0.000395145853453149
"319" 0.000411525773993125 0.000349033987315846 0.000191375931618625 0.000357602171275061 0.000267067053253502 0.000259504639084573 0.000283544683006038 -0.000265256809065802 0.0010798336972193 0.000670502408503744 0.000571005361584164 0.000422501178846148 -0.000215052555095367 0.000908971344439308 0.000319112311664309 0.000395525457009191
"320" 0.000427356518984319 0.000347890381372834 0.000185740893776522 0.00036390394360623 0.000269777477356707 0.000260703474540202 0.000301753778169862 -0.000257890260929242 0.00108730967190143 0.000657959986718595 0.000568988062928983 0.000408827730212236 -0.000210839760130326 0.000904126201078033 0.000319881544332643 0.000394402543126102
"321" 0.000441878676020195 0.000347349116978239 0.000180076447811259 0.000369726192497684 0.000272116318290691 0.000261877285881761 0.00031938705444298 -0.000248332363009739 0.00109252573262756 0.000643351492652653 0.000565737464162009 0.000394104562917569 -0.000207309384489751 0.000896853785452098 0.000319072717645979 0.000391680323441512
"322" 0.000455065911117364 0.000347448383172939 0.000174415709973811 0.000375029119591826 0.000274103834037957 0.000263067418363579 0.000336392688988851 -0.000236629180295456 0.00109543707119764 0.000626851798816405 0.000561261867538727 0.000378493706829824 -0.000204528690553765 0.000887240821739145 0.000316660317143915 0.000387276402583554
"323" 0.000466911139598387 0.000348210559305695 0.000168782862087067 0.000379783514365127 0.000275763839185521 0.000264318762657537 0.000352720103445642 -0.000222864840856962 0.00109601978342011 0.00060865041325533 0.000555579052169792 0.000362162651193161 -0.000202561794814758 0.000875399941018467 0.000312648982505819 0.000381136865984312
"324" 0.000477418947498761 0.000349666593861216 0.000163213989268914 0.000383960493945782 0.000277128087022825 0.000265675722552851 0.000368337947434849 -0.000207129494702729 0.00109426328744794 0.000588946991817617 0.000548720203472097 0.000345282961157568 -0.00020145537950632 0.000861458849140374 0.00030705392265908 0.000373219258096723
"325" 0.000486594429761184 0.000351832491426335 0.000157730999169962 0.000387531502577539 0.000278227322178679 0.000267185217359744 0.000383209063595835 -0.000189551061483799 0.00109017968664344 0.000567954314686219 0.000540719417386098 0.000328038449872216 -0.000201259806170489 0.000845556072519536 0.000299907810487644 0.000363504014954605
"326" 0.000494468774736675 0.000354727629842233 0.000152362950973105 0.000390476595168833 0.000279101672503088 0.000268890327269875 0.000397323614438045 -0.000170263219459672 0.00108380051034463 0.000545900217095465 0.000531625703069511 0.000310620395330022 -0.000202004057953102 0.00082784114949557 0.000291257688452403 0.000351993866755009
"327" 0.000501078673261786 0.000358366197792728 0.0001471335135731 0.000392772373415658 0.000279788939817483 0.000270840076418102 0.000410668971634219 -0.000149435731681066 0.00107518005716768 0.000523013046698333 0.000521498775678945 0.000293216239938062 -0.000203711554610446 0.000808480448072525 0.000281175963195588 0.00033870836960734
"328" 0.000506476410260743 0.000362751332678466 0.000142064050469015 0.000394404119085331 0.000280331011781949 0.000273079154203922 0.000423239274034342 -0.000127251595659582 0.0010643830380816 0.000499528368624806 0.000510403728112973 0.000276023311602354 -0.000206397546607575 0.000787651643416766 0.000269739168469972 0.00032368823987968
"329" 0.000510710228703495 0.000367884656718829 0.000137180393201643 0.00039535848732462 0.000280771695274706 0.000275648085172127 0.000435041184158361 -0.000103902571782264 0.00105149450488768 0.00047568774873934 0.000498409539301537 0.000259236980964255 -0.000210066886351897 0.000765534179915381 0.000257048680242464 0.000306994804684814
"330" 0.000513854430001991 0.000373763067844974 0.000132495431192532 0.000395622991116486 0.000281154441577879 0.00027858619283663 0.000446087337002615 -7.96098421019748e-05 0.00103662256046471 0.000451734400181656 0.000485600489973518 0.000243055951686259 -0.000214714911873034 0.000742322870463598 0.000243208441376506 0.000288707171715019
"331" 0.00051597347202601 0.000380379398999951 0.00012803020162167 0.000395190081907558 0.000281528350259005 0.000281931805140124 0.000456400368020262 -5.46027008551246e-05 0.00101988048197956 0.000427909236021845 0.000472061543491815 0.000227667683602668 -0.000220329209742116 0.000718206735000796 0.000228340538963736 0.000268918294515569
"332" 0.000517147451324091 0.000387715920563531 0.000123796756086033 0.000394057849432021 0.000281937678232363 0.000285717385804214 0.000466003037693906 -2.91208998688902e-05 0.00100140774745659 0.00040444687563722 0.000457886939937856 0.000213267179204272 -0.000226877011578985 0.000693391503343943 0.000212582181570842 0.000247743788233575
"333" 0.00051746392883481 0.000395753140759727 0.000119804347525159 0.00039222409343885 0.000282428111232344 0.000289970765759284 0.000474924641130735 -3.41316895082607e-06 0.000981345518245243 0.000381587741041715 0.000443173566638956 0.000200037652698011 -0.000234330346897413 0.000668080188501503 0.000196073510347691 0.000225308924541458
"334" 0.000517008421898654 0.000404458538300468 0.000116063905409753 0.000389690477765206 0.000283049824166964 0.000294716920678952 0.000483205536822322 2.22550983788314e-05 0.000959854174786308 0.000359555120814779 0.000428022520175948 0.00018815711413019 -0.00024264211906893 0.000642467752890205 0.000178968922157754 0.0002017562224167
"335" 0.000515864929947982 0.000413801754427393 0.000112584451809288 0.000386460515178325 0.000283839982363717 0.0002999724331143 0.000490882779752919 4.76253376283804e-05 0.000937099959710602 0.000338573237320904 0.000412536852554619 0.000177794152846006 -0.000251762960062837 0.000616761733764844 0.000161418224295407 0.000177236951365641
"336" 0.00051413079830336 0.000423739766157338 0.000109363421265791 0.000382544018363154 0.000284845404839799 0.000305755840957688 0.00049799778916093 7.24288150333766e-05 0.000913257370020912 0.000318853432673573 0.000396826445710208 0.000169109258718965 -0.000261630264917838 0.000591158833001831 0.00014358528437637 0.000151918371028732
"337" 0.000511890896047488 0.000434224827303678 0.000106401513833934 0.000377952024576214 0.000286107610877293 0.000312071734360531 0.000504595436017075 9.64000736517346e-05 0.000888503905499439 0.000300596344550388 0.000380992017162615 0.000162252413540859 -0.000272180890342041 0.000565847625900037 0.000125636880071416 0.000125963909026195
"338" 0.000509238856201834 0.000445205434829643 0.000103699521306976 0.000372694526768643 0.000287657274334748 0.000318919696691879 0.000510724830273696 0.000119277673037784 0.000863031141814874 0.000283990867195199 0.000365145705449298 0.000157359203183747 -0.000283334438907205 0.000541018788055011 0.000107735061148583 9.95606878971539e-05
"339" 0.000506257939996283 0.000456619683243269 0.000101246409716624 0.000366791676750853 0.000289532145139238 0.000326298113503787 0.000516430835401901 0.000140799353119024 0.00083702002966447 0.000269215557338775 0.000349388896443633 0.000154551433846609 -0.00029501258139166 0.000516853669892949 9.00490967687357e-05 7.28879135013211e-05
"340" 0.000503030274717919 0.000468397703253586 9.90385264860197e-05 0.000360259774629753 0.00029176173364447 0.000334194506290824 0.000521758484448818 0.000160718030711151 0.000810660016212972 0.000256425510195017 0.000333828501619174 0.000153937988731713 -0.000307130941049422 0.000493522811574104 7.27385380996386e-05 4.61285438077891e-05
"341" 0.000499638796401286 0.000480467635762757 9.70578319668834e-05 0.000353120272461367 0.000294365742355666 0.000342591105865387 0.000526754204389466 0.000178792161156397 0.000784134848368974 0.000245767931727766 0.000318561858211168 0.000155609621835782 -0.000319594766348639 0.000471186386212668 5.59639401494255e-05 1.94734432800714e-05
"342" 0.000496152921180616 0.000492748023086508 9.52962900549725e-05 0.000345397034211964 0.000297367113777603 0.000351461782629692 0.00053146119893583 0.000194801174654115 0.000757625876882686 0.00023736929952494 0.000303682298557342 0.000159638957826368 -0.000332314577728723 0.000449994980028312 3.98793271260335e-05 -6.89639861765684e-06
"343" 0.000492641591912915 0.000505156491164327 9.37308638244325e-05 0.000337116128311638 0.000300779762283817 0.000360776415736598 0.000535917534050381 0.000208529803655142 0.000731309847181472 0.000231340089818045 0.000289285738199956 0.000166077435382231 -0.000345190229734086 0.000430086914814423 2.46322984788608e-05 -3.27957793732174e-05
"344" 0.000489166476501115 0.000517598955989797 9.23440420846702e-05 0.000328306753035089 0.000304612665303454 0.000370498367224042 0.000540166029798023 0.000219794760843602 0.000705359213724204 0.000227773981923606 0.000275454730361558 0.000174965344910125 -0.00035811784771353 0.000411591842892356 1.03623803853602e-05 -5.80475682329667e-05
