"V1" "V2" "V4" "V5" "V7" "V8" "V10" "V11" "V13" "V14" "V15" "V17" "V18" "V20" "V21" "V23"
"1" 1.95949029121897e-05 2.49461407082088e-06 1.48625878077823e-05 1.15452312350655e-05 2.88944091265551e-05 2.36194684854581e-05 2.49015710216422e-05 1.79109628434284e-05 2.43797111654052e-05 1.48504762802915e-05 1.36580342774292e-05 2.61517141371672e-05 2.40412199386967e-05 2.57568188205257e-05 1.63858847607014e-05 2.30621258405893e-05
"2" -4.38159096134077e-05 3.59813788680424e-05 6.39725426723275e-05 3.62995854851036e-05 6.14074681239817e-05 1.937768955373e-05 4.06110640566371e-05 1.46951028143814e-05 2.93115014177383e-05 3.02991991384818e-05 2.6767846264867e-05 2.12172598128208e-06 5.93622141729012e-06 2.24966322123326e-05 2.40282476031719e-06 -5.95045034086816e-06
"3" -0.000106658052920283 6.93912781378378e-05 0.000112995748155103 6.10504008387318e-05 9.39508712458175e-05 1.51972891034127e-05 5.63277665369413e-05 1.15874678589772e-05 3.41094666906877e-05 4.56249204062759e-05 3.98260781250757e-05 -2.18216353235689e-05 -1.21244765041663e-05 1.91905356027123e-05 -1.14796508732016e-05 -3.47664201194608e-05
"4" -0.00016846548507321 0.000102597956255413 0.000161820036775217 8.57430009441401e-05 0.00012644191848116 1.11747778947874e-05 7.20603886860802e-05 8.72170404169499e-06 3.8728026627801e-05 6.07121229870746e-05 5.2755755452576e-05 -4.55843738864008e-05 -3.00836240043591e-05 1.58186958040718e-05 -2.51831855894175e-05 -6.31728548240726e-05
"5" -0.000228795151945306 0.000135482447169582 0.000210326645824879 0.000110318210890574 0.000158794141413899 7.40488524737996e-06 8.78070701963407e-05 6.23761268283567e-06 4.31286738086619e-05 7.54483355374566e-05 6.54776699334639e-05 -6.90753536208337e-05 -4.7880378809182e-05 1.23549212191959e-05 -3.86228262573819e-05 -9.09648383140213e-05
"6" -0.000287208230170833 0.000167916358963531 0.000258401569832405 0.00013472181020556 0.000190921816371919 3.98004453228031e-06 0.000103582251076659 4.26690465195054e-06 4.72726163702643e-05 8.97225302610437e-05 7.791891391425e-05 -9.2203847668465e-05 -6.54560900436949e-05 8.7793094388323e-06 -5.17171273638335e-05 -0.000117943158727274
"7" -0.000343300365758277 0.000199783145463104 0.000305933523660616 0.000158899584196108 0.000222743277227748 9.8787723707836e-07 0.00011938427737648 2.9342679556344e-06 5.11277232105058e-05 0.000103427052929172 9.00043647394261e-05 -0.000114884313060358 -8.27501298678805e-05 5.07308623486676e-06 -6.43933092825142e-05 -0.000143912641519014
"8" -0.00039667542200541 0.00023096343956491 0.000352811907751294 0.000182792827267321 0.000254176827557925 -1.48857382445843e-06 0.000135222661879689 2.35588191002906e-06 5.46600364752047e-05 0.00011646700571204 0.000101664320230284 -0.000137035605224188 -9.971270448544e-05 1.21377001712199e-06 -7.65762467250263e-05 -0.000168694550791726
"9" -0.000446976394509766 0.000261342553039833 0.000398924700361961 0.000206348643595165 0.000285135177946123 -3.36869283938339e-06 0.000151090806022715 2.6433343665605e-06 5.78436843587078e-05 0.000128744928441587 0.000112831191962975 -0.00015857778952851 -0.000116286504753636 -2.81692847319781e-06 -8.82013741896252e-05 -0.000192116352699552
"10" -0.000493870926476438 0.000290810531604366 0.000444175502412066 0.000229509883659316 0.000315545394113723 -4.58648876458313e-06 0.000166997659005283 3.89279720659566e-06 6.06537818237633e-05 0.000140174255211061 0.000123441612915196 -0.000179438519821548 -0.000132424545570974 -7.03326908165288e-06 -9.92071884060336e-05 -0.000214018533520069
"11" -0.000537061417176487 0.000319260242554407 0.000488460302927158 0.000252228538936622 0.000345327032436572 -5.07265993309993e-06 0.000182933336452978 6.1964662673964e-06 6.30770397171604e-05 0.000150678956280909 0.000133437943777851 -0.000199549073589653 -0.000148076996472294 -1.14496073058858e-05 -0.000109535871439581 -0.00023426049871967
"12" -0.000576279796093259 0.000346590134538618 0.000531680193048171 0.000274451183762796 0.00037440496047873 -4.77615403139768e-06 0.000198897325983022 9.62551030958414e-06 6.50947930377944e-05 0.000160193093876538 0.000142764508713991 -0.000218847789320079 -0.000163200444147522 -1.60774110335532e-05 -0.000119137934454258 -0.000252711394435159
"13" -0.000611303772856907 0.000372709828018222 0.000573746299405027 0.000296127564121187 0.000402713330499098 -3.64747975785019e-06 0.000214881283589976 1.42433270497687e-05 6.66988957746049e-05 0.000168653210606503 0.000151375783473348 -0.000237280606144158 -0.000177757498841026 -2.09292180047383e-05 -0.000127971413161986 -0.000269261022847293
"14" -0.000641937789457437 0.000397525761624084 0.000614572895663981 0.00031721061337294 0.000430182862502991 -1.65069682213854e-06 0.000230871763731062 2.0093755730033e-05 6.78808291216116e-05 0.000176021327931558 0.000159228001377857 -0.000254795715681281 -0.000191709396890758 -2.6010504598377e-05 -0.000136000026053041 -0.000283812924417881
"15" -0.000668037428984249 0.000420959997707455 0.000654074881068448 0.000337656147138935 0.000456754360835596 1.24204135507397e-06 0.000246861149241469 2.72125696000523e-05 6.86415473315283e-05 0.000182250098117956 0.000166289124817321 -0.000271355309707658 -0.00020502620949212 -3.13259498074688e-05 -0.000143197185961965 -0.000296295002890314
"16" -0.000689486780348178 0.000442938021881884 0.000692178648320425 0.00035742084487253 0.00048236951436415 5.04595177603323e-06 0.000262825654285062 3.56106445608767e-05 6.89834129515992e-05 0.000187318944347401 0.000172527007726626 -0.00028692492276843 -0.000217678879164838 -3.68806297587121e-05 -0.00014954237008278 -0.000306645572722739
"17" -0.000706222055443862 0.000463393953109355 0.00072881695069746 0.000376465621744544 0.000506977501849467 9.7689783911607e-06 0.000278751651385022 4.52946815401742e-05 6.89105112047138e-05 0.000191216901310682 0.000177922072785538 -0.000301475009243371 -0.000229643938270349 -4.26717568203823e-05 -0.00015502086269571 -0.000314827461234924
"18" -0.000718210905239589 0.000482269930817994 0.000763919851829539 0.000394750054004223 0.000530529838506348 1.54051453993256e-05 0.000294610682501998 5.62410174759984e-05 6.84348150375136e-05 0.000193938637097828 0.0001824609062058 -0.000314990748739811 -0.00024090716177341 -4.87050729087817e-05 -0.000159632427413705 -0.000320825104686848
"19" -0.000725463068518909 0.000499517082504177 0.000797427111751467 0.000412238346104809 0.000552988922778207 2.19421154754258e-05 0.000310377375537832 6.84243640973912e-05 6.75653747065971e-05 0.000195493300648866 0.000186135192022201 -0.000327462669775514 -0.00025145315950416 -5.49736055834372e-05 -0.000163379836303355 -0.000324636687126696
"20" -0.000728031263852789 0.000515097147758849 0.000829295357456689 0.000428905147144672 0.000574318144801783 2.93521536331028e-05 0.000326024232753283 8.17953775576725e-05 6.63251596404637e-05 0.000195903957478523 0.000188945727668103 -0.000338884990193362 -0.000261270007439271 -6.14660256194809e-05 -0.000166269186739902 -0.000326282157596409
"21" -0.000726001735078474 0.000528974599858424 0.000859475606229071 0.000444716439145044 0.000594486911985242 3.76021023635152e-05 0.000341513287293626 9.62907827220645e-05 6.4724830503484e-05 0.000195201250082378 0.000190899377091406 -0.000349264864647628 -0.000270360300701506 -6.81824451356061e-05 -0.000168327127915006 -0.000325802694092614
"22" -0.000719500560172599 0.000541131585005136 0.00088792030586122 0.000459647194583642 0.000613471711044733 4.66428064348108e-05 0.000356811098164392 0.000111830497036552 6.27906162223287e-05 0.000193422764477977 0.000192011716074207 -0.00035861633075492 -0.000278721498596653 -7.51102890948657e-05 -0.000169576860883465 -0.000323254736557799
"23" -0.000708694883948356 0.00055155394371717 0.000914607040614714 0.000473677308804571 0.000631250742821437 5.64242286274094e-05 0.000371877157013427 0.000128326234601708 6.05445255325103e-05 0.000190620111697039 0.000192303522128681 -0.000366959525097286 -0.000286361239468662 -8.22370206999201e-05 -0.000170051208819074 -0.000318712224558008
"24" -0.000693777432367512 0.000560236047785827 0.000939501378473145 0.00048678860656524 0.000647807518575426 6.68791355836613e-05 0.000386663271401863 0.000145672627538444 5.80145678079334e-05 0.000186854051735339 0.000191802585132012 -0.000374321728697595 -0.000293290762320229 -8.95529430388366e-05 -0.00016979431175386 -0.00031227057972187
"25" -0.000674975562097919 0.000567185493252461 0.000962587464424683 0.000498964862652773 0.000663135446899329 7.79389963315489e-05 0.000401132252217908 0.000163751808633515 5.52237441534226e-05 0.000182187788927382 0.000190541778567153 -0.000380737725684375 -0.000299523796782043 -9.70395691401541e-05 -0.000168850685568159 -0.000304040291283686
"26" -0.000652549612900782 0.000572414864754849 0.000983842095822067 0.000510195742073956 0.000677223933842897 8.95243320270259e-05 0.000415223513535005 0.000182436938307248 5.22032078082001e-05 0.000176697343087701 0.00018856229364451 -0.000386250346457376 -0.000305083092601154 -0.000104684418354132 -0.000167281212804045 -0.000294144666075702
"27" -0.000626780417628816 0.000575946588943134 0.00100326351739431 0.000520471230239 0.00069007160479784 0.00010155037708347 0.000428893892107791 0.000201590772532164 4.89780885044136e-05 0.000170458227217417 0.000185904949401791 -0.000390907966086805 -0.00030999221071372 -0.000112472551339112 -0.00016514283358864 -0.000282722721516173
"28" -0.000597982129279503 0.000577812756925842 0.00102084505699315 0.000529787869948528 0.00070167769485042 0.000113927593088753 0.000442089603796965 0.00022107019746386 4.55855641168566e-05 0.000163553262460988 0.000182623714181163 -0.000394761658838295 -0.000314279383422242 -0.00012038635793225 -0.000162502990705104 -0.000269924486520361
"29" -0.000566474553006596 0.000578053567482668 0.001036589163444 0.000538148462344222 0.000712049246810937 0.000126562233932675 0.000454752417333439 0.000240720602148168 4.20496702459163e-05 0.000156071156314544 0.000178765871181724 -0.000397871477952068 -0.000317976929768294 -0.000128403372362424 -0.00015942892713705 -0.000255913620073578
"30" -0.000532612432474601 0.000576716807550852 0.00105050759599022 0.000545550924882883 0.000721188306293281 0.000139355623361106 0.000466826127173614 0.000260388237052474 3.8403350412548e-05 0.000148099171699866 0.000174391261536533 -0.000400298094231993 -0.000321120854587204 -0.000136512326678415 -0.000156000131060059 -0.000240862083335619
"31" -0.00049675122821255 0.000573855320468424 0.00106260311394404 0.000552004413467709 0.000729100493010067 0.000152211099703322 0.000478252465772958 0.000279914113868674 3.46793097797939e-05 0.000139726961744635 0.000169560311268808 -0.000402108376899106 -0.000323747892913133 -0.000144689896415187 -0.000152289126209447 -0.000224951319366768
"32" -0.000459268140252575 0.000569532507060477 0.00107290238480075 0.000557518004836323 0.000735799310499533 0.000165024878962268 0.000488973046764754 0.000299137393447196 3.09041936967395e-05 0.000131039496001252 0.000164333137289794 -0.000403374429756464 -0.000325902435398559 -0.000152918916523858 -0.000148381432337476 -0.000208365948995053
"33" -0.000420531537999379 0.000563816057328392 0.00108142337024512 0.000562105030344764 0.000741294290320553 0.00017769929372656 0.000498933934856203 0.000317899100139676 2.71109445673539e-05 0.000122132820228791 0.00015877231561731 -0.000404163950697625 -0.000327628670974797 -0.000161180204338485 -0.000144358049309523 -0.000191297871994467
"34" -0.000380930141681412 0.000556777754677028 0.00108819294757642 0.000565778665085946 0.000745593942810937 0.000190133146197428 0.000508068949148327 0.000336041209102829 2.33278728939408e-05 0.000113087384404305 0.000152941673509381 -0.00040455539701457 -0.00032897030392714 -0.00016945763821059 -0.000140301035829896 -0.000173941525743765
"35" -0.000340838937973309 0.00054850110198157 0.00109323941842401 0.000568561794846838 0.000748712659571316 0.000202231969405357 0.000516325271535683 0.000353409892252413 1.95793819750932e-05 0.000103986442742103 0.000146904053853495 -0.00040461986545344 -0.000329980485092404 -0.000177732916482663 -0.000136299035256439 -0.000156492294026477
"36" -0.000300639365821466 0.000539069369964327 0.00109660173060813 0.00057047545438982 0.000750659837082541 0.000213903252614743 0.000523645392870801 0.000369860514222681 1.58976575631057e-05 9.49087278998305e-05 0.000140727919757491 -0.000404436058765078 -0.00033070343651038 -0.000185990218221315 -0.000132431796195561 -0.000139140961515128
"37" -0.000260694153712936 0.000528570274647729 0.00109831415598158 0.000571542998875581 0.000751446963656234 0.000225055967709777 0.000529975515014284 0.000385250324956461 1.23012082701622e-05 8.59274121231478e-05 0.000134472121615849 -0.000404074710670853 -0.000331195847710086 -0.000194210765721723 -0.000128785746647751 -0.000122082546717436
"38" -0.000221356545671475 0.000517095619569336 0.00109841983531537 0.000571792694097443 0.000751089795002631 0.000235611024130446 0.000535264100378212 0.000399449671115556 8.81515744942611e-06 7.71077708438888e-05 0.000128197465131937 -0.00040361207264499 -0.000331503871036302 -0.000202381444830625 -0.000125439245648317 -0.000105501519754937
"39" -0.000182970658513564 0.000504743506528004 0.00109695894851136 0.000571257412547469 0.000749590802492211 0.000245488925382956 0.000539458709050818 0.000412338867763662 5.45930565329728e-06 6.85143865512689e-05 0.000121966757244734 -0.000403120811839095 -0.000331683054478341 -0.000210484913060642 -0.000122471991438964 -8.95790648853552e-05
"40" -0.00014585829289674 0.000491613987412709 0.00109398694900729 0.000569966453421617 0.000746971770586735 0.000254622519003335 0.000542518053829629 0.000423810565174056 2.25240056056068e-06 6.01987256639819e-05 0.000115834672618448 -0.000402666130575364 -0.000331778725766752 -0.000218508702101204 -0.000119956084089891 -7.4485545935565e-05
"41" -0.000110315459102123 0.000477800849047008 0.00108954728193626 0.000567956152184298 0.000743234762234317 0.000262948827550866 0.000544394097320185 0.000433768913499989 -7.91129376825101e-07 5.22042873290342e-05 0.000109855192789382 -0.000402317075058171 -0.000331846862015187 -0.000226443744607033 -0.00011796407622813 -6.03825977337042e-05
"42" -7.66180567421489e-05 0.000463414625892594 0.00108369775994898 0.000565262974831948 0.00073839441632935 0.00027041741274573 0.00054505511580247 0.000442133779155914 -3.65869035420779e-06 4.45738119289992e-05 0.000104079729787814 -0.000402133947949445 -0.000331935301014871 -0.00023427165767337 -0.000116556498023229 -4.74233650511881e-05
"43" -4.50160895136052e-05 0.000448553510757309 0.00107649067374633 0.000561928449625828 0.000732458764785447 0.0002769840755331 0.000544467046543922 0.000448838441712245 -6.34262681300656e-06 3.7334124612299e-05 9.85550267101074e-05 -0.000402174001931946 -0.00033208977147613 -0.000241986308450722 -0.00011579683648517 -3.57435790510421e-05
"44" -1.57221680180693e-05 0.000433320761857393 0.00106798120649483 0.000557989595564218 0.000725439390060015 0.00028261676939014 0.000542598576760384 0.000453836127883094 -8.83286161179957e-06 3.05048375897291e-05 9.33244984171703e-05 -0.000402491453046771 -0.000332359127432084 -0.000249578648490953 -0.00011573758354277 -2.54696187128607e-05
"45" 1.10722232919542e-05 0.000417820196807075 0.00105823265335732 0.000553488891401012 0.000717345376457204 0.000287291022673394 0.000539433824349898 0.00045709379623513 -1.11291241012913e-05 2.41033418386547e-05 8.84264656510021e-05 -0.000403129860997059 -0.00033278661449496 -0.000257036315978999 -0.000116419752465175 -1.67114279960885e-05
"46" 3.52162311307728e-05 0.000402152748442734 0.00104730523370218 0.000548469931765283 0.000708189096071483 0.00029099390343466 0.000534953773670876 0.000458595127099362 -1.32323144602783e-05 1.81306481076334e-05 8.38931946639267e-05 -0.000404133708158107 -0.000333414586583574 -0.000264354910240113 -0.000117886200144606 -9.55995610427925e-06
"47" 5.65873623980948e-05 0.000386423149837774 0.00103526243038096 0.000542980430597513 0.000697979683374862 0.00029372273817988 0.000529151456754628 0.000458342106070113 -1.51412533882347e-05 1.25846243283303e-05 7.97579832341047e-05 -0.000405533494436901 -0.00033427989605262 -0.000271528472037107 -0.000120164977452427 -4.09134851993362e-06
"48" 7.50974780633705e-05 0.00037072989213697 0.00102217133189914 0.000537063123332501 0.000686735999253108 0.000295485972272029 0.000522025703109512 0.000456354385108666 -1.68642815972087e-05 7.45428396036475e-06 7.6043482246346e-05 -0.000407359764927904 -0.000335418811027025 -0.000278545754936945 -0.000123276003401991 -3.66290214660489e-07
"49" 9.06973889886561e-05 0.000355169638883902 0.00100809565930762 0.000530767470230304 0.000674470108323058 0.000296300772338976 0.000513582231239108 0.000452666963704511 -1.84131603622027e-05 2.71930433461496e-06 7.27694032437826e-05 -0.000409632238578794 -0.000336862918824831 -0.000285408957803444 -0.000127234865897943 1.57695339683289e-06
"50" 0.00010336391228424 0.000339835879444943 0.000993106247325775 0.000524139379875622 0.000661198490985679 0.000296195113933373 0.000503831905958471 0.000447331741790326 -1.97934506326771e-05 -1.64472342141834e-06 6.99540363514492e-05 -0.000412363599096296 -0.000338640502048586 -0.000292109059875634 -0.000132042283229075 1.71436368793752e-06
"51" 0.000113117515970573 0.000324826094960618 0.000977270864408123 0.000517223654705811 0.000646945458739329 0.000295205286339934 0.000492798640807455 0.000440416163124869 -2.1024901279659e-05 -5.67373773910593e-06 6.76056892649686e-05 -0.000415560564359023 -0.000340775175068293 -0.000298643694309911 -0.000137697817636797 4.06742241327221e-08
"52" 0.000119999286701512 0.000310227255196128 0.000960661458485093 0.00051007661076275 0.000631728099170241 0.000293379759014703 0.000480508304787067 0.000432002578183237 -2.21196969267062e-05 -9.40114814101608e-06 6.57301562719857e-05 -0.000419221343033772 -0.000343288119412675 -0.000305008370636845 -0.000144180850146721 -3.42913214408384e-06
"53" 0.000124087083453607 0.000296121596374447 0.000943352980599805 0.000502739456431042 0.000615577246879848 0.000290772301557467 0.000467000428971651 0.000422189546119743 -2.31001090993233e-05 -1.28723123558774e-05 6.43308984818173e-05 -0.00042333917794482 -0.000346195369752725 -0.00031120054563235 -0.000151474244446286 -8.66491667717624e-06
"54" 0.000125488480680665 0.000282597784534418 0.00092542048094059 0.000495263717922213 0.000598523250510985 0.000287445240719894 0.000452316847751811 0.000411085533649729 -2.39837862464721e-05 -1.61355538681815e-05 6.34032000422353e-05 -0.000427896206120368 -0.000349506809174627 -0.000317213274574773 -0.000159536278232154 -1.56179644083844e-05
"55" 0.00012433063443689 0.000269726677481214 0.000906936279409887 0.00048769747100495 0.000580600936406312 0.000283469131467184 0.000436512364853426 0.0003988122794878 -2.47922329979747e-05 -1.92388485678894e-05 6.2941633180054e-05 -0.000432870282174815 -0.00035322826609675 -0.000323047866007026 -0.000168333383653204 -2.42227119780353e-05
"56" 0.000120777182422892 0.000257583529833734 0.000887975944337869 0.000480089269668098 0.00056185461755063 0.000278920676197597 0.000419646152274565 0.000385504284133835 -2.55505382001312e-05 -2.22386574676905e-05 6.2932978587063e-05 -0.00043823206800961 -0.000357362775167776 -0.000328699593253739 -0.00017780632376241 -3.4398483220094e-05
"57" 0.000114998312058954 0.000246237240292096 0.000868621676752962 0.000472486981988043 0.000542319725899703 0.000273879290610855 0.000401781475888937 0.000371298242651193 -2.62804510767008e-05 -2.51874902945842e-05 6.33649834553096e-05 -0.000443945556376942 -0.000361908895044711 -0.000334163924189989 -0.000187905105486585 -4.60510225094171e-05
"58" 0.000107191337901454 0.000235747003527607 0.000848949038230782 0.000464934863021053 0.000522059278591005 0.000268432479735935 0.000382996190357597 0.000356345548564956 -2.70029324966069e-05 -2.81418605367008e-05 6.42184697118834e-05 -0.00044996923705705 -0.000366855744720448 -0.000339432935766617 -0.000198555737891753 -5.907156119397e-05
"59" 9.75626554222495e-05 0.000226175733826509 0.000829033648371778 0.000457479722288655 0.000501119017532543 0.000262668832043535 0.000363367422491707 0.00034079975919099 -2.77422200297763e-05 -3.11591797605065e-05 6.54740939757751e-05 -0.00045625502276603 -0.000372194969163207 -0.000344506836615033 -0.000209688277731331 -7.33401986600519e-05
"60" 8.63400408199048e-05 0.000217569956434435 0.000808959620504219 0.000450166977937689 0.00047956692749187 0.000256678834168433 0.000342986534222652 0.000324817033468007 -2.8522783911768e-05 -3.42934536538921e-05 6.71051221719648e-05 -0.000462749678444481 -0.000377907924645247 -0.000349378461185819 -0.000221220026699564 -8.87241075897247e-05
"61" 7.37466808048995e-05 0.000209977991654681 0.000788799264258107 0.000443037183764767 0.000457465201299572 0.000250556626909262 0.000321943058938525 0.000308558717734896 -2.93650750495186e-05 -3.75927813965965e-05 6.90865800157787e-05 -0.00046939630589942 -0.000383973302508363 -0.000354040625104835 -0.000233062664644516 -0.00010508570519258
"62" 6.00227121950908e-05 0.000203440773415936 0.000768641921258725 0.000436134381842638 0.000434895643518773 0.000244394647699618 0.000300335788691053 0.00029218361236675 -3.028499020118e-05 -4.11068832036796e-05 7.13916511233577e-05 -0.000476133165342502 -0.00039036578176556 -0.000358482997306694 -0.00024512023804613 -0.000122271757827917
"63" 4.5405750739436e-05 0.000197991710311569 0.000748560114146142 0.000429499785204013 0.000411929955034971 0.000238285905268951 0.000278263549676384 0.000275856947335217 -3.13059367597244e-05 -4.48865176570101e-05 7.39891405170692e-05 -0.000482897353543543 -0.000397056768228105 -0.000362699088803809 -0.000257299628166874 -0.000140132249124222
"64" 3.01319750566813e-05 0.000193660882876953 0.000728635057262324 0.000423166897532024 0.000388654923290566 0.000232318992891149 0.000255837550290695 0.000259731666631727 -3.2441671318264e-05 -4.89651594656411e-05 7.68479440574325e-05 -0.000489619924356679 -0.00040401233444892 -0.000366680424012165 -0.000269497525618382 -0.00015850397981706
"65" 1.44347406813518e-05 0.000190464548229045 0.000708943349064583 0.000417175912935615 0.000365161381202264 0.000226583593861843 0.000233165161535714 0.000243962587920498 -3.37042318244303e-05 -5.33845813531575e-05 7.99366917754226e-05 -0.000496234527484168 -0.000411194551116786 -0.000370412626986454 -0.000281605298578965 -0.000177225632607906
"66" -1.46050674464001e-06 0.000188423651607515 0.000689569022194429 0.000411554915069504 0.000341545953547467 0.000221163063918112 0.000210356186843656 0.000228699840672886 -3.51049140253389e-05 -5.81707422036513e-05 8.32216022541576e-05 -0.000502666709838148 -0.000418565496452132 -0.000373888584626743 -0.000293520703709068 -0.000196135390131275
"67" -1.73400082170101e-05 0.000187548009707707 0.00067058290061328 0.000406340482418962 0.000317902562639537 0.000216136360846245 0.000187526129990192 0.000214081632058188 -3.66501832459591e-05 -6.33505502967937e-05 8.66723353422454e-05 -0.00050884765914699 -0.000426079780897791 -0.00037708998144006 -0.000305132825385351 -0.000215065813490183
"68" -3.29911131373993e-05 0.000187832948072195 0.000652060447724032 0.000401558290062024 0.000294338659606508 0.0002115790707216 0.00016478676671914 0.000200243588950538 -3.83472631370343e-05 -6.89356710550257e-05 9.02536184788187e-05 -0.000514709075635178 -0.000433692479507723 -0.000380008477621747 -0.000316331557147735 -0.000233855917579583
"69" -4.82315760459375e-05 0.000189280459122833 0.000634075384456946 0.000397233011204372 0.000270956092462104 0.000207557884738073 0.000142249985789293 0.000187307770367934 -4.01949653351637e-05 -7.49411575560321e-05 9.39335058775459e-05 -0.000520178650529186 -0.000441354948662661 -0.000382624572573917 -0.00032700962331039 -0.00025234502694815
"70" -6.28799666101484e-05 0.000191882379879643 0.00061670715721378 0.000393388506856533 0.000247869195270027 0.000204134283702128 0.000120036984027824 0.000175386344340102 -4.21946505578198e-05 -8.13609520771574e-05 9.76824115601377e-05 -0.000525187615526217 -0.000449018402139039 -0.000384925018245942 -0.000337059636328023 -0.000270379576979357
"71" -7.67828255738612e-05 0.000195614780611709 0.00060001738551523 0.000390046313651359 0.000225180669671016 0.000201363195194292 9.82498167391424e-05 0.00016458809181749 -4.43363165507883e-05 -8.81951877466045e-05 0.000101471030208676 -0.000529670955462698 -0.000456628227925469 -0.000386895352518351 -0.000346374430323737 -0.000287806465731337
"72" -8.97989192880738e-05 0.000200463359583509 0.000584078018017537 0.000387219825275169 0.000203008804640864 0.000199293075632121 7.70042499094973e-05 0.000154998102104438 -4.66125159293048e-05 -9.54274144040831e-05 0.000105267659228538 -0.00053356574806322 -0.000464133570042172 -0.000388517470012726 -0.000354853107877613 -0.000304483580604585
"73" -0.000101812428359968 0.000206394509629577 0.00056895182223654 0.000384924184614129 0.000181457877937115 0.000197957341872154 5.64020565683724e-05 0.000146695549834937 -4.90130037326649e-05 -0.000103037193453216 0.000109047526458004 -0.000536811677320578 -0.000471480759554457 -0.000389776871286772 -0.000362397960555561 -0.000320273981725831
"74" -0.000112726296646161 0.000213376171029078 0.000554707480512634 0.000383169917048078 0.000160642993300982 0.00019738884772298 3.65497193246421e-05 0.000139745711770034 -5.15217897039924e-05 -0.00011099908808788 0.000112784291299258 -0.000539354375816709 -0.000478614769054634 -0.00039065453056701 -0.000368914793677445 -0.000335051118150322
"75" -0.000122466475752221 0.000221368223831091 0.000541397460362875 0.000381960862703037 0.000140668107377061 0.000197607128290965 1.75381368774623e-05 0.000134200971096304 -5.41199191049167e-05 -0.00011927458570186 0.000116454432517147 -0.000541140620026685 -0.000485486031952975 -0.000391135862575162 -0.00037431591434748 -0.000348696134568337
"76" -0.000130975383297315 0.000230324762538188 0.000529082648436022 0.000381303653964233 0.000121644031647425 0.000198627506844928 -5.33907441540592e-07 0.000130098615258945 -5.67885591732979e-05 -0.000127825027969915 0.000120036972873744 -0.000542125244342332 -0.000492036559034945 -0.000391206226847665 -0.000378521690062848 -0.000361099883731868
"77" -0.000138225468478536 0.000240194685592826 0.000517811727341986 0.000381195946464442 0.000103667470780331 0.000200450096329849 -1.75819532155597e-05 0.000127465399438579 -5.9501708667926e-05 -0.000136599926789621 0.000123512779075306 -0.000542269743874571 -0.00049821423158606 -0.00039084937187986 -0.000381457021102248 -0.000372166342523936
"78" -0.000144207195734281 0.000250926106673456 0.000507635389228419 0.000381636572325849 8.68381596236406e-05 0.000203069683260835 -3.3527661357315e-05 0.000126312032731217 -6.22357735726589e-05 -0.000145550067335373 0.000126868042499883 -0.000541536406312163 -0.000503970924811535 -0.000390053243898152 -0.000383051729315097 -0.000381809725393661
"79" -0.000148926155544583 0.000262455305968038 0.000498599422768091 0.000382617210403824 7.12483566281464e-05 0.000206475405822961 -4.82976504595405e-05 0.00012663482909648 -6.4961219176424e-05 -0.00015461731601943 0.000130083486723483 -0.000539898503477 -0.000509256074713131 -0.000388803766080371 -0.000383250955200844 -0.000389953237280988
"80" -0.000152421412888044 0.000274720872998608 0.000490743057994201 0.000384129981560992 5.69843385234362e-05 0.000210645235989039 -6.18244887286804e-05 0.000128419583563233 -6.76515442360649e-05 -0.000163735571813627 0.000133151538429853 -0.000537334610044809 -0.000514023739990662 -0.000387093689784008 -0.0003820072265432 -0.000396535938873901
"81" -0.000154739550770704 0.00028765431238277 0.000484098448885653 0.000386157707636394 4.41195575056333e-05 0.000215544942712906 -7.40568471282756e-05 0.000131638338305676 -7.02775605365917e-05 -0.000172849009705254 0.000136058734816363 -0.00053382875736596 -0.000518234929748385 -0.000384910271714959 -0.000379275740002737 -0.000401509663331678
"82" -0.000155946616810506 0.000301182206563779 0.000478699784820782 0.000388689021850266 3.27324223680876e-05 0.000221141970882836 -8.49388347373795e-05 0.000136253785427916 -7.28075016431815e-05 -0.000181883928891308 0.000138801801416603 -0.000529374062325991 -0.00052183869301183 -0.000382249199798994 -0.000375026693406356 -0.000404833944138153
"83" -0.000156129333686083 0.000315235307900247 0.000474573732498575 0.000391700666050358 2.28806281713516e-05 0.000227387711685046 -9.44321593185935e-05 0.000142212370495302 -7.52109412784316e-05 -0.000190778660831467 0.000141374305353452 -0.000523968732717122 -0.00052480586381231 -0.000379107623036795 -0.000369242712695639 -0.000406485358086397
"84" -0.000155391332440972 0.000329734056678255 0.000471735103797826 0.000395174755682489 1.4620219686112e-05 0.000234234198460746 -0.000102506869735402 0.000149456797696555 -7.74555353191455e-05 -0.000199459658433598 0.000143772546674357 -0.000517619688216896 -0.00052709712055102 -0.000375479141125986 -0.000361905180129225 -0.000406448286028688
"85" -0.000153841208633776 0.000344601277747961 0.000470207719724796 0.000399085125838728 7.99473729656806e-06 0.000241623270687607 -0.000109133204781851 0.000157910963422606 -7.9511176178875e-05 -0.000207861460950362 0.000145995889561598 -0.0005103394909039 -0.000528685140610488 -0.000371368156283875 -0.000353019217287311 -0.000404722601773545
"86" -0.000151604459308415 0.000359755979558047 0.000469992101519908 0.000403404826327819 3.03929843522331e-06 0.000249493002473085 -0.000114304394019721 0.000167499689560774 -8.13501939097365e-05 -0.000215918050674214 0.000148046000577223 -0.000502149110801557 -0.000529542488086445 -0.000366778517989878 -0.000342592227645505 -0.000401319356778644
"87" -0.000148823015308241 0.000375117986218227 0.000471092903210969 0.000408106400949709 -2.26468225807894e-07 0.000257776009926025 -0.000118013243798394 0.000178132018558097 -8.29436230036693e-05 -0.000223564607803341 0.000149925747478658 -0.000493076124372689 -0.000529646473954583 -0.000361714140112531 -0.00033064333515213 -0.000396260615951739
"88" -0.000145627531024609 0.0003906061038528 0.000473505656743799 0.000413156793478397 -1.7828340255294e-06 0.000266402161970936 -0.000120259022704606 0.000189716183780604 -8.4262069761335e-05 -0.000230741311218643 0.000151638987341717 -0.000483154891091921 -0.0005289866029477 -0.000356189418868172 -0.000317203216757188 -0.000389581715549255
"89" -0.000142175547189189 0.00040614150952204 0.000477223654399663 0.000418526392759693 -1.63024194160597e-06 0.000275296708702425 -0.000121059440233294 0.000202147867502787 -8.52845225012407e-05 -0.00023739002746287 0.000153190912737672 -0.000472427035318021 -0.00052754049123673 -0.000350209828075481 -0.000302309881252223 -0.000381325551766137
"90" -0.000138613986206581 0.000421641257537197 0.000482229599465033 0.000424178496374026 2.2543995458903e-07 0.000284384213612734 -0.000120429768433463 0.00021532489390773 -8.59845584606002e-05 -0.000243460428747519 0.000154589094537024 -0.000460938823875143 -0.000525310590820549 -0.000343798002276259 -0.000286012202122109 -0.00037154889761623
"91" -0.000135092532503484 0.000437030218765862 0.000488507269892578 0.000430082934055398 3.76376382219377e-06 0.00029358800422522 -0.000118405460653592 0.000229139069829999 -8.63418429035372e-05 -0.000248904007268789 0.00015584088340098 -0.000448743886011247 -0.000522286818076923 -0.000336967645936592 -0.000268369168598088 -0.000360313511359528
"92" -0.000131767476741715 0.000452229479464302 0.000496021494671296 0.000436200755692612 8.9575221019423e-06 0.000302826832873794 -0.000115021012291023 0.000243475530503948 -8.63422473549511e-05 -0.00025368012612932 0.000156955249075733 -0.00043590246600663 -0.000518475897517973 -0.000329745292170163 -0.000249448996565914 -0.000347699651214499
"93" -0.000128783209051463 0.000467163939592132 0.000504743970053343 0.000442498673093272 1.57643748684405e-05 0.000312026467002754 -0.000110316775943887 0.00025822496647353 -8.59655488161602e-05 -0.000257753918439228 0.000157942367283724 -0.000422476418055179 -0.000513884327525236 -0.000322150302072437 -0.000229325491677349 -0.000333784917580256
"94" -0.000126286782230762 0.00048176505981849 0.000514632470296741 0.000448939837027384 2.41408252871817e-05 0.000321107640740634 -0.000104350307752727 0.000273273536045688 -8.52035279951279e-05 -0.000261099711652759 0.000158811095539597 -0.000408536586727769 -0.000508526020225352 -0.000314212374612968 -0.000208082953623264 -0.000318664101377337
"95" -0.000124409233141499 0.000495962180855194 0.000525638367611489 0.000455489599807541 3.40219205350783e-05 0.000329995246028399 -9.71789198893149e-05 0.000288508897673675 -8.40449279932649e-05 -0.000263697887342032 0.000159570242600049 -0.000394157003084103 -0.000502415430797331 -0.000305961567022796 -0.000185814530540476 -0.00030243239357761
"96" -0.00012328355924803 0.000509694032186742 0.000537712675037454 0.000462112498934835 4.53441605910777e-05 0.000338615706318243 -8.8863102216393e-05 0.000303823305414816 -8.24866856017404e-05 -0.000265534732745343 0.000160234218261529 -0.000379412962158449 -0.000495577464174994 -0.000297431822638154 -0.000162612333105013 -0.00028519540056906
"97" -0.000123020236270469 0.000522899607798454 0.000550800862028091 0.000468775118323889 5.80261791979587e-05 0.000346901303019275 -7.94765302396075e-05 0.000319109736233857 -8.0524669356606e-05 -0.000266606952597209 0.000160808576806505 -0.000364383723256311 -0.000488035294721477 -0.000288655674968717 -0.000138585728830422 -0.000267065314364528
"98" -0.000123730957342855 0.000535524898269147 0.000564838663937233 0.00047544538082183 7.19822203652756e-05 0.000354785705305864 -6.90935940423501e-05 0.000334264392270758 -7.81580848523136e-05 -0.000266917899323339 0.00016130696381144 -0.000349151745084921 -0.000479824847866191 -0.00027967045845141 -0.00011384268202697 -0.000248151470220944
"99" -0.000125500233611946 0.000547522479835426 0.000579757159274275 0.000482095297896504 8.71223891211525e-05 0.000362210146764692 -5.77938494037217e-05 0.000349190513536913 -7.53934708669054e-05 -0.000266480690119994 0.000161739731334323 -0.000333803486409641 -0.000470981760888935 -0.000270516383242328 -8.84952567404277e-05 -0.000228578078767171
"100" -0.000128410131141497 0.000558844973232487 0.000595495523256758 0.000488694135005661 0.000103342986741647 0.00036911753050871 -4.56562028551165e-05 0.000363797439578929 -7.22369213859876e-05 -0.000265309552813672 0.000162114465163754 -0.000318421433268848 -0.000461540526065999 -0.000261231803864126 -6.26655219154329e-05 -0.000208462985145415
"101" -0.000132514065410251 0.00056945819876806 0.000611967414631416 0.00049521731059394 0.000120542113603958 0.000375461850661533 -3.27677346529819e-05 0.000378002279268459 -6.86990452812711e-05 -0.00026343746431722 0.000162445582667544 -0.000303090043128671 -0.000451548717194323 -0.000251856543718106 -3.6468411221504e-05 -0.000187930243025563
"102" -0.000137860997448858 0.000579330107112194 0.000629103877504747 0.000501639324339859 0.000138606362864207 0.000381197509209418 -1.92156292164307e-05 0.000391727472858593 -6.4794284447474e-05 -0.000260896622379843 0.00016273771423845 -0.000287897156154827 -0.000441051663563059 -0.00024243544985428 -1.0030435925013e-05 -0.000167103614673269
"103" -0.000144478851037192 0.000588436600268605 0.000646818180631124 0.000507943491087637 0.000157419874566416 0.000386291661275553 -5.08793556336911e-06 0.000404904893364707 -6.05390389008189e-05 -0.000257725924836745 0.000163001485740819 -0.000272925909819086 -0.000430097677682471 -0.000233010641265759 1.65272816893071e-05 -0.0001461104079348
"104" -0.000152372572958057 0.000596755715860532 0.000665035389637636 0.000514109193621057 0.000176861604012436 0.000390716454823577 9.52678501718378e-06 0.000417473516258987 -5.59521645269067e-05 -0.000253975993766409 0.000163247210260056 -0.000258255615301094 -0.000418741584384696 -0.000223627377133056 4.30761978535345e-05 -0.000125070455655107
"105" -0.000161536907099347 0.000604274020577389 0.000683668824493013 0.000520123452715628 0.000196807646193036 0.000394450815172195 2.45384778475885e-05 0.000429387220160797 -5.10525434142483e-05 -0.00024970078415389 0.000163479167175274 -0.000243970645919735 -0.000407037979402067 -0.000214326090241361 6.94932222759483e-05 -0.00010410500440295
"106" -0.000171945414280214 0.000610988680824455 0.000702631137237148 0.000525976914768053 0.000217135370157497 0.000397485194953496 3.98611982129381e-05 0.000440602047616789 -4.58673040264226e-05 -0.000244956379238758 0.000163709469396638 -0.000230144074358112 -0.000395042758954617 -0.000205152436037487 9.56525231228137e-05 -8.33342824288983e-05
"107" -0.000183555961904542 0.000616897303710866 0.000721841349640164 0.000531661695806617 0.000237717370598685 0.000399811632376479 5.54086751110805e-05 0.000451086346807944 -4.04198796369083e-05 -0.000239805629805401 0.0001639388095381 -0.000216852398390966 -0.000382816353169219 -0.000196150398082298 0.000121434657319998 -6.28741274587205e-05
"108" -0.000196307321506107 0.000622004558771536 0.000741212251671354 0.000537172162300003 0.000258425230917659 0.000401437560817889 7.10959847187121e-05 0.000460821955518105 -3.47417253990043e-05 -0.000234317750817623 0.000164179732544239 -0.000204159570939467 -0.000370415729712012 -0.000187357530381922 0.000146722671851613 -4.28318753905811e-05
"109" -0.000210120567882134 0.000626323968644953 0.000760663072305903 0.000542512126497962 0.000279135345540197 0.000402373322777827 8.68417855905328e-05 0.000469795670161962 -2.88547822154225e-05 -0.000228564249685627 0.000164436430105338 -0.000192133373998348 -0.000357900948246945 -0.000178819869997046 0.000171396868156644 -2.33180830484972e-05
"110" -0.000224907477428131 0.000629870322992201 0.00078010685793843 0.000547681058141072 0.000299724223166209 0.0004026378863294 0.000102566990579726 0.000478006641866612 -2.27953105941305e-05 -0.000222613657974213 0.000164711709780915 -0.000180831466697743 -0.000345337796336146 -0.000170576735030371 0.000195345650091823 -4.42794736456244e-06
"111" -0.000240559731916797 0.000632664809865793 0.00079946285199693 0.000552688650337125 0.000320072287492753 0.000402261745360816 0.000118203516034603 0.000485462471976793 -1.65902839621208e-05 -0.000216541884241275 0.000165012019073613 -0.000170303944029516 -0.000332778522006294 -0.000162664957109895 0.000218469896162677 1.37433217716017e-05
"112" -0.000256961446754045 0.000634730583286543 0.00081865791663232 0.00055754629220733 0.000340059696774103 0.000401276665342106 0.000133676257551057 0.000492180663233992 -1.02729692093322e-05 -0.000210421086210671 0.000165345208478381 -0.00016060140560389 -0.000320290494070422 -0.000155119388019404 0.000240662134204327 3.11124778430871e-05
"113" -0.000273980129320762 0.000636100806272552 0.000837610578962939 0.000562262847125557 0.000359572096403301 0.000399724487528128 0.000148924157405911 0.000498184998562245 -3.87425037791698e-06 -0.000204326689020485 0.000165709121531894 -0.000151760808160845 -0.000307927962561959 -0.000147978711002657 0.000261828665598788 4.75998881987947e-05
"114" -0.000291476500918163 0.000636803430068843 0.000856249674322945 0.000566859651308857 0.000378504399633963 0.000397651913277404 0.000163887914879608 0.00050350573857412 2.57442350650231e-06 -0.00019832941198514 0.000166111400454837 -0.000143816379673425 -0.000295748882068331 -0.000141274273299078 0.000281886135021352 6.3137644492622e-05
"115" -0.000309299537645862 0.000636879464582844 0.000874507051991163 0.000571352310695917 0.000396752663794098 0.000395111834683189 0.000178510638279438 0.000508185174635313 9.03952741943669e-06 -0.000192496180205779 0.000166553731027363 -0.000136793588595376 -0.000283812087723058 -0.000135036147724538 0.000300750150088923 7.76596945888209e-05
"116" -0.000327297790002649 0.000636361855325305 0.000892320486258305 0.000575762829648795 0.000414224874969754 0.00039216497284966 0.000192746814108456 0.000512269490838733 1.54927677752096e-05 -0.000186895461676654 0.000167040414988995 -0.000130713096934346 -0.000272166833297784 -0.000129292496149896 0.000318354207626537 9.11173052431971e-05
"117" -0.00034530879990249 0.00063529079221261 0.000909619232344945 0.000580116643292745 0.00043082790445003 0.000388869912918257 0.000206551713857662 0.000515807942292886 2.19063584974174e-05 -0.000181593952777406 0.000167573182596243 -0.000125587485962251 -0.000260864104936654 -0.000124063581912251 0.000334629123958516 0.000103462405634267
"118" -0.000363170726346965 0.000633704078073683 0.000926351023341393 0.000584434025009223 0.000446485973179938 0.000385294129564899 0.000219891809620221 0.000518857401877347 2.82487380151187e-05 -0.000176642375167571 0.000168152585133816 -0.00012142099700838 -0.000249954400731757 -0.000119375193840497 0.000349522606157349 0.000114663992557279
"119" -0.000380716830187583 0.000631642007730193 0.0009424624545975 0.000588743510566238 0.000461125877198924 0.000381503259957337 0.000232732177824671 0.000521471930740089 3.44922418385154e-05 -0.000172096873833879 0.000168782253648913 -0.000118215201999938 -0.000239481740989938 -0.000115248951378888 0.000362985722436188 0.000124690899239759
"120" -0.0003977845099802 0.00062914453787699 0.000957905284981987 0.000593071164708351 0.000474691061453367 0.000377568557491987 0.000245050004634082 0.000523718516981372 4.06144016696247e-05 -0.000168000897704306 0.000169464141696312 -0.000115955924606283 -0.00022948131661528 -0.000111690163541811 0.000374989135155402 0.000133527558290698
"121" -0.000414208689532912 0.000626245919808898 0.000972631362935782 0.000597442062073166 0.000487121563212473 0.000373556706806034 0.000256821765351574 0.000525651275853185 4.65898406058454e-05 -0.000164398801304945 0.000170196630700039 -0.00011463568611085 -0.000219997943337652 -0.000108720724095208 0.000385497245537161 0.000141162193362716
"122" -0.000429832770742231 0.000622985146050911 0.000986602905121334 0.000601886029851533 0.000498375339487684 0.000369541227416102 0.000268031758233753 0.000527339684580227 5.23960830287024e-05 -0.000161318955419177 0.000170983158492961 -0.000114228998073327 -0.0002110585298729 -0.000106344789311563 0.000394492301852167 0.000147591893139862
"123" -0.0004445062097297 0.000619393674133576 0.000999782350364693 0.000606422985234814 0.000508417448116735 0.000365589164880616 0.000278670883624118 0.000528838035311056 5.80143446938652e-05 -0.000158791751385497 0.000171822515531054 -0.00011471386211025 -0.000202697169842084 -0.000104569975046814 0.000401965689318262 0.000152822622859714
"124" -0.000458077786587524 0.000615500874265309 0.00101213281282312 0.000611080086431663 0.000517228588145942 0.000361769920493308 0.000288734220180875 0.000530209380499654 6.34277772514953e-05 -0.000156826905129888 0.000172718011847572 -0.000116057132327573 -0.000194930826553277 -0.000103397210558902 0.000407919902510973 0.000156868851155958
"125" -0.000470415684178176 0.0006113329398865 0.00102363243379653 0.000615879235100325 0.000524788298559056 0.000358143709534979 0.000298217652517731 0.000531509146117129 6.86197454014629e-05 -0.000155442830961432 0.000173665446323731 -0.000118221060763804 -0.00018778576042796 -0.000102829347914087 0.000412359276936196 0.000159748752505017
"126" -0.000481388930609261 0.000606915159165962 0.0010342509782876 0.000620842856430912 0.000531091940595655 0.000354775530075406 0.000307121520080695 0.000532790030622861 7.3576741306767e-05 -0.000154638430426896 0.000174668182178467 -0.000121167041809285 -0.00018127284258753 -0.000102858974862138 0.000415299499733775 0.000161483585446133
"127" -0.000490881064027278 0.000602265150724743 0.0010439726135768 0.000625985577467147 0.000536144123631472 0.000351720220056632 0.000315451856217621 0.000534099553176308 7.82906094087337e-05 -0.000154406739432893 0.000175722356932454 -0.000124849457435327 -0.000175404119495611 -0.000103481776030809 0.000416768360114791 0.00016210800559987
"128" -0.000498785449302818 0.000597395911669083 0.00105277540354819 0.000631320344542668 0.000539959162251439 0.000349029911460248 0.000323217591677053 0.000535479198844633 8.27508999119232e-05 -0.000154737591637772 0.000176829292705809 -0.000129223804677124 -0.000170186015744846 -0.000104688279565435 0.000416793038775254 0.000161655616831528
"129" -0.000505013342754701 0.000592317497260074 0.00106064781134984 0.000636862533282573 0.000542552017769668 0.000346752408768099 0.000330423756483367 0.000536969362898564 8.69528343298498e-05 -0.000155610676785216 0.000177986377359143 -0.000134238641688949 -0.000165618821648067 -0.000106464348334929 0.000415417231969797 0.000160167416012923
"130" -0.000509485000690102 0.00058703559841311 0.00106758051616605 0.000642619968745329 0.000543950080092261 0.000344927134159112 0.000337086095111704 0.000538596499019481 9.08932923729935e-05 -0.000156998502185975 0.000179191733154794 -0.000139838869858515 -0.000161697857729882 -0.000108797605666929 0.000412684505379701 0.000157688145917776
"131" -0.000512138224286016 0.000581545387039689 0.00107355906093645 0.000648592333930009 0.000544191829104408 0.000343589755321809 0.000343213622919931 0.000540384010766344 9.45688020587909e-05 -0.000158866854528527 0.000180443564799926 -0.000145973879707376 -0.000158417866107548 -0.000111668635300436 0.000408646397247352 0.000154262043888146
"132" -0.000512923744247062 0.000575848317296137 0.00107858952156688 0.000654778863668843 0.00054331637764655 0.000342767074113976 0.000348819879628288 0.000542349527098398 9.79792739042175e-05 -0.000161177077555316 0.000181738657793308 -0.000152587743009028 -0.000155766994565884 -0.000115058741501866 0.000403356715252014 0.000149939710478445
"133" -0.00051180466660275 0.000569931189433422 0.00108266191922556 0.000661178166683354 0.000541370468271991 0.000342482991431208 0.000353921081515909 0.00054450396388454 0.0001011299687642 -0.00016388168053101 0.000183074246409637 -0.000159626027634907 -0.000153729541111799 -0.000118947994409136 0.000396880679721627 0.000144773978455242
"134" -0.000508761596036836 0.000563776013482095 0.00108577921119094 0.00066777448096887 0.000538403529251743 0.000342747736275942 0.000358529841093064 0.00054684507235156 0.000104022736247658 -0.000166933773352661 0.000184446514916047 -0.000167031336846748 -0.000152286085954116 -0.000123312910127495 0.000389279181632067 0.000138816254135569
"135" -0.000503798765199445 0.000557370931875377 0.00108794757601189 0.000674557630537279 0.000534471412348061 0.000343570810291185 0.000362657131351013 0.000549370265787796 0.000106666591896803 -0.000170276738546178 0.000185849982097685 -0.000174749514036278 -0.000151413975862733 -0.000128130043685212 0.000380623381250853 0.000132122875026789
"136" -0.000496922702481888 0.000550688404371711 0.00108917053980692 0.00068150697824524 0.000529632220548312 0.00034494981420472 0.000366317024105621 0.000552061866417731 0.000109066020041028 -0.000173856908464065 0.000187282067213761 -0.00018272858074947 -0.000151090824929304 -0.000133372898691777 0.000370979243847647 0.000124744702063525
"137" -0.000488163261083566 0.000543704615701451 0.00108945552040889 0.000688596518667887 0.000523945019756372 0.000346879161749628 0.00036951936983042 0.000554903111419965 0.000111231851631533 -0.000177613403604155 0.000188735654275786 -0.000190914502531782 -0.000151285250193193 -0.000139015511200185 0.000360421571114869 0.000116740919938859
"138" -0.000477560205986572 0.000536389877207103 0.00108881829103355 0.00069579777676839 0.000517476157042578 0.000349344525517304 0.000372275125017877 0.000557864775361982 0.000113170368549196 -0.00018148347209524 0.000190205683965848 -0.000199255195089776 -0.00015196807947788 -0.000145030763020981 0.000349018272390727 0.00010816106783148
"139" -0.000465171879934555 0.000528713430029801 0.00108727321587492 0.000703078943720099 0.000510283831306591 0.000352323669740548 0.000374594664469477 0.000560911639985097 0.000114893172379746 -0.000185404309134405 0.000191682275376911 -0.000207705079626103 -0.000153108925693231 -0.000151393140309864 0.000336847126590191 9.90645679445568e-05
"140" -0.000451069577922087 0.000520638558246545 0.00108483501488516 0.000710398499636681 0.000502432745543668 0.000355791154033955 0.000376480403951397 0.00056400792228789 0.000116413078051997 -0.000189312846443599 0.000193162344778203 -0.000216217136159098 -0.000154674042384679 -0.000158073180921894 0.00032397194599582 8.94997104019508e-05
"141" -0.000435334689262831 0.000512134642424736 0.00108151585174029 0.000717716975640388 0.000493983174996167 0.000359714086956924 0.000377942263526562 0.000567106273628522 0.000117738261809482 -0.000193148371002247 0.000194635365469301 -0.000224747396581112 -0.000156628649569658 -0.000165045428583356 0.000310470506579688 7.95201174894916e-05
"142" -0.000418067014553192 0.000503163574954502 0.00107734553317118 0.000724988835466083 0.000484999064537875 0.000364051553658884 0.000378980208364393 0.000570156808808542 0.000118885133753077 -0.000196848711154899 0.000196093024526217 -0.000233253300061036 -0.000158938663230416 -0.000172281346425032 0.000296407487704851 6.91771145106694e-05
"143" -0.000399368876107183 0.00049369208958505 0.00107233736550234 0.000732162444796314 0.000475541835595424 0.000368763671612883 0.000379597710852773 0.000573109244083296 0.000119860734779234 -0.000200351469958957 0.000197527579924881 -0.000241701393612538 -0.000161567321952449 -0.000179754549319565 0.00028184975244862 5.85203899236279e-05
"144" -0.000379364349145612 0.000483687288163054 0.00106652457862169 0.000739185776814248 0.000465663422463193 0.000373798474626584 0.000379793861489318 0.000575904473346625 0.000120678026331855 -0.000203605699509924 0.000198927497354691 -0.000250056325300047 -0.000164479400142104 -0.000187439355480018 0.000266859941719775 4.75928449215795e-05
"145" -0.000358179158259895 0.000473115028981925 0.00105992668982405 0.000746004803041686 0.00045542263763821 0.000379106720101685 0.000379566621264071 0.000578483117665005 0.000121349457293059 -0.000206554619253551 0.000200281365743669 -0.000258287162862969 -0.000167644193686967 -0.000195308935786179 0.000251496373714582 3.64414218568994e-05
"146" -0.000335948357703836 0.000461944734099618 0.00105257934353143 0.000752561192054408 0.000444871156056763 0.000384631655299397 0.0003789147905634 0.00058078851698208 0.000121883595551464 -0.000209150934346758 0.000201581620984041 -0.000266367004487627 -0.000171023877413736 -0.000203341965479476 0.000235821451305381 2.51119009609639e-05
"147" -0.000312819664104901 0.00045015320842283 0.00104450788904336 0.000758797072185301 0.000434059210946247 0.000390315200811253 0.000377834938566414 0.000582758788647389 0.000122292801145559 -0.000211345344461446 0.000202815503711741 -0.000274270657960763 -0.000174587342430647 -0.000211509110725733 0.00021988363927613 1.36429832813722e-05
"148" -0.000288940905676773 0.000437711344862923 0.00103574498262241 0.000764651060300691 0.000423026082559503 0.000396098511834914 0.000376316836766703 0.000584334018719921 0.000122582596940912 -0.000213102229907375 0.000203969356470853 -0.000281979254328365 -0.000178305994531298 -0.000219797599839633 0.00020372949165001 2.07535649182554e-06
"149" -0.000264468604963952 0.000424603575347769 0.00102632194877238 0.000770060485252423 0.00041181648642725 0.000401919002209098 0.000374356528808588 0.000585452971690521 0.000122766716606378 -0.00021438496482345 0.000205030909226258 -0.000289478032927675 -0.000182150861135033 -0.000228175071925458 0.000187409247003295 -9.55499963714158e-06
"150" -0.000239564228327869 0.000410815981881701 0.0010162788869454 0.000774968655713506 0.000400471207061038 0.000407715746058988 0.000371951226264616 0.000586062227790673 0.000122851699587034 -0.000215160884223281 0.000205992270600205 -0.000296746855028147 -0.000186094026343106 -0.000236628282090645 0.000170957621200003 -2.12110823343593e-05
"151" -0.000214386402753744 0.000396341744750583 0.0010056484570154 0.000779316484315695 0.000389021377387737 0.000413426016586 0.000369088354228057 0.000586105829785944 0.000122844441969526 -0.000215409435191891 0.000206836848732008 -0.000303781892692499 -0.000190111584170338 -0.000245131082706418 0.000154416411051225 -3.28620631111653e-05
"152" -0.000189105014306709 0.000381176497451799 0.000994468136285302 0.000783040767388716 0.000377496435494577 0.00041898763760219 0.000365765290399179 0.000585530337602079 0.000122750101389802 -0.000215113578070947 0.000207553074378679 -0.000310571864735918 -0.000194184044926789 -0.00025367303072443 0.000137810607476168 -4.44724034291691e-05
"153" -0.000163878047883689 0.000365324281529795 0.000982775320591731 0.000786085869304618 0.00036592669114452 0.000424341947419358 0.000361971740369149 0.000584292314155771 0.000122577349004312 -0.000214259825127035 0.000208129191139639 -0.000317114899446689 -0.000198292176882365 -0.000262231611429341 0.000121173725550465 -5.60191493051975e-05
"154" -0.000138871972831365 0.000348798850404394 0.000970607743301057 0.000788396862289181 0.000354334940739893 0.000429427492053503 0.000357705988266502 0.000582347523991208 0.000122328263662967 -0.000212845792409367 0.000208551392318651 -0.000323406586669591 -0.000202420618158109 -0.000270789119946201 0.000104525161365273 -6.74689182899545e-05
"155" -0.000114248251804285 0.000331617444822692 0.000958007849822687 0.00078992598039293 0.000342741027361966 0.000434191091464796 0.000352960713269052 0.000579663074759826 0.000122010424663849 -0.000210868628351642 0.000208809280206982 -0.000329450564079742 -0.00020655604907168 -0.000279333021347437 8.78874857671839e-05 -7.87998002034911e-05
"156" -9.01633831077462e-05 0.000313805175512371 0.000945018097656956 0.000790621168378437 0.000331162652481546 0.000438578098069448 0.000347730857485458 0.000576208775903831 0.000121625834561441 -0.000208339528922826 0.000208892562317563 -0.000335244848642548 -0.000210688459480864 -0.000287846744386764 7.12737572602586e-05 -8.99863165708543e-05
"157" -6.67673221095843e-05 0.000295394646082664 0.000931671601831382 0.000790442310234365 0.000319619210987252 0.000442538889613981 0.000342020188363997 0.000571959074296996 0.000121178889995796 -0.000205266922752216 0.000208787288500494 -0.000340798342977028 -0.000214813240889922 -0.000296313067600186 5.47050751253794e-05 -0.000101006597568555
"158" -4.42135575367852e-05 0.00027642587736439 0.000918012662857395 0.000789345932371818 0.000308115825081904 0.000446029244284054 0.000335823919035572 0.000566897682167761 0.000120673332579937 -0.000201675207417092 0.000208484869261916 -0.000346116062504422 -0.000218928558353672 -0.000304725081138039 3.81811048454223e-05 -0.000111838931357923
"159" -2.26382302206101e-05 0.000256946270878179 0.000904081123022818 0.000787299439862466 0.000296671738409228 0.000449004392384464 0.000329147910577227 0.000561014154320143 0.000120110220113553 -0.000197584620302469 0.000207975529250009 -0.000351205537951231 -0.000223031275828892 -0.00031306085872074 2.17178471604823e-05 -0.000122466786640068
"160" -2.17169387600536e-06 0.000237012685779027 0.000889913308750115 0.000784273922025267 0.000285293230885687 0.000451432258762195 0.000321994693580708 0.000554308093170902 0.000119495557941982 -0.000193026948072835 0.000207251098172931 -0.000356077405012823 -0.000227127923269268 -0.000321310833730448 5.31687390467769e-06 -0.000132872156800474
"161" 1.70598283342533e-05 0.000216685892393177 0.000875551139705481 0.000780248867954708 0.000273988937010586 0.000453279809413243 0.000314375293407322 0.000546785176314242 0.000118833161377106 -0.000188037681793781 0.000206304183204945 -0.000360739218549705 -0.000231222901864017 -0.000329462253446523 -1.10131514035487e-05 -0.000143038749972531
"162" 3.4941129039625e-05 0.000196030807072846 0.000861032111980185 0.000775203270853321 0.00026276403826598 0.000454518556932778 0.000306293413036535 0.000538454731684223 0.000118121767953512 -0.000182655965621103 0.000205125001378076 -0.000365203806818555 -0.000235325940295996 -0.000337499678471128 -2.72781131516274e-05 -0.000152953827784433
"163" 5.13729505268601e-05 0.000175120806239329 0.000846392319492293 0.000769128802716471 0.000251625510216272 0.000455129762986325 0.000297764676275544 0.000529336847951338 0.000117370792993832 -0.000176923729432563 0.000203713137542397 -0.000369483916299735 -0.000239448630786698 -0.000345412697304547 -4.3471538792097e-05 -0.000162605171722196
"164" 6.62606521082791e-05 0.000154038086794931 0.000831669900123142 0.000762018232902259 0.000240583454122339 0.000455098900769038 0.000288809681520519 0.000519458317997385 0.00011658148506239 -0.000170891116679608 0.000202059824577782 -0.00037358838353226 -0.00024360617461329 -0.000353189839475365 -5.95922598839016e-05 -0.000171980953283975
"165" 7.95218048377623e-05 0.00013286238123319 0.000816900147680025 0.000753876155884602 0.000229634766293756 0.000454413559194611 0.000279441116873204 0.000508853733368688 0.00011575902172251 -0.000164605461606521 0.000200162803183075 -0.000377528794958005 -0.000247812021997196 -0.000360812526963429 -7.56425330289391e-05 -0.00018107090046792
"166" 9.10903088919655e-05 0.000111686099251818 0.000802112783438945 0.00074471057415299 0.00021879364699565 0.000453072738673595 0.000269680309487391 0.000497559850613724 0.000114913147107402 -0.000158117659085453 0.000198023126637217 -0.000381319063765768 -0.000252089150781523 -0.000368273016251654 -9.1624818716813e-05 -0.000189868797693845
"167" 0.000100910725035134 9.05939933613352e-05 0.000787343374432166 0.000734532106949312 0.000208060632247808 0.000451076662477844 0.000259553162979572 0.000485623294166376 0.000114045085652851 -0.000151487588888214 0.000195637739463334 -0.000384969994003608 -0.000256458712454433 -0.000375557511048727 -0.000107535035806039 -0.000198369146286521
"168" 0.000108938617072915 6.96842063517503e-05 0.000772619744405545 0.000723369472272331 0.000197444299877028 0.000448432626351567 0.000249088614624221 0.000473093689858691 0.000113166900680803 -0.000144763358493047 0.000193008271166648 -0.000388492648203061 -0.000260938998094724 -0.000382650884164212 -0.000123377227723198 -0.000206566037671251
"169" 0.000115142567685952 4.90497400233856e-05 0.000757972466864712 0.000711244354024553 0.000186950304560745 0.000445151818817451 0.000238309395578936 0.000460028036899456 0.000112286603616955 -0.000138011294773482 0.000190134694764529 -0.000391896729475 -0.000265556529226234 -0.000389542054182334 -0.000139146693632183 -0.000214456895174323
"170" 0.000119511521633677 2.8789324315002e-05 0.000743430580351253 0.000698190095076148 0.000176591117602875 0.00044125329353776 0.00022725731664442 0.000446483355349198 0.000111411858276038 -0.000131279438098395 0.000187024233466313 -0.000395191397530828 -0.000270335421014333 -0.000396216418539683 -0.000154843437508476 -0.00022203875774143
"171" 0.000122034444665986 8.99667605183461e-06 0.000729019006676966 0.000684249754320481 0.000166369504314096 0.000436760087266457 0.000215955866315154 0.000432525865480054 0.000110552319845792 -0.000124625632480129 0.00018367813432066 -0.000398384895383141 -0.000275299227765441 -0.000402660563171564 -0.000170466838292918 -0.000229313535682187
"172" 0.000122723451558515 -1.02303342339269e-05 0.000714756712889543 0.000669464038142133 0.000156297438199904 0.000431699095034479 0.000204448372517075 0.000418217471264197 0.000109722040413629 -0.000118103758344957 0.000180104983650413 -0.000401486885134633 -0.000280475414689733 -0.000408863984972784 -0.000186009530069686 -0.000236279366718783
"173" 0.000121598986147745 -2.88006342804402e-05 0.000700672658850092 0.000653882302128541 0.000146386950805224 0.000426099401999882 0.000192766522287149 0.000403629888321616 0.000108927677595452 -0.000111769916329534 0.000176308396879231 -0.000404502902206019 -0.000285888898603027 -0.000414814271613371 -0.00020146501609748 -0.000242939751337079
"174" 0.000118692905042017 -4.66205744383212e-05 0.000686781412550139 0.000637559288082828 0.000136643821050379 0.000419998194090506 0.000180951525213233 0.000388830156171771 0.000108188718361598 -0.000105671345843886 0.000172298713473208 -0.000407440355371086 -0.000291565631528633 -0.000420498919452396 -0.000216832096496586 -0.000249302582727555
"175" 0.000114052880903069 -6.36032390367397e-05 0.000673100044802404 0.000620550832673569 0.000127084321962527 0.000413432517349525 0.000169042599578261 0.000373887630516329 0.00010751101964178 -9.9856695082178e-05 0.000168083140255365 -0.000410301931738895 -0.00029753046693334 -0.000425904915209381 -0.000232098237897858 -0.000255367493265759
"176" 0.000107734721489649 -7.96643190289524e-05 0.000659648617627991 0.000602923886313742 0.000117720865143528 0.000406445147157806 0.00015707559046946 0.000358873825063762 0.000106912788585511 -9.43731742857649e-05 0.000163672280478608 -0.000413092495907805 -0.000303806605049408 -0.000431022076646736 -0.000247254578586329 -0.00026114393779913
"177" 9.98032389439233e-05 -9.47258635114806e-05 0.000646442277238216 0.000584736563281568 0.000108561517716139 0.00039907889174207 0.00014509548167679 0.000343858923535223 0.000106403931650884 -8.92543708019423e-05 0.000159077754136618 -0.000415813946544138 -0.000310417887681812 -0.000435843734072939 -0.000262291981735215 -0.000266638719729218
"178" 9.0335596479142e-05 -0.00010871160086655 0.000633489103918202 0.000566058895674731 9.9626903623862e-05 0.000391380186499417 0.000133141870615638 0.000328906227723273 0.0001059967915722 -8.45405165725729e-05 0.00015430775504012 -0.000418468892675858 -0.000317383954391502 -0.000440358852914901 -0.000277194151751278 -0.000271862608062651
"179" 7.94136501185693e-05 -0.000121555775346217 0.000620806820179225 0.000546957755326684 9.09253085947694e-05 0.00038339535953468 0.000121247892541334 0.000314085529290544 0.000105706774080847 -8.02657637776131e-05 0.000149376857029404 -0.000421058182073862 -0.000324723153731627 -0.000444558876639927 -0.000291947304850929 -0.000276824507304243
"180" 6.71354240152256e-05 -0.000133198429087901 0.000608397259467601 0.000527505540956381 8.24741833512668e-05 0.000375176811087799 0.000109457858108653 0.000299456668016891 0.000105542913221609 -7.64512144985543e-05 0.000144294518023688 -0.000423581934072041 -0.000332452302441599 -0.000448440181029685 -0.000306538428950412 -0.000281535202620467
"181" 5.35981597074625e-05 -0.000143584686213494 0.000596272524632124 0.000507772358992231 7.4280934739288e-05 0.00036677162364449 9.78036135389797e-05 0.000285079987577031 0.000105517661133679 -7.31210333982634e-05 0.000139076076730741 -0.000426037844020573 -0.000340587524642099 -0.000451995401912282 -0.000320950588236967 -0.000286006113578006
"182" 3.89073860328632e-05 -0.000152670293202739 0.00058443931503919 0.000487829145552894 6.63663900926897e-05 0.000358231422832761 8.63261405001505e-05 0.0002710140799253 0.000105641074109512 -7.02917185544244e-05 0.000133733637469547 -0.000428426013868018 -0.000349136341095516 -0.000455219883316083 -0.000335159761948608 -0.000290248635485478
"183" 2.31763267883961e-05 -0.000160419023189719 0.000572899691990469 0.000467749817882069 5.87370839629349e-05 0.000349604280791027 7.5054602645236e-05 0.000257307276350176 0.000105917240345754 -6.79702852142605e-05 0.000128277411970962 -0.000430743880891435 -0.00035810994804745 -0.000458115135914199 -0.000349155816992024 -0.000294279822820276
"184" 6.52070740292383e-06 -0.00016679850838494 0.000561661950565877 0.000447602665758595 5.14113949216125e-05 0.000340943859882658 6.40229367382366e-05 0.000244009258813771 0.000106361803939921 -6.61701158605078e-05 0.000122722738206365 -0.000432985285267741 -0.000367510926656763 -0.000460677043978795 -0.000362910157328166 -0.000298109367580414
"185" -1.09437364606702e-05 -0.00017179212605402 0.000550727109445089 0.000427455966122448 4.43960197335413e-05 0.000332298978563819 5.32579702911573e-05 0.000231164375760359 0.000106971640248986 -6.4881217947981e-05 0.000117082191116408 -0.000435149862421953 -0.000377338825296107 -0.000462910084869814 -0.000376406519136635 -0.000301752832316592
"186" -2.90904475028952e-05 -0.000175388486103337 0.000540098275979142 0.000407382911974731 3.77047621769029e-05 0.000323713932819914 4.2788016331812e-05 0.000218807118330455 0.000107752122984289 -6.41034169466003e-05 0.000111368996296094 -0.000437232759812865 -0.000387592926508321 -0.000464814954793091 -0.000389622383588918 -0.000305224822442652
"187" -4.77995320187515e-05 -0.000177581799443997 0.00052977813241299 0.000387444693810926 3.1347336907076e-05 0.00031523914435978 3.26375134469352e-05 0.000206972846570037 0.000108704743058692 -6.38252155929893e-05 0.000105595306303048 -0.000439227240575121 -0.000398264530204284 -0.000466398272528731 -0.000402533514245574 -0.000308538228059755
"188" -6.69477988469736e-05 -0.00017837978306456 0.000519763069149946 0.00036770647834339 2.53286782118788e-05 0.000306919886963799 2.28290824029888e-05 0.000195688411818477 0.000109825691556262 -6.40296246807918e-05 9.97710855027136e-05 -0.000441130822998118 -0.000409346394512829 -0.000467668348878989 -0.000415122369374729 -0.00031170834096606
"189" -8.64179223962673e-05 -0.000177800276038095 0.000510061661846031 0.000348232780621074 1.96549098736032e-05 0.000298795590817422 1.33751480917814e-05 0.000184975037238627 0.00011111061226167 -6.46956985498063e-05 9.39113402614318e-05 -0.000442937740814392 -0.000420819504438205 -0.000468631675006388 -0.000427364051116823 -0.000314748173677603
"190" -0.000106080004455786 -0.000175864613583083 0.000500665271706825 0.000329074400241565 1.43346302174227e-05 0.000290912417705636 4.29408862678473e-06 0.000174852479950544 0.000112548724146416 -6.57996801713315e-05 8.80258057522405e-05 -0.000444642127691486 -0.000432666998165239 -0.000469300001312146 -0.000439238100209907 -0.000317670744694083
"191" -0.000125824599066244 -0.000172604424388226 0.000491582177662925 0.000310293962975966 9.36907358799311e-06 0.000283307879338539 -4.40013462673244e-06 0.000165331168073608 0.000114135682834146 -6.73115522032568e-05 8.21270164516228e-05 -0.000446239090079644 -0.000444863327596696 -0.000469683377108979 -0.000450718077538543 -0.000320490826828368
"192" -0.000145528885783423 -0.000168062093186907 0.000482810026420138 0.000291937025723849 4.76441135580195e-06 0.000276018394886746 -1.2698089071964e-05 0.000156418776367163 0.000115855605788324 -6.91942141051867e-05 7.62221532953837e-05 -0.000447722520323064 -0.000457381240382211 -0.000469798359883403 -0.000461789817507576 -0.000323218918465903
"193" -0.000165085082751622 -0.000162282210096973 0.000474350948346789 0.000274052666634554 5.1502479244563e-07 0.000269078068397231 -2.05941898531825e-05 0.000148117502820493 0.000117687956065709 -7.1415552064635e-05 7.03239643017704e-05 -0.000449086501964899 -0.000470189966185135 -0.000469661392771251 -0.000472429478828348 -0.000325867018089174
"194" -0.000184386206916979 -0.000155322491734431 0.000466207869355014 0.000256686573815162 -3.37446576541373e-06 0.000262519360225322 -2.80838003561945e-05 0.00014042844951254 0.000119621951500435 -7.39385422018553e-05 6.44405095635248e-05 -0.000450323080553648 -0.000483252048539475 -0.000469285190805267 -0.000482615544444846 -0.000328446413285397
"195" -0.000203330168719389 -0.000147240995220087 0.000458377209013467 0.000239874879120628 -6.91112273824987e-06 0.00025636936516491 -3.51681646141168e-05 0.000133341903904088 0.000121628020749815 -7.6714497035359e-05 5.85798092720763e-05 -0.00045142992759662 -0.000496535590908171 -0.000468693253898211 -0.000492332676065376 -0.000330965743463627
"196" -0.000221821657927355 -0.000138107889826174 0.000450873882090011 0.000223657572321673 -1.01005908875552e-05 0.000250657197135857 -4.18473663872678e-05 0.000126850103309677 0.000123683699035197 -7.97007441277265e-05 5.2752733228335e-05 -0.000452400665190335 -0.000509985173780706 -0.00046790317577885 -0.000501565799777194 -0.000333432483214764
"197" -0.000239766721554939 -0.000127995917965856 0.000443690756846574 0.000208063994423704 -1.29429714485632e-05 0.000245403044832592 -4.81256138548517e-05 0.000120939763292111 0.000125767630635124 -8.28533851534165e-05 4.69633566320081e-05 -0.000453227255868526 -0.000523563533339412 -0.000466934038152807 -0.00051029478669924 -0.000335852029838818
"198" -0.000257081921122487 -0.000116977812970367 0.000436839863491915 0.000193120799469004 -1.54491119864821e-05 0.000240628491617588 -5.40068366855528e-05 0.000115593088799199 0.000127843096826306 -8.61292607804545e-05 4.12216361241891e-05 -0.000453906053852865 -0.000537219156463812 -0.000465810004362842 -0.000518508359317632 -0.000338231950978699
"199" -0.000273695929915399 -0.000105138738067117 0.000430326825413756 0.000178856971452554 -1.76309230950745e-05 0.000236351226701972 -5.95004684228991e-05 0.000110791766308624 0.000129883542225314 -8.94748316209444e-05 3.55309591949608e-05 -0.000454431963015134 -0.000550901272976008 -0.000464551634862378 -0.000526194288070385 -0.000340576375785599
"200" -0.000289531515056836 -9.25594787955517e-05 0.000424160135162227 0.00016528894956473 -1.94911201651819e-05 0.000232587421781169 -6.46112713710845e-05 0.000106515978595983 0.000131859291045544 -9.2849229230222e-05 2.99017026753266e-05 -0.000454796762210266 -0.000564552410144017 -0.000463179269226059 -0.000533340072654671 -0.000342882661345689
"201" -0.000304534061928931 -7.9326580756375e-05 0.000418350122457802 0.000152432575292316 -2.10407685167588e-05 0.000229349794294519 -6.93532236341871e-05 0.000102743420060255 0.00013373385169953 -9.61977660890089e-05 2.43363317787544e-05 -0.000454996135702516 -0.000578116591270025 -0.000461715947012698 -0.000539935457203722 -0.000345155286809861
"202" -0.000318644672437823 -6.55267405064159e-05 0.000412903629657988 0.000140299666015037 -2.22975267857731e-05 0.000226643534048109 -7.37410479216013e-05 9.94452704463499e-05 0.000135475238963489 -9.94820927272892e-05 1.88380027469761e-05 -0.000455024619382488 -0.000591538791246388 -0.00046018584488509 -0.000545980474664079 -0.000347390572542271
"203" -0.000331817043253563 -5.12479405555727e-05 0.000407840366714791 0.000128904908434811 -2.32689682947064e-05 0.000224479233778396 -7.77822183311498e-05 9.66025128804379e-05 0.000137051060083287 -0.000102651635788011 1.34177984817631e-05 -0.000454876411786402 -0.000604755651399832 -0.000458608466290013 -0.00055146388676785 -0.00034958210312576
"204" -0.000344014447897039 -3.65781580796464e-05 0.000403168916250391 0.000118250832272573 -2.39659058822338e-05 0.000222859445895848 -8.14930181830813e-05 9.418520302035e-05 0.000138428252388468 -0.000105662822831219 8.076187996249e-06 -0.000454544219773968 -0.000617705282283368 -0.000457004485680525 -0.000556381626294801 -0.000351727422734505
"205" -0.000355207515640378 -2.1600123938534e-05 0.000398909137156482 0.000108341717921235 -2.4400778121223e-05 0.000221788044345296 -8.48810319273318e-05 9.21699421886842e-05 0.000139573863853325 -0.000108478506749836 2.81784441125032e-06 -0.000454022654595355 -0.000630330114243655 -0.000455390980185483 -0.000560738524428919 -0.000353814987430874
"206" -0.000365368800846527 -6.40138824658962e-06 0.000395077392568353 9.91772340475216e-05 -2.45879920431371e-05 0.000221261047528364 -8.7965242178055e-05 9.05287184723727e-05 0.000140456734455472 -0.000111050549908088 -2.35171400945621e-06 -0.000453306435943719 -0.000642569187053799 -0.000453790963502119 -0.000564528621204172 -0.000355837444619337
"207" -0.000374488576685105 8.94037731072935e-06 0.000391686856635272 9.07558406251752e-05 -2.45347939404808e-05 0.00022127697688306 -9.0757648977397e-05 8.92407119533888e-05 0.000141049409418238 -0.000113346779622972 -7.42629146947342e-06 -0.000452389025118208 -0.000654357464753913 -0.000452218704709093 -0.000567756866022409 -0.000357780430130125
"208" -0.000382557467753951 2.43460725160254e-05 0.000388763802072622 8.30723724712325e-05 -2.42563016667913e-05 0.000221828605006236 -9.32652864679479e-05 8.82787252574432e-05 0.000141324936213717 -0.000115328909584673 -1.24038630428594e-05 -0.00045126271980034 -0.000665639400448027 -0.000450687770019399 -0.000570428931396618 -0.000359630968151012
"209" -0.000389574763448461 3.97449989587729e-05 0.000386324113472758 7.61213318657711e-05 -2.37618724715417e-05 0.000222909236463316 -9.55071173189775e-05 8.76229303669224e-05 0.000141262537602065 -0.000116965253895785 -1.72789082806769e-05 -0.000449921767620647 -0.000676353242739839 -0.000449213576625336 -0.000572548559669932 -0.000361371487988169
"210" -0.000395549830311216 5.50655974539421e-05 0.000384391404610025 6.98928528040719e-05 -2.30555085026016e-05 0.000224510342330021 -9.74906352867569e-05 8.72492956196127e-05 0.000140840128400207 -0.000118227678737965 -2.20429739810293e-05 -0.000448358321969567 -0.000686444529648905 -0.000447804075065728 -0.00057412417239108 -0.00036298282764746
"211" -0.000400499366849554 7.02510957256509e-05 0.000382987801564473 6.43823449941013e-05 -2.21493827144331e-05 0.000226616725497188 -9.92222172349077e-05 8.71422383335633e-05 0.000140048039517645 -0.000119082621642825 -2.6693204371166e-05 -0.00044656459342678 -0.000695850359653549 -0.000446464535036583 -0.000575158076719803 -0.000364443478285141
"212" -0.00040444245537124 8.52414964544935e-05 0.000382127377138839 5.95713181653901e-05 -2.10489104769504e-05 0.000229215207785407 -0.000100716549449258 8.72814215537166e-05 0.00013886770125642 -0.000119508357980318 -3.12227904872354e-05 -0.000444533440915201 -0.000704528389463838 -0.00044520824121527 -0.000575667374468568 -0.000365734731260063
"213" -0.000407411639897484 9.99891006408248e-05 0.000381841641547604 5.54534230917346e-05 -1.97587463542001e-05 0.000232288487904069 -0.000101977832811392 8.76547729438276e-05 0.000137300815803487 -0.000119486058350267 -3.56235223903487e-05 -0.000442256825743159 -0.000712421063715692 -0.000444031498511303 -0.000575655313575092 -0.000366830057612608
"214" -0.000409441603014875 0.000114451625784954 0.000382148300552644 5.20121990215732e-05 -1.8282993269669e-05 0.000235820439852288 -0.000103010153165619 8.82477856960833e-05 0.000135346023465862 -0.000118993425670414 -3.9888460469334e-05 -0.000439724560667496 -0.000719481740687718 -0.000442931755696484 -0.000575136188321174 -0.000367701117421601
"215" -0.000410574895577613 0.000128594705584922 0.000383062412775973 4.92353117341899e-05 -1.66219856366678e-05 0.000239789423104987 -0.000103822856175626 8.90515013912935e-05 0.000133007265913751 -0.000118017156554466 -4.40084109716857e-05 -0.000436929218989177 -0.000725671952020762 -0.000441909377411495 -0.000574121595382223 -0.000368325110882105
"216" -0.000410858732361385 0.000142386218514257 0.000384615721427757 4.71086791377717e-05 -1.47773172901641e-05 0.000244172856991307 -0.000104410652236503 9.0056083506976e-05 0.000130296962906545 -0.000116538777525472 -4.797539703398e-05 -0.00043386159187872 -0.00073094283697071 -0.000440956811481544 -0.000572619587979678 -0.000368670664437605
"217" -0.000410341698002729 0.000155809863030856 0.00038681272133402 4.56173177399603e-05 -1.27426049183129e-05 0.000248947457256713 -0.000104784628643926 9.12566552180164e-05 0.000127234412684292 -0.000114556692315082 -5.17803247920951e-05 -0.000430513689716161 -0.000735268587074043 -0.00044006254622627 -0.000570642337018553 -0.000368708993106405
"218" -0.000409088306533717 0.000168850313679714 0.000389679776621694 4.47474749309744e-05 -1.05201700074877e-05 0.000254089141882995 -0.000104936297720763 9.26507499550537e-05 0.00012384317501644 -0.000112054010396702 -5.5408050512438e-05 -0.00042687354508377 -0.000738611248270063 -0.000439212900664064 -0.000568205185723528 -0.000368408066846723
"219" -0.000407153964997243 0.000181503720381247 0.000393223233995366 4.44834796460991e-05 -8.1006731123954e-06 0.000259569749812576 -0.000104868398097887 9.4235833401532e-05 0.000120155244566132 -0.000109029226102762 -5.88508172388344e-05 -0.000422934106580814 -0.00074094421551051 -0.000438391480234749 -0.000565314317392647 -0.000367737928309279
"220" -0.000404611697320284 0.000193767975259273 0.000397457724396301 4.48085157951696e-05 -5.47787480417382e-06 0.000265360288732345 -0.000104578707923606 9.60108127730363e-05 0.000116205473081273 -0.000105479455395417 -6.20947733121916e-05 -0.000418683242619762 -0.000742241907811083 -0.000437578687754661 -0.000561980197100491 -0.00036666754565704
"221" -0.000401528290161737 0.0002056514676495 0.000402384982876665 4.57126365763706e-05 -2.6453351102743e-06 0.000271432699550723 -0.000104064343222292 9.79807956675064e-05 0.00011203818489851 -0.000101408564461273 -6.51241176437623e-05 -0.000414112572814513 -0.000742495762023554 -0.000436750558965683 -0.000558213459619621 -0.000365164205858775
"222" -0.000397974047367747 0.000217168570434252 0.000408024598362081 4.71784843004072e-05 4.09923953022136e-07 0.000277750882336552 -0.000103316344210512 0.000100145321484489 0.000107705538786898 -9.68116958392561e-05 -6.79284932694476e-05 -0.000409213037288382 -0.000741682617954681 -0.000435882299555343 -0.000554021943983781 -0.000363198485368276
"223" -0.000394028852625155 0.000228337687236083 0.000414360327520493 4.91910220101297e-05 3.69229624697589e-06 0.000284287298086549 -0.000102335314256079 0.000102515047740633 0.000103259950696599 -9.1694944264549e-05 -7.0490488360988e-05 -0.000403976481724133 -0.000739801119592089 -0.000434947039140758 -0.00054941764423002 -0.000360738596054915
"224" -0.000389770864554773 0.00023918138138278 0.000421395402315895 5.17376007116346e-05 7.2178382116005e-06 0.000291003664429145 -0.000101115522655524 0.000105089627798549 9.87646692450091e-05 -8.60672481391363e-05 -7.27953280111744e-05 -0.000398393772105291 -0.000736843293053694 -0.0004339107520383 -0.000544400752863533 -0.000357757124620639
"225" -0.000385272310522995 0.000249730209389746 0.000429123396200957 5.48021628028473e-05 1.09947258804564e-05 0.000297865381518323 -9.96471972526385e-05 0.00010788078733482 9.42870842192902e-05 -7.99363249615854e-05 -7.48254830022652e-05 -0.00039245675368795 -0.000732816769785056 -0.000432743107370981 -0.000538975901272179 -0.000354223575351492
"226" -0.000380622096378215 0.000260015735604837 0.000437536857799349 5.83716240400725e-05 1.50389695125966e-05 0.000304835995415761 -9.7928742194097e-05 0.000110892867861138 8.98954383944758e-05 -7.3307022426435e-05 -7.65666796156266e-05 -0.000386158547205886 -0.000727723378085856 -0.000431408237817204 -0.000533151024896956 -0.00035011364230308
"227" -0.000375891068020065 0.000270073490794772 0.000446609807843696 6.24310273458397e-05 1.93595056814988e-05 0.000311878771419194 -9.5955059440556e-05 0.000114133360665149 8.56638031969804e-05 -6.61990730462094e-05 -7.80018388292878e-05 -0.000379494411941537 -0.000721582469025247 -0.000429872027395096 -0.000526927202503967 -0.000345405109672816
"228" -0.000371169000185607 0.000279938931939467 0.000456325722323175 6.69638434333045e-05 2.39667268866575e-05 0.000318952874429757 -9.37192776002949e-05 0.000117609624089073 8.16734236176062e-05 -5.86180330665737e-05 -7.91124241933743e-05 -0.000372458315086438 -0.000714404391157714 -0.000428096959924406 -0.000520305221655927 -0.000340072457158254
"229" -0.000366528506950272 0.000289651718398467 0.000466657494738665 7.1961284907716e-05 2.88719819952437e-05 0.000326019370362773 -9.12191648487307e-05 0.000121327560431291 7.80053888016539e-05 -5.05830881347172e-05 -7.98829874995836e-05 -0.00036504493711096 -0.000706212197117063 -0.000426045248085273 -0.000513283822499953 -0.000334100489177773
"230" -0.000362046591023323 0.000299250235963854 0.000477572162004276 7.74014371049807e-05 3.40824649252437e-05 0.000333038946605132 -8.84521466815473e-05 0.000125295759340748 7.4743057137998e-05 -4.21075703158458e-05 -8.02946940725683e-05 -0.000357253083931632 -0.000697033629120466 -0.000423673235757552 -0.000505863153962689 -0.000327471499202604
"231" -0.000357803727153064 0.000308774718311173 0.000489035160432058 8.32704429204913e-05 3.96090238842697e-05 0.000339969182559646 -8.54193679634538e-05 0.000129513604924393 7.19642731421972e-05 -3.32116538418304e-05 -8.0337840354544e-05 -0.000349084683592436 -0.000686904070061514 -0.000420951729395868 -0.000498043457319789 -0.000320176955382143
"232" -0.000353872126671221 0.000318260072900917 0.000501007407312415 8.95531855211274e-05 4.54571877100101e-05 0.000346771944634524 -8.21195116849992e-05 0.000133989050956643 6.97635428843697e-05 -2.39121236287279e-05 -7.99889582292525e-05 -0.000340537043118184 -0.000675849556850023 -0.000417835728316086 -0.000489810536910039 -0.000312205793307897
"233" -0.000350317021562474 0.000327742504332457 0.000513435195561332 9.6230681700746e-05 5.1626253254598e-05 0.000353402477506439 -7.85525508925187e-05 0.000138723036265005 6.82202902510233e-05 -1.42314482368568e-05 -7.92392317808005e-05 -0.000331614166115255 -0.000663916301347748 -0.000414291499666359 -0.000481170941961867 -0.000303556880251654
"234" -0.000347213189211638 0.000337257275029843 0.000526276475474054 0.000103285526046335 5.8121996566474e-05 0.000359820162945171 -7.47261145637149e-05 0.000143713432410346 6.74178915274833e-05 -4.19014872163921e-06 -7.80739424522008e-05 -0.000322322264819457 -0.000651145839294824 -0.000410284234372909 -0.000472113416318261 -0.000294233865894839
"235" -0.000344617745898276 0.000346829457640612 0.000539474020971557 0.000110699729560877 6.49352533762941e-05 0.000365984329809837 -7.0644524128012e-05 0.000148961899394734 6.74395374404722e-05 6.18903016439706e-06 -7.64785484219583e-05 -0.000312666163032402 -0.000637580203275399 -0.000405780418162889 -0.000462632805366934 -0.000284238275788121
"236" -0.000342590964189031 0.000356489547835965 0.000552964751422355 0.00011845120744854 7.20690234193053e-05 0.000371854154400115 -6.63176909517505e-05 0.000154461404022344 6.835723199218e-05 1.68853922724359e-05 -7.44459442731958e-05 -0.000302655944863339 -0.000623274942345312 -0.000400750539154826 -0.00045272658047277 -0.00027358527321754
"237" -0.000341179404928639 0.000366252730511333 0.000566693848501214 0.000126518886565039 7.95123758338157e-05 0.000377389343473865 -6.17561374727342e-05 0.000160208342283752 7.02492232336354e-05 2.78694624819753e-05 -7.19653725212857e-05 -0.000292304047047357 -0.0006082752572147 -0.000395160730080495 -0.000442380055406297 -0.000262289325397976
"238" -0.000340439441460233 0.000376138757726427 0.000580585925149564 0.000134876340106644 8.72490775069728e-05 0.000382550506654691 -5.69735905070458e-05 0.000166192699522813 7.31817486652121e-05 3.91160658196903e-05 -6.90280182244023e-05 -0.000281627283077046 -0.000592642206892078 -0.000388991038273645 -0.000431597821550642 -0.000250375317337595
"239" -0.000340406591477442 0.000386155938077089 0.000594587134068942 0.000143506529087922 9.5269090641864e-05 0.000387300599132974 -5.19854983795307e-05 0.000172406130123384 7.72201690490805e-05 5.06004052674645e-05 -6.56318743341377e-05 -0.000270636541536673 -0.000576424251160601 -0.000382217462896704 -0.000420365725151159 -0.000237869566246188
"240" -0.000341114132033483 0.000396310808385082 0.000608617597498631 0.000152377871170015 0.000103547645267308 0.000391603460723922 -4.68103149487399e-05 0.00017883317922899 8.24142723390395e-05 6.22893156207424e-05 -6.17744109327671e-05 -0.000259353899135692 -0.000559688091413339 -0.000374824197960554 -0.000408683679991112 -0.000224805614698295
"241" -0.000342589558617939 0.000406597818833082 0.000622608458468815 0.000161466779178001 0.000112064612844671 0.000395423355271532 -4.14685998554637e-05 0.000185462670563732 8.88170195323582e-05 7.41583516989326e-05 -5.74528559515588e-05 -0.000247801700904734 -0.000542485223884846 -0.000366796348163239 -0.000396548597839591 -0.000211224919575509
"242" -0.000344852025804361 0.000417010069472477 0.000636491695418118 0.000170742049159312 0.000120795329011469 0.000398731046067847 -3.5980627676698e-05 0.000192276164047914 9.64699306196876e-05 8.61737877149389e-05 -5.26673757248591e-05 -0.000236001413470974 -0.000524877057079467 -0.000358125055175487 -0.000383951932204898 -0.000197168373309368
"243" -0.000347917807609081 0.000427531460880061 0.000650190104393211 0.000180175817664027 0.000129703652041483 0.000401494977671667 -3.03739996177902e-05 0.000199253198246663 0.000105398772855125 9.830734420461e-05 -4.74265387935902e-05 -0.000223980859927251 -0.000506923113004704 -0.000348805615304665 -0.000370901152909321 -0.000182691347473387
"244" -0.000351786982081117 0.000438143144406964 0.000663638445901006 0.000189735621492573 0.000138756192942137 0.00040369068259726 -2.46719503911409e-05 0.000206377848470007 0.000115628311820338 0.000110522681619155 -4.17344254564673e-05 -0.000211768164027722 -0.000488684877392494 -0.000338839230737322 -0.000357393291429066 -0.000167845684043723
"245" -0.000356454684656765 0.000448813799548318 0.000676759319126216 0.000199390512333392 0.000147913961223679 0.000405291626074854 -1.89038021218681e-05 0.00021362742973768 0.000127168784360058 0.000122790782282942 -3.56019476030045e-05 -0.000199395033929573 -0.000470218079094653 -0.000328232134718469 -0.000343432620508339 -0.000152692884014072
"246" -0.000361911722603065 0.000459514045763189 0.000689489137624131 0.000209107554456052 0.000157140907307942 0.000406282110734607 -1.30952444816964e-05 0.000220979173717618 0.00014002100160412 0.000135074642876358 -2.90414185788669e-05 -0.00018689294715025 -0.000451583878846254 -0.000316993453021832 -0.000329022702320804 -0.000137301525161547
"247" -0.000368136676730373 0.000470201441066867 0.0007017604821028 0.00021885380871416 0.000166385826575067 0.000406642646022394 -7.27979149036328e-06 0.000228407305956631 0.000154176223813888 0.000147340906971477 -2.20682344614766e-05 -0.000174297544504432 -0.000432837408497753 -0.000305143351232172 -0.000314179084328374 -0.000121740377303243
"248" -0.000375095358708997 0.000480830415795432 0.000713509078175761 0.00022859162482349 0.00017560900358186 0.000406362978911546 -1.48421412953001e-06 0.000235888648144893 0.000169610800998883 0.000159554678198712 -1.47001513270844e-05 -0.000161646871627745 -0.000414032292405761 -0.000292702995751056 -0.000298907973975196 -0.00010608271298593
"249" -0.000382757008661249 0.000491351304459433 0.000724677440633082 0.000238291780611088 0.000184756106508004 0.000405434304574226 4.25985066673653e-06 0.000243400950754312 0.000186294114118835 0.000171676521541342 -6.95689633749618e-06 -0.000148974685092748 -0.000395222354753846 -0.000279696269880198 -0.000283227616448337 -9.04078293865544e-05
"250" -0.000391069567680847 0.000501711802175822 0.000735209417977518 0.000247915961731664 0.000193776614615386 0.000403854376572731 9.92009551389017e-06 0.000250916807419024 0.000204180954888144 0.000183675591260702 1.13863664676939e-06 -0.000136324140274776 -0.000376458888022213 -0.000266159391010863 -0.000267155852487162 -7.47968731042855e-05
"251" -0.00039998293980028 0.0005118508300419 0.000745056906394242 0.000257427557069266 0.000202622772263103 0.000401625397063711 1.54707528698209e-05 0.000258415171230389 0.000223217724307442 0.0001955156688994 9.55927099852016e-06 -0.00012373265112982 -0.000357784172450865 -0.000252129687719136 -0.000250716653514393 -5.93334347412122e-05
"252" -0.000409432334545295 0.000521710480338958 0.000754178095763498 0.00026679687117165 0.000211237812634623 0.000398753713096893 2.0879293488992e-05 0.000265869679770299 0.000243338959601428 0.000207153825030194 1.82790062756597e-05 -0.000111241915786519 -0.000339250655331338 -0.000237647957754172 -0.000233934529919615 -4.41040706548232e-05
"253" -0.000419351441587294 0.000531223301862421 0.000762532619644889 0.000275987842885423 0.000219571967323309 0.000395250696911503 2.6122533382892e-05 0.000273260187396026 0.000264467038527799 0.000218564187436129 2.72671271090687e-05 -9.88924957958803e-05 -0.000320892555188949 -0.000222763343096463 -0.000216840473453206 -2.91945432250723e-05
"254" -0.000429658445438951 0.000540327616018293 0.000770091131212891 0.000284970471617959 0.000227569246804375 0.000391133356312164 3.1174021389762e-05 0.000280566120383816 0.000286518048572977 0.000229705088765665 3.64928753370506e-05 -8.67257136471974e-05 -0.000302751193478265 -0.000207528493668016 -0.000199465934492545 -1.46927929706896e-05
"255" -0.000440272437482804 0.000548954877457382 0.000776823086254149 0.000293712317623795 0.000235181624873582 0.000386422300820989 3.60096566090557e-05 0.000287764510040209 0.000309392738678956 0.000240545399403336 4.59192369259482e-05 -7.47817122884505e-05 -0.000284863600768315 -0.000191998408856782 -0.000181855924052876 -6.87710665550549e-07
"256" -0.000451101777656368 0.000557041530335671 0.00078271627284948 0.000302184208342943 0.000242358550732802 0.000381146695288802 4.06088508743842e-05 0.000294839585478121 0.000332990111539236 0.000251045517612756 5.55137998178837e-05 -6.31032909040713e-05 -0.000267251335855095 -0.000176234509110631 -0.000164046801066743 1.27335234169251e-05
"257" -0.000462049508961685 0.000564521966770236 0.000787757288145708 0.000310358965578788 0.000249050561645401 0.000375335931388671 4.49536776951003e-05 0.00030177808255209 0.000357197456000107 0.000261178747123783 6.52386148103629e-05 -5.1726289503408e-05 -0.0002499495175903 -0.000160298872667741 -0.000146088016269675 2.54893345297163e-05
"258" -0.000473019163947691 0.000571331825992479 0.00079194711557073 0.00031821226142757 0.000255213446076765 0.000369030399647128 4.90263909454137e-05 0.000308562624999626 0.000381893114004314 0.000270910528841107 7.50557900137487e-05 -4.06904363081737e-05 -0.000232977867671275 -0.00014425792473144 -0.000128031677502411 3.74914863247782e-05
"259" -0.00048389962852309 0.000577413271854636 0.000795288639359008 0.000325720139224896 0.000260807754175684 0.000362267036910173 5.2821422661126e-05 0.00031518529356609 0.000406955629885146 0.000280214375863893 8.49278824567057e-05 -3.00314397648331e-05 -0.000216354181714599 -0.000128181195886916 -0.000109926888243097 4.86657374525718e-05
"260" -0.000494586340235463 0.000582708716334328 0.000797788261108646 0.000332863674521252 0.000265794258180663 0.000355095371135113 5.63233534375028e-05 0.000321635443880883 0.000432249545850574 0.000289057760335596 9.48126402528486e-05 -1.97846752157671e-05 -0.000200096842695647 -0.000112138193250962 -9.1836301039016e-05 5.89313756114726e-05
"261" -0.000504965839909529 0.000587162275702121 0.000799467331901803 0.000339626266067178 0.000270137084805397 0.000347562305655131 5.95286638307995e-05 0.000327907505517536 0.000457646528945217 0.000297419494174834 0.000104673272383489 -9.98366381864095e-06 -0.000184214332731236 -9.62025026817072e-05 -7.38199243997343e-05 6.82207459104064e-05
"262" -0.000514924135839005 0.000590730392320583 0.000800358268545331 0.000345992440828692 0.000273812025405573 0.000339722293458234 6.24414364066769e-05 0.00033400082930221 0.000483008527781713 0.000305277298588136 0.000114467774339413 -6.53225311349082e-07 -0.000168718067366133 -8.04460584796091e-05 -5.5940906623598e-05 7.64680970609569e-05
"263" -0.000524347595662366 0.000593371156077465 0.000800477970661538 0.000351954540973084 0.000276788818048586 0.000331632298158366 6.50551897703767e-05 0.000339909464395119 0.000508198012654974 0.000312605593530794 0.000124157040863199 8.17329310747282e-06 -0.000153612744408874 -6.49459818606111e-05 -3.82710579813926e-05 8.36099638043566e-05
"264" -0.000533117321423849 0.000595046546511433 0.000799878262928497 0.000357501914396097 0.000279056672551454 0.000323353196338013 6.73852351473865e-05 0.000345638399779988 0.000533077750988465 0.000319391188090426 0.00013370377510139 1.64767623559262e-05 -0.000138898105384743 -4.97676146710883e-05 -2.08796365213691e-05 8.95953422922336e-05
"265" -0.000541125139062626 0.000595729153403057 0.000798595686735656 0.000362632185469327 0.000280597332781615 0.000314943917669769 6.94340935102038e-05 0.000351191387533993 0.000557513397738823 0.000325616978226081 0.000143066419120178 2.42342102019966e-05 -0.000124575252492871 -3.49912595838914e-05 -3.83788892672576e-06 9.43796525655169e-05
"266" -0.000548250821720643 0.00059539863129983 0.000796682387266672 0.000367344089011237 0.000281409459504156 0.000306472272963892 7.12199418963009e-05 0.000356573011518763 0.000581372349711652 0.000331271820825354 0.000152211086813673 3.14294937874376e-05 -0.00011064016632602 -2.06825939634364e-05 1.27799155763035e-05 9.79217616986527e-05
"267" -0.000554394816086107 0.000594038247865279 0.000794183670359999 0.000371642585717219 0.000281486428797957 0.000297999738572594 7.27544349430055e-05 0.000361790747716618 0.000604527527544767 0.000336348189787471 0.0001611003991074 3.80458409292586e-05 -9.70857048819753e-05 -6.91063019058028e-06 2.88956705824684e-05 0.000100192764186434
"268" -0.000559441042783894 0.000591645375600612 0.000791167170085196 0.000375533483988316 0.000280841077938572 0.000289593437412782 7.40596555078327e-05 0.000366855512517572 0.000626855255265093 0.000340840163652907 0.000169700614898723 4.40786144304868e-05 -8.39068193553917e-05 6.25813070751274e-06 4.44357440942954e-05 0.000101173896212085
"269" -0.000563292693805047 0.0005882189147066 0.00078768032976875 0.000379024450913467 0.000279475002930949 0.000281317745995707 7.51579861027993e-05 0.000371776269323144 0.000648237361187091 0.000344746221934032 0.000177976606093094 4.95149672858837e-05 -7.10963994616404e-05 1.87593578184048e-05 5.93188452996187e-05 0.000100849058154063
"270" -0.000565852626664089 0.000583772870855327 0.000783792243736102 0.000382129640514586 0.00027741672042553 0.00027324059189045 7.60724527772545e-05 0.000376564640177495 0.000668569053940275 0.00034807163532424 0.000185902274898639 5.43557236090528e-05 -5.86395672066412e-05 3.05366761491027e-05 7.34714278528759e-05 9.92142794233776e-05
"271" -0.000567034797924864 0.000578321845752917 0.000779562501492793 0.000384861958121918 0.000274683975176995 0.000265421283131085 7.68300421621903e-05 0.000381233375459536 0.000687748878823567 0.000350818289588101 0.000193443915433081 5.86023935844677e-05 -4.65287167315049e-05 4.15310991781284e-05 8.68128445399925e-05 9.62791703389179e-05
"272" -0.000566757123436911 0.000571895416663605 0.000775054740263399 0.000387240843855361 0.000271301453543001 0.000257924016954126 7.74555089661975e-05 0.000385792546156506 0.000705687539312298 0.000353001268002256 0.000200578536973433 6.22572360425287e-05 -3.47530859656761e-05 5.16948959878624e-05 9.92705641946784e-05 9.20557688133428e-05
"273" -0.000564944244119492 0.000564527909581976 0.000770329936857855 0.000389286000085508 0.000267310889933138 0.000250806158984079 7.79804558961637e-05 0.000390254724862167 0.000722306625646602 0.000354627549518349 0.000207281443580275 6.53323646446682e-05 -2.33018202627968e-05 6.09785839487332e-05 0.000110770586594991 8.65681885357752e-05
"274" -0.000561530685558325 0.000556255692315354 0.000765447766223728 0.000391015876323398 0.000262744692096137 0.000244124652788447 7.84317349700214e-05 0.000394631885569255 0.000737535780394743 0.000355716240125553 0.000213530680681334 6.78356766383914e-05 -1.2163344823288e-05 6.93476221956677e-05 0.000121239065203386 7.9853356220965e-05
"275" -0.000556471813180589 0.000547131245796458 0.000760465045619844 0.00039245628789528 0.000257645549633507 0.000237929748978764 7.88381595402962e-05 0.000398929416931846 0.000751323514114353 0.000356286033388893 0.000219308912938281 6.97830255757862e-05 -1.32824251956681e-06 7.67608189786919e-05 0.000130608988260444 7.19501640451808e-05
"276" -0.000549716582375249 0.000537211758636121 0.000755442564584948 0.000393630591560941 0.000252066415874073 0.000232269730599959 7.92294564771415e-05 0.000403156183954859 0.000763622603581049 0.000356363392323865 0.000224600519380598 7.11944005613686e-05 9.21033743449132e-06 8.31898097583453e-05 0.000138813810006759 6.29104006427635e-05
"277" -0.000541239625345682 0.000526553833360463 0.000750427900514789 0.000394563188811265 0.00024604849899781 0.000227185242581411 7.96317281933214e-05 0.000407319597637558 0.000774403160633294 0.000355969751044781 0.000229390697976009 7.20904845215487e-05 1.94612821407204e-05 8.8612647266335e-05 0.000145793531617373 5.27927079557471e-05
"278" -0.000531023174232506 0.000515223919822233 0.000745467894827305 0.00039527879924303 0.000239644412149457 0.00022271423229635 8.00700343399885e-05 0.000411417795696062 0.000783647666715118 0.000355133361688782 0.000233670831495286 7.24934410218904e-05 2.94274332418944e-05 9.30102099863516e-05 0.00015149043640205 4.16641393452239e-05
"279" -0.000519055090965599 0.000503291414712646 0.000740603549103475 0.000395798843916999 0.000232910356426465 0.000218884293258455 8.05654864780403e-05 0.000415453181801641 0.000791349243300303 0.000353887393104005 0.000237432755944937 7.24307573657891e-05 3.91119199300551e-05 9.63709285994321e-05 0.000155850011104676 2.9600606920126e-05
"280" -0.000505347374593924 0.000490836121647262 0.000735872555833544 0.000396150868201015 0.000225898942497983 0.000215723200637723 8.11430832243492e-05 0.000419420480686837 0.000797514468786302 0.000352262750061887 0.00024067191461746 7.19317972261923e-05 4.85163103571084e-05 9.86888880667306e-05 0.000158828435573337 1.66817772088663e-05
"281" -0.000489924710974959 0.000477925889058719 0.000731298748381888 0.000396351686098798 0.000218663998094569 0.000213242109667825 8.18135443063689e-05 0.000423311018357294 0.000802162154753923 0.000350295151639184 0.000243383970159737 7.10238859913671e-05 5.76339887739728e-05 9.99652486521897e-05 0.000160382828974774 2.99158268756407e-06
"282" -0.000472815798189125 0.000464646661381953 0.000726907943445564 0.000396427543884129 0.000211261154721708 0.000211454953478983 8.25969305908976e-05 0.000427113905589388 0.000805322989476956 0.000348019538442223 0.000245572624062981 6.974011849065e-05 6.64639620066034e-05 0.000100204560912197 0.000160478861520942 -1.13736334083693e-05
"283" -0.000454076018799146 0.000451074592972085 0.000722713664544957 0.000396390142340095 0.000203742318896339 0.000210362996102553 8.34987177086912e-05 0.000430810638783344 0.000807038603721591 0.000345470600079916 0.000247236562408348 6.81138341579016e-05 7.4996934791686e-05 9.94207580700753e-05 0.00015908702340074 -2.63199409313735e-05
"284" -0.000433768856079436 0.000437290923570234 0.000718720740158395 0.000396257589020623 0.000196160756173802 0.000209960117432707 8.4528021571346e-05 0.000434382154651855 0.000807357984076885 0.000342686605373711 0.000248384792144009 6.61746848108007e-05 8.32183610143357e-05 9.76265871292536e-05 0.000156185348348355 -4.17489938894878e-05
"285" -0.000411970493177555 0.00042337616571428 0.000714932048849544 0.000396043618649803 0.000188560991612653 0.000210232326485055 8.56814809790239e-05 0.000437800796424683 0.000806349315376984 0.000339707132160052 0.000249023303656674 6.39606949653087e-05 9.11193404343165e-05 9.48517002636458e-05 0.000151762320923305 -5.75520758952643e-05
"286" -0.000388775155901702 0.000409407375297807 0.000711333018857373 0.000395754732404964 0.000180996185103563 0.000211158769266654 8.69571172052184e-05 0.00044103684944343 0.000804074278364992 0.000336566763662361 0.000249158716583809 6.15026031174037e-05 9.86768688938541e-05 9.11170775904804e-05 0.000145809274935084 -7.36285782830576e-05
"287" -0.000364290001809759 0.000395462408217835 0.000707913890760622 0.000395397925902091 0.000173502915509755 0.000212711002151151 8.83473210699052e-05 0.000444056297776344 0.000800616891284176 0.000333298846450625 0.000248806459041935 5.88339781674302e-05 0.00010587395760097 8.64616214781251e-05 0.000138324686221848 -8.98705293468289e-05
"288" -0.000338632140022548 0.000381612781086416 0.000704645659314608 0.000394974509848894 0.000166120797299411 0.000214852254416863 8.98390670086098e-05 0.000446819449517162 0.000796058654069639 0.000329945702613979 0.00024797620921019 5.59889220356929e-05 0.000112688424340333 8.09154034896647e-05 0.000129315663197863 -0.000106169702103332
"289" -0.000311940978897381 0.000367929125171195 0.000701498174382219 0.000394477366302813 0.00015888506501301 0.000217537095906141 9.14078485590473e-05 0.000449278966826556 0.000790488025653715 0.000326532844463087 0.000246682665213857 5.29950026748178e-05 0.000119088428039116 7.45231687995179e-05 0.000118799278509336 -0.000122423592596807
"290" -0.000284353404289748 0.000354475860042409 0.000698434208959317 0.000393904216208632 0.000151827210910198 0.000220717207514809 9.30370442222272e-05 0.000451393216278184 0.000784002030527466 0.000323101674049267 0.000244943248199544 4.98899634316404e-05 0.000125054352294209 6.73316512699646e-05 0.000106802557331428 -0.00013852044547663
"291" -0.000256034270469406 0.000341313729532707 0.000695409044785047 0.000393239090690391 0.000144966031228325 0.000224332569421537 9.46944370607692e-05 0.000453104750993927 0.000776696287401134 0.000319673776529681 0.000242773296930658 4.66984153938845e-05 0.00013054970001107 5.93830149048154e-05 9.33493062297583e-05 -0.000154364760184675
"292" -0.000227148058331917 0.000328497350659101 0.000692374006606496 0.000392471334101402 0.000138325537538929 0.00022832119398387 9.63530570788165e-05 0.000454364762155102 0.00076867402139239 0.000316285166995826 0.000240191075167541 4.34493437671504e-05 0.000135550380067782 5.07366981266017e-05 7.8485151258739e-05 -0.000169846180321606
"293" -0.000197870945571036 0.000316072295589966 0.000689266682525313 0.000391574159906929 0.000131918347302899 0.000232614040548651 9.79689599224304e-05 0.000455109838412041 0.000760028821674657 0.000312954089380566 0.000237216355900904 4.01675646207387e-05 0.000140018253182795 4.14392318989282e-05 6.22540903775323e-05 -0.000184876376966512
"294" -0.000168394659797606 0.00030408540078102 0.000686034130124808 0.000390528295799715 0.000125749412071527 0.000237134439361042 9.95079530809322e-05 0.000455284486121986 0.000750866807445913 0.000309705808250534 0.000233868796308288 3.68792636706182e-05 0.000143922451839815 3.15498157458219e-05 4.47081559523167e-05 -0.000199356261759481
"295" -0.000138905073227939 0.000292568626699667 0.000682613704358434 0.000389298225635671 0.000119826238662387 0.000241804229824304 0.000100924910577439 0.00045482586096161 0.000741282041673577 0.00030655690620167 0.000230166615467378 3.36049144530037e-05 0.000147229425764456 2.11254931539707e-05 2.59108823887593e-05 -0.000213197588766188
"296" -0.000109604976856007 0.000281551393194858 0.000678937420903003 0.00038785524041929 0.000114142804929626 0.00024654252454922 0.000102173757502081 0.000453671677959136 0.0007313733999109 0.000303528090509089 0.000226132216652706 3.03640976702402e-05 0.000149907202899282 1.0227106672384e-05 5.92876395095326e-06 -0.000226320574259554
"297" -8.06976991929837e-05 0.000271057389154189 0.000674937105800529 0.000386161741189306 0.000108692365346522 0.000251260601405165 0.000103206004940926 0.000451762033952344 0.000721236675600722 0.000300625526155521 0.000221787275967572 2.71756046218662e-05 0.000151925150821263 -1.08458875471794e-06 -1.51600072064587e-05 -0.000238645246308961
"298" -5.23913553126997e-05 0.000261099423605943 0.000670546962427508 0.00038417813357911 0.000103465272274922 0.000255873648737126 0.000103972711504766 0.000449030819587189 0.000710956196406322 0.000297859975504677 0.000217148985032228 2.40529566707725e-05 0.000153251724169703 -1.27485523435197e-05 -3.727946474734e-05 -0.00025010453984744
"299" -2.48946399345557e-05 0.000251684325624248 0.000665697377172652 0.000381858571997864 9.84410993590267e-05 0.00026029318924626 0.000104421892542934 0.000445424983994073 0.000700619411439497 0.000295241668357383 0.000212244065107658 2.10122791383213e-05 0.000153861921582251 -2.47038066663478e-05 -6.03383089038891e-05 -0.000260628510696282
"300" 1.58803378203578e-06 0.000242816421550112 0.000660326123571836 0.000379157264336811 9.36033266848079e-05 0.000264428878049764 0.000104504144478591 0.000440881983841598 0.000690299921758422 0.000292763221195137 0.000207091260404216 1.80615032542415e-05 0.000153728768344879 -3.68868096026536e-05 -8.42456069616535e-05 -0.000270166718971349
"301" 2.68518425364633e-05 0.00023448479723436 0.000654368572584505 0.000376029463619244 8.89209727932661e-05 0.000268194521547592 0.000104172101600262 0.000435347295335583 0.000680073225015509 0.000290428106865267 0.000201712409361029 1.52122902392719e-05 0.000152830044855005 -4.92354727502097e-05 -0.000108903691639166 -0.000278667724450515
"302" 5.06937598213348e-05 0.000226682353374812 0.000647760536444003 0.000372422555031966 8.43770547681429e-05 0.000271501150195286 0.000103374912661848 0.000428773098623715 0.000670000323125214 0.000288231153687791 0.000196127447089641 1.24700544453458e-05 0.000151152255750653 -6.16885015708873e-05 -0.000134209701200657 -0.000286091327350181
"303" 7.29178254291444e-05 0.000219390850308816 0.000640459366312513 0.000368288811009963 7.99359952488388e-05 0.000274266101915764 0.000102065916550807 0.00042111178044856 0.000660139693421981 0.000286163654312102 0.00019035855372814 9.83904150851484e-06 0.000148679572444932 -7.41860246654632e-05 -0.000160058110940493 -0.000292403213378021
"304" 9.33352763361872e-05 0.000212581957823803 0.000632409085601612 0.000363576475524393 7.55662642625139e-05 0.000276408433841627 0.000100203090028794 0.00041232495776857 0.000650535791853139 0.000284211978994417 0.000184424069553428 7.32339024987282e-06 0.000145404158069302 -8.66692409231714e-05 -0.00018633516693344 -0.000297580294693057
"305" 0.000111770660307587 0.000206234495060189 0.00062356557754471 0.000358234966944165 7.12375222349601e-05 0.000277851868964065 9.77417834270049e-05 0.000402371994661888 0.000641230477478892 0.000282358824396323 0.000178348336534476 4.92258102116869e-06 0.000141322572255793 -9.90771865064806e-05 -0.000212936732346711 -0.00030160911603563
"306" 0.000128051062956535 0.000200311875940261 0.000613897984830468 0.000352215765411093 6.69174016406217e-05 0.000278526887417491 9.46544974517745e-05 0.000391234602289124 0.000632256055562413 0.000280591965500459 0.000172149170681974 2.63867388655094e-06 0.000136439480457902 -0.000111354942232052 -0.000239741916242643 -0.000304477941310465
"307" 0.000142020961158256 0.000194777428564054 0.000603381749713296 0.000345470987308772 6.25683576011583e-05 0.000278364909069889 9.09002208012124e-05 0.000378887396883302 0.000623633478691031 0.000278887611492647 0.000165844296419593 4.69174203253456e-07 0.000130763086010286 -0.000123450192781098 -0.000266636976317322 -0.000306191239000533
"308" 0.000153541926382271 0.000189594476534147 0.000591995621582044 0.000337954578219583 5.81671939097728e-05 0.000277309122528032 8.64593637284011e-05 0.000365319684334436 0.000615374205007052 0.000277221565815955 0.00015945625297443 -1.58815904636978e-06 0.000124309871104826 -0.000135304618546865 -0.000293504080381995 -0.000306756778250381
"309" 0.000162486689802664 0.000184719620575174 0.000579733504089463 0.000329625542216611 5.36781566093085e-05 0.00027531059883911 8.13132093201483e-05 0.000350531394001904 0.000607491665515582 0.000275573437127336 0.000153001821916558 -3.53716655850122e-06 0.000117101879050774 -0.000146870512027918 -0.000320225304900997 -0.000306193580073682
"310" 0.000168748230423308 0.000180112226709718 0.000566601193364417 0.000320444339798622 4.90757873470561e-05 0.000272323286398861 7.54444669011117e-05 0.000334524107816623 0.000599976477443724 0.000273913403344555 0.000146503622190296 -5.38080503447955e-06 0.000109168306567751 -0.000158100241008047 -0.000346686984959404 -0.00030452437884275
"311" 0.000172231057290404 0.000175725044479688 0.000552604582424246 0.000310377662278284 4.43343329846823e-05 0.000268314189479627 6.88499815862829e-05 0.000317314904401182 0.000592819315960298 0.000272218887438586 0.00013997428446393 -7.12689087584431e-06 0.000100542935681191 -0.000168948914059054 -0.0003727731542805 -0.000301787377210439
"312" 0.000172862508240179 0.000171513154968684 0.000537771643301198 0.000299394442126449 3.94349490247631e-05 0.000263256113413489 6.15315641596502e-05 0.000298932114202843 0.00058600254155896 0.000270455502322984 0.000133435126140858 -8.77543015581261e-06 9.12730688141735e-05 -0.000179371409371897 -0.000398370426277008 -0.000298019539888587
"313" 0.00017059729654412 0.000167435118532009 0.000522133293755305 0.000287471543375493 3.43585865119217e-05 0.000257134275429894 5.34918683651981e-05 0.000279406185023508 0.000579508087656617 0.00026859943024523 0.000126904352418298 -1.03359413555768e-05 8.14058477254644e-05 -0.00018932802577825 -0.00042336602676991 -0.000293271333317643
"314" 0.000165395180128261 0.000163445776488005 0.000505737622541568 0.000274592005884708 2.90926375928655e-05 0.000249940728356118 4.47552503194422e-05 0.000258783423990837 0.000573297482641646 0.000266622452548693 0.00012039768126466 -1.18119375293998e-05 7.09964288124265e-05 -0.000198782019106388 -0.000447654370436513 -0.000287595493203121
"315" 0.000157248983619102 0.000159505219835688 0.000488636091066539 0.000260738082950091 2.36297492393148e-05 0.000241680691537479 3.53377122302243e-05 0.00023711539071137 0.000567337676274646 0.000264493436309897 0.000113931590624213 -1.32070676941937e-05 6.01071032924267e-05 -0.000207699760916997 -0.000471130983916131 -0.000281053028068784
"316" 0.000146171919031737 0.000155571895855781 0.000470889503572716 0.000245909691513536 1.79678497976165e-05 0.000232363547615752 2.52770446426753e-05 0.000214467798144304 0.000561587186006577 0.000262185751459481 0.000107524580975739 -1.45295172749566e-05 4.88058014632327e-05 -0.00021605155358484 -0.000493698891075604 -0.000273709133909145
"317" 0.000132189172064647 0.000151614939593269 0.000452573411946057 0.000230106000394235 1.21142892143605e-05 0.000222013135483785 1.46042574517473e-05 0.00019091108665719 0.000556005679448674 0.000259675279212746 0.000101189921244274 -1.57787550380134e-05 3.71667609345916e-05 -0.00022380687570762 -0.000515261209013233 -0.000265636882970101
"318" 0.000115355232912711 0.000147596711366374 0.000433775696495832 0.000213336155386882 6.07305722164235e-06 0.000210660365119972 3.37433932453939e-06 0.000166525953557853 0.000550543342997795 0.000256937328881632 9.4948226036521e-05 -1.69610594059497e-05 2.52675720396041e-05 -0.000230943282934202 -0.000535731836182164 -0.000256908446021461
"319" 9.5742978391475e-05 0.000143489871765144 0.000414581639500608 0.000195617155792593 -1.38569417225591e-07 0.000198348315578187 -8.36608633154244e-06 0.000141402257905045 0.00054515316260435 0.000253950512066749 8.88139980963359e-05 -1.80770650434706e-05 1.31928816193656e-05 -0.000237437706156071 -0.000555027023224428 -0.000247604124184261
"320" 7.34453641585245e-05 0.00013926989895055 0.000395091566572538 0.000176970103866849 -6.49344585141926e-06 0.000185124049774744 -2.05530181469556e-05 0.000115635945637938 0.000539781451600715 0.000250694980639936 8.28012337044354e-05 -1.91276744927933e-05 1.02773408351707e-06 -0.000243269237433934 -0.000573070705637162 -0.000237804035187891
"321" 4.85714360276318e-05 0.000134918201796872 0.000375413757789358 0.000157428169405902 -1.29708062505238e-05 0.000171047659370925 -3.31224712580305e-05 8.93300164010878e-05 0.000534381637599853 0.000247150667798963 7.69268965841173e-05 -2.01125737461681e-05 -1.11376070457695e-05 -0.000248426302002901 -0.000589793669158584 -0.000227593388695079
"322" 2.12533385050673e-05 0.000130418979844826 0.00035565568965634 0.00013703210038508 -1.95280848933647e-05 0.000156183569834087 -4.59991835248604e-05 6.25947710332553e-05 0.000528903006749566 0.00024330772015691 7.12064575633796e-05 -2.10328007842302e-05 -2.32075812846006e-05 -0.000252891867060648 -0.000605135557454296 -0.000217055184282061
"323" -8.36306243740695e-06 0.000125761791951602 0.000335934913547515 0.000115823466597453 -2.61322856919555e-05 0.000140604257715505 -5.91125282450058e-05 3.55429608561125e-05 0.000523297405300635 0.000239153844438017 6.56573175105192e-05 -2.1885496546535e-05 -3.50917306640408e-05 -0.000256662052895156 -0.00061904114661041 -0.000206277007888674
"324" -4.01185546630658e-05 0.000120941054820678 0.000316365378610949 9.38557817226439e-05 -3.2733529888507e-05 0.000124390762658552 -7.23721150301436e-05 8.29439424207062e-06 0.000517522423994998 0.000234683515668855 6.02903624762643e-05 -2.26671734916052e-05 -4.66952664574625e-05 -0.00025972556236946 -0.000631465083867411 -0.000195342006897955
"325" -7.38363035820361e-05 0.000115956223711962 0.00029708001631903 7.11951989414223e-05 -3.92809721445646e-05 0.000107629548546058 -8.56987756883564e-05 -1.90266658890625e-05 0.000511533942850793 0.000229894195702823 5.51262681743302e-05 -2.33712058881915e-05 -5.79180644297113e-05 -0.000262078531819505 -0.000642364740410555 -0.000184334706727587
"326" -0.000109323673571856 0.000110815615185194 0.000278194784179197 4.79005473831902e-05 -4.57156707434522e-05 9.04078533606062e-05 -9.90060258423192e-05 -4.62976406990933e-05 0.000505295381757456 0.000224782038751501 5.01765118252941e-05 -2.39963683539352e-05 -6.86704650525275e-05 -0.000263720322424842 -0.000651714348480135 -0.00017333610008108
"327" -0.000146388835644358 0.000105525138779302 0.000259834690402171 2.40461811390421e-05 -5.19797602523722e-05 7.28206886880814e-05 -0.000112197675988286 -7.33942358226567e-05 0.000498776294086019 0.000219357132049359 4.54559542913207e-05 -2.45318790116753e-05 -7.8857100892207e-05 -0.00026465364926441 -0.000659489789167106 -0.000162431424914955
"328" -0.00018482257725254 0.000100103401464119 0.000242126676672299 -2.86945390940934e-07 -5.80074235833094e-05 5.49653017103014e-05 -0.000125186293916824 -0.000100186734693634 0.000491948873528164 0.000213630991924479 4.09793730918693e-05 -2.49725720965391e-05 -8.83891044905757e-05 -0.000264877987370616 -0.000665677089182569 -0.000151692128935897
"329" -0.000224409968826641 9.45639544178925e-05 0.000225180817291428 -2.50197077351927e-05 -6.37295005374465e-05 3.69412218209344e-05 -0.000137879117067877 -0.000126548622605439 0.000484791515116889 0.000207609882892878 3.67608674120272e-05 -2.530915423291e-05 -9.71768233885944e-05 -0.000264403271109146 -0.000670271348792888 -0.000141191724919778
"330" -0.000264924637425388 8.89335091384728e-05 0.000209124983729568 -5.00614119736687e-05 -6.90735964942682e-05 1.88501519554097e-05 -0.00015018270618357 -0.000152354645315608 0.000477294092681861 0.000201318081386249 3.28177388759672e-05 -2.55317748722172e-05 -0.000105136120260957 -0.000263233562488988 -0.000673266513035862 -0.000131002333246878
"331" -0.00030615167406047 8.32367352129158e-05 0.000194064388128259 -7.5322271294633e-05 -7.39659882928577e-05 7.92969842383019e-07 -0.000162007820956291 -0.000177485394856354 0.000469447379181101 0.000194775597264679 2.91615330233282e-05 -2.56292880660178e-05 -0.000112189075342003 -0.000261380081982225 -0.000674680461436743 -0.000121184555826459
"332" -0.000347862884290951 7.7505565749131e-05 0.000180111124013747 -0.000100707218150559 -7.83389086830426e-05 -1.712989311629e-05 -0.000173265597395064 -0.000201820269750842 0.000461253801136197 0.000188004892905997 2.58019449457877e-05 -2.55935656373665e-05 -0.000118263917151474 -0.000258854343957924 -0.000674526173254776 -0.000111799735809461
"333" -0.000389831037286258 7.17716343614713e-05 0.000167358859176146 -0.000126122375014132 -8.21102339570008e-05 -3.48182783810433e-05 -0.000183871495295671 -0.000225246472951588 0.000452718141097064 0.000181039204779864 2.27563971084049e-05 -2.54127765166585e-05 -0.000123291188037764 -0.000255672570991564 -0.000672827788765933 -0.000102896044792337
"334" -0.000431837941170435 6.60658558053526e-05 0.000155901381022129 -0.000151467908948689 -8.52096617291898e-05 -5.21791285901551e-05 -0.00019374259134999 -0.000247654832556187 0.000443857629796865 0.000173907151197978 2.00345312113865e-05 -2.50759882621592e-05 -0.000127215262607844 -0.000251846554169998 -0.000669619049568118 -9.45235441154044e-05
"335" -0.000473660721091613 6.04273597640213e-05 0.0001458261206646 -0.000176642638318997 -8.75650966788355e-05 -6.91146393451095e-05 -0.000202803470647182 -0.000268942980892323 0.00043469883792629 0.000166646888090536 1.76471172674439e-05 -2.45706986711927e-05 -0.000129979504206093 -0.000247396290079708 -0.000664939463820722 -8.67207383512008e-05
"336" -0.000515090659344112 5.48919248944074e-05 0.000137201979346088 -0.00020154923687407 -8.91031565098204e-05 -8.55351842319618e-05 -0.00021097909418592 -0.000289015643056566 0.000425266197570633 0.000159298058331872 1.56037462599247e-05 -2.38888311886332e-05 -0.000131543324607353 -0.000242338899361908 -0.00065882873345472 -7.95205226367703e-05
"337" -0.000555914986914284 4.9498504487617e-05 0.000130092607513763 -0.000226086727644372 -8.97555100428201e-05 -0.000101357326578699 -0.000218207892507104 -0.000307785308922075 0.000415598597118721 0.000151894781575447 1.39156480827983e-05 -2.30191962202019e-05 -0.000131867931425314 -0.000236694036206914 -0.000651337815525974 -7.29497725765553e-05
"338" -0.000595938301586414 4.42832585227446e-05 0.000124549825961069 -0.00025016066947486 -8.94611129043535e-05 -0.000116501648233981 -0.00022442671254438 -0.000325175628054955 0.000405742088050855 0.000144487574570858 1.25878608703879e-05 -2.19529559615013e-05 -0.000130930922945606 -0.000230484959550626 -0.000642526900305514 -6.70253797269465e-05
"339" -0.000634975648658399 3.92837381642693e-05 0.000120614625185529 -0.000273672184313689 -8.81608545771939e-05 -0.000130895624267022 -0.000229584692263678 -0.000341113084961452 0.00039573949975334 0.000137114347712332 1.16267394167306e-05 -2.06825724320343e-05 -0.000128716340047423 -0.000223733848713567 -0.000632457183114711 -6.17628231624057e-05
"340" -0.000672846541406306 3.45338323849874e-05 0.000118312134686032 -0.000296530654546272 -8.58002391918831e-05 -0.000144471084467967 -0.000233636105951947 -0.000355544176777492 0.000385650558305783 0.000129817009860045 1.10389945661991e-05 -1.92016588381939e-05 -0.000125217903085514 -0.000216468098680292 -0.000621193936892215 -5.71678988761151e-05
"341" -0.000709383482538051 3.00678846496068e-05 0.000117658155367457 -0.000318643080356241 -8.23333630782913e-05 -0.000157166814192122 -0.000236546485142895 -0.00036841426022663 0.000375530879047619 0.000122647865949175 1.08258219793786e-05 -1.750173778688e-05 -0.000120437470990406 -0.000208709361147778 -0.000608806133065604 -5.32351015864787e-05
"342" -0.000744439539613375 2.59158045914284e-05 0.000118655585261677 -0.000339929289036157 -7.77164574882781e-05 -0.000168935655595747 -0.000238285216612199 -0.000379685669393411 0.000365441168267274 0.000115649085682843 1.09886934534992e-05 -1.55810018311639e-05 -0.000114391128205346 -0.000200489551913926 -0.000595371860737617 -4.99587456009692e-05
"343" -0.000777872185417131 2.21084920405823e-05 0.000121291499048907 -0.000360301744979255 -7.19178354477859e-05 -0.00017973026321507 -0.00023883663080969 -0.000389331492305087 0.000355452101636395 0.000108861553354982 1.1527572710738e-05 -1.34372007785636e-05 -0.000107104440885434 -0.000191833086644203 -0.000580966095605157 -4.73259957472748e-05
"344" -0.000809558886980161 1.86671893117021e-05 0.000125537172890349 -0.000379689440051231 -6.4916394007126e-05 -0.000189515922931036 -0.000238187108373413 -0.000397334564155724 0.000345624711995687 0.000102328739081745 1.24391075208833e-05 -1.10708237673122e-05 -9.86148672434087e-05 -0.000182773770312333 -0.000565670824475019 -4.53139071325309e-05
"345" -0.000839391960307429 1.56167250898211e-05 0.000131359970877742 -0.000398018557121139 -5.66929693363847e-05 -0.000198265585622848 -0.000236337820400501 -0.000403690278302052 0.000336031693762574 9.60962124871182e-05 1.37162877114048e-05 -8.48213886279414e-06 -8.89638008578497e-05 -0.000173342327486484 -0.000549571702143325 -4.38980540528125e-05
"346" -0.000867272904693916 1.2968993201958e-05 0.000138698646555285 -0.000415229457554378 -4.72403575763382e-05 -0.000205962346286781 -0.000233295840578573 -0.00040840268425348 0.000326740657773693 9.01970510548502e-05 1.53552468945526e-05 -5.67617002188295e-06 -7.82105533868048e-05 -0.000163570163945757 -0.00053275292445069 -4.3047685695596e-05
