"V1" "V2" "V4" "V5" "V7" "V8" "V10" "V11" "V13" "V14" "V15" "V17" "V18" "V20" "V21" "V23"
"1" -5.81982941155008e-06 -8.65290031353986e-06 -1.74724399980807e-05 -8.81199842736179e-06 -8.96097331534983e-06 -7.73706756970641e-06 -1.44012262232636e-05 -1.19843489768359e-05 1.34926647679448e-05 6.68934358736742e-06 7.60003659889175e-06 4.46726341881478e-06 2.98861568804313e-06 1.98781108759787e-05 4.19574992624748e-06 -7.79813882075296e-06
"2" -1.37861637179791e-05 8.99094458883081e-06 -2.8309880480958e-05 1.8043668874037e-05 -1.30161359561002e-05 1.43509141605522e-05 -7.16172376104186e-07 7.66104805382751e-06 5.45415584520138e-05 4.72419985007445e-05 2.58693101388832e-05 1.21859235263917e-05 1.30849946719095e-05 4.20895203521975e-05 2.98045621164081e-05 -1.81335459305177e-05
"3" -2.19056883512511e-05 2.64629348615386e-05 -3.92916414039214e-05 4.46385532497373e-05 -1.71367658688966e-05 3.63209492258708e-05 1.28985863803507e-05 2.7177598154727e-05 9.53030080137841e-05 8.76319597219685e-05 4.396677672502e-05 1.9728660020143e-05 2.30117525111321e-05 6.40737090334839e-05 5.52228637778488e-05 -2.8391683376255e-05
"4" -3.02245688174321e-05 4.36019810141565e-05 -5.04460509616511e-05 7.07109638369315e-05 -2.13072500872252e-05 5.80393342934028e-05 2.63580008680686e-05 4.63989370524025e-05 0.000135492370679478 0.000127610994925127 6.17277526106151e-05 2.69684981668732e-05 3.26567585243114e-05 8.56595396705649e-05 8.02778871718306e-05 -3.85333358954635e-05
"5" -3.87703683990664e-05 6.02545653016621e-05 -6.17912612531094e-05 9.600580349849e-05 -2.55103193389954e-05 7.93807663377645e-05 3.95775163432436e-05 6.51585646944414e-05 0.000174829320287322 0.000166929319444494 7.89848265532972e-05 3.3781067726319e-05 4.1910350253671e-05 0.000106677345296091 0.000104796745884309 -4.85247893769605e-05
"6" -4.75798280656724e-05 7.62693785229978e-05 -7.33290065506064e-05 0.00012026534304545 -2.9722868702513e-05 0.000100215085032183 5.24770097569389e-05 8.32963787950296e-05 0.000213043974850484 0.000205343820709178 9.55748988900173e-05 4.00442305423895e-05 5.06695482846603e-05 0.000126969352005335 0.000128610876009567 -5.83324614932506e-05
"7" -5.66706933959271e-05 9.15016176317627e-05 -8.50618636035461e-05 0.000143248017411737 -3.39282176982993e-05 0.000120419960437502 6.49820854494809e-05 0.000100656085348021 0.000249872681042216 0.00024261381679885 0.000111344595520948 4.56387090785138e-05 5.88307485776934e-05 0.000146378088931659 0.000151559368105191 -6.79306396014926e-05
"8" -6.6063672517741e-05 0.000105820466295515 -9.69620458329296e-05 0.000164720928228834 -3.80912042997102e-05 0.000139877903236801 7.70315082625694e-05 0.00011709012095112 0.000285070040597719 0.000278513468730609 0.000126147029522051 5.0454890078403e-05 6.63027730610695e-05 0.000164762329223155 0.000173487668216682 -7.72870627982914e-05
"9" -7.57657970442217e-05 0.000119096381597686 -0.000108996934320063 0.000184465860157855 -4.21842364653492e-05 0.000158475918402384 8.8560858478911e-05 0.000132454720274707 0.000318391732598088 0.000312817896707661 0.000139839394274345 5.43858918883235e-05 7.3002101656819e-05 0.000181984174269643 0.000194252445148187 -8.63819847554047e-05
"10" -8.57762376734205e-05 0.000131219893036674 -0.000121102885495525 0.000202276082607599 -4.61694564724479e-05 0.000176109159040292 9.95337292611781e-05 0.000146619738584494 0.000349621136344038 0.000345321101674367 0.000152290776053138 5.73324757424339e-05 7.88521173561558e-05 0.000197916869988536 0.000213719323365817 -9.5191865049622e-05
"11" -9.60834170912836e-05 0.00014209000624657 -0.000133204766904792 0.00021797051908025 -5.00069192837604e-05 0.000192677927324697 0.000109910690743658 0.000159470548472183 0.000378552797790935 0.000375831406236713 0.000163385086261206 5.92013881418372e-05 8.37802660335329e-05 0.000212448956407918 0.000231764018533197 -0.000103704062089409
"12" -0.000106666850337397 0.000151618120168935 -0.000145205366092204 0.000231383539661005 -5.36500517060252e-05 0.000208096707950982 0.000119667672257245 0.000170898944436708 0.00040500161066684 0.000404167325864427 0.000173007999233206 5.99116097398169e-05 8.77298898768996e-05 0.00022547446354996 0.000248275229521284 -0.000111894650920561
"13" -0.000117495575890283 0.000159735338837789 -0.000156979417471131 0.000242370380527867 -5.70459634088554e-05 0.000222281359798965 0.000128798272748233 0.000180816134638078 0.000428801734362861 0.000430167574963071 0.000181064898926852 5.9385613228463e-05 9.0651874888778e-05 0.000236902723425874 0.000263155509075337 -0.000119754935528751
"14" -0.000128532986873475 0.000166379140414011 -0.000168381646722045 0.000250811950054684 -6.01439547440646e-05 0.000235163856405064 0.000137310887401998 0.000189140132274425 0.000449811647356829 0.000453689271428278 0.000187478412701872 5.7555936114062e-05 9.25095904004466e-05 0.00024665457483978 0.000276314627660905 -0.000127273393122823
"15" -0.000139725368558189 0.000171515648892075 -0.000179251055373048 0.000256614251473765 -6.2886049082577e-05 0.000246684593256396 0.000145225646998804 0.000195815616476868 0.000467909968997426 0.000474607636946795 0.000192172312931751 5.43637829057987e-05 9.3269582070021e-05 0.000254660550304425 0.000287686829996241 -0.000134439601836837
"16" -0.000151016082960569 0.000175121650194874 -0.000189391272235395 0.000259705983583042 -6.52097257567016e-05 0.000256798945442335 0.000152573347205334 0.000200799652307697 0.000482998486912479 0.000492823639200883 0.000195099095623878 4.97598736890019e-05 9.29203531800156e-05 0.000260872395652484 0.000297211436675075 -0.000141250673719467
"17" -0.000162334690347582 0.000177188923896983 -0.000198601073222623 0.000260047736957314 -6.70490770044766e-05 0.000265467273753801 0.000159407095432971 0.000204063084744357 0.000495000383107438 0.000508250435937619 0.000196213490482258 4.37049348678898e-05 9.14479443057546e-05 0.000265241994305815 0.00030484381142574 -0.000147697406205718
"18" -0.000173602979873871 0.000177725771246388 -0.000206645670417864 0.000257620860677703 -6.83417951856827e-05 0.000272668723365095 0.000165791878107152 0.000205600560860597 0.000503871192184136 0.000520830784399434 0.000195498758394527 3.61708246656549e-05 8.88604129743443e-05 0.000267750142039665 0.0003105552748981 -0.000153779434004774
"19" -0.000184735045041886 0.000176764333516087 -0.000213279662135266 0.000252439786577159 -6.90158584562526e-05 0.000278390621003139 0.000171804608844187 0.000205422261880695 0.000509579146832141 0.000530528575376435 0.000192939910100959 2.71332685959537e-05 8.51709262305823e-05 0.000268369805955304 0.000314329278523667 -0.00015949073966561
"20" -0.000195642996101128 0.000174342672135172 -0.000218242389934335 0.000244541471067105 -6.90038147755846e-05 0.000282633312764138 0.000177535412202032 0.000203549748112899 0.000512123684041496 0.000537327101460743 0.000188547831598331 1.65864307538376e-05 8.04019001596142e-05 0.000267103352233493 0.000316167973458762 -0.00016482906785265
"21" -0.000206220649007423 0.000170522398006024 -0.000221261557742188 0.000233991336621927 -6.82342433114451e-05 0.000285410293081859 0.000183089846284314 0.00020003254124 0.000511522922324777 0.000541232501085427 0.000182340503111582 4.52796428655172e-06 7.45869474135172e-05 0.000263955620116376 0.000316083232551181 -0.000169795197764909
"22" -0.000216366883294277 0.000165378090653769 -0.000222047999712602 0.000220880351247903 -6.66383792262702e-05 0.000286745314864104 0.000188579886359138 0.000194927767438483 0.000507821028469509 0.000542273894708621 0.000174356935330773 -9.03241170503446e-06 6.77691835110438e-05 0.000258950633729711 0.000314099842562082 -0.000174388510323466
"23" -0.000225971631138305 0.000159005028543914 -0.000220307044970897 0.000205324427123484 -6.41514498612241e-05 0.000286675160568027 0.000194126947583472 0.000188312404229572 0.000501077214356298 0.000540498621405079 0.000164644953291096 -2.40738232692007e-05 5.99971450091753e-05 0.000252111419449076 0.000310259447459557 -0.000178609772601628
"24" -0.000234921727954367 0.000151503192333493 -0.00021574421217001 0.000187460648250578 -6.07046976325932e-05 0.000285246481858196 0.000199859927217538 0.000180276368305354 0.000491380625516002 0.000535976181621307 0.000153269008140823 -4.056671019627e-05 5.13345997305005e-05 0.000243483665367181 0.000304611560951638 -0.000182457925023463
"25" -0.00024310292973984 0.000142984578040142 -0.000208062107515576 0.000167449944430597 -5.62377772672578e-05 0.000282516602386964 0.000205918046514947 0.000170923192670014 0.000478830779858257 0.000528797658339807 0.000140307937324237 -5.84740117005918e-05 4.18452371492099e-05 0.000233116001554569 0.000297223844522644 -0.000185931652223677
"26" -0.000250395505175121 0.00013358582983732 -0.000196957508265861 0.000145470770693436 -5.06927065665495e-05 0.000278553215437681 0.000212436004857903 0.000160372789849989 0.000463550616863778 0.000519066544414743 0.000125846854620814 -7.77455764931856e-05 3.16034475757391e-05 0.000221073055316596 0.000288169249787984 -0.000189037214488881
"27" -0.000256685481184829 0.00012343885296694 -0.000182139475477275 0.00012172232324163 -4.40108318033431e-05 0.000273433166463951 0.000219554749076671 0.000148752629538671 0.000445678743402145 0.000506909588150362 0.000109987898074175 -9.8323929918078e-05 2.06922560742074e-05 0.000207425409069589 0.000277533184854113 -0.00019177212510762
"28" -0.000261854501675472 0.000112693277542841 -0.000163327586407348 9.641475462829e-05 -3.6146952685571e-05 0.0002672401497581 0.00022741705511955 0.000136197216532868 0.000425364671857665 0.000492460406588528 9.28378049363849e-05 -0.000120143529890112 9.19728341267517e-06 0.000192247094029308 0.000265414374485237 -0.000194135512565986
"29" -0.000265788544372537 0.000101505126965462 -0.000140248779502401 6.97794948479903e-05 -2.70577481097112e-05 0.000260066661768349 0.000236157876303335 0.000122856299723714 0.000402776611171968 0.000475871686552477 7.45168836892467e-05 -0.000143130895140829 -2.79327218431057e-06 0.000175630399218218 0.000251913256000718 -0.000196135626351612
"30" -0.000268376311121877 9.00339605332113e-05 -0.00011264339393235 4.20522122720323e-05 -1.67054331382507e-05 0.000252007806980527 0.00024590734009394 0.000108881450555477 0.000378092220642086 0.000457306792587825 5.51488493077688e-05 -0.000167199379530991 -1.51836098617126e-05 0.000157670359780949 0.000237149861981851 -0.00019776825666591
"31" -0.000269509800696254 7.84496583573396e-05 -8.02762281840081e-05 1.3476726463068e-05 -5.05957248099086e-06 0.000243168869020755 0.000256792286914264 9.44259737615689e-05 0.000351496932464318 0.000436938046108411 3.48683952112414e-05 -0.000192261590139093 -2.78720835138299e-05 0.000138466553991318 0.000221234797886995 -0.000199040771874697
"32" -0.000269091421690409 6.6917067571219e-05 -4.2927777537154e-05 -1.56933894521401e-05 7.89853950670667e-06 0.00023365727825723 0.000268931156252509 7.96545645566614e-05 0.0003231895112188 0.000414949504953757 1.38120006563272e-05 -0.000218219429792398 -4.0759408417096e-05 0.00011812978994194 0.000204300959298886 -0.000199952680034256
"33" -0.00026701595722623 5.56058368654192e-05 -4.08326852228164e-07 -4.51995931220161e-05 2.2183911250974e-05 0.000223584212359344 0.000282429016238557 6.47298262497398e-05 0.00029337190270742 0.00039152726019009 -7.87744618572612e-06 -0.000244970471059457 -5.37440538808265e-05 9.67735063954241e-05 0.000186472844559954 -0.000200507121676006
"34" -0.000263203370770569 4.46886139187211e-05 4.74436866098554e-05 -7.47903954974576e-05 3.77965286832029e-05 0.000213059485567987 0.000297376077393953 4.98103492253072e-05 0.000262249439102307 0.000366864069351452 -3.00575025597978e-05 -0.000272405300691232 -6.67248408453496e-05 7.45125118424984e-05 0.000167890052527999 -0.000200709667807092
"35" -0.000257566224125047 3.43338534667967e-05 0.000100766554269707 -0.00010420764126527 5.47329592469897e-05 0.000202197417847642 0.000313854648549862 3.50580669558756e-05 0.000230034744859304 0.000341156484265253 -5.25774588728247e-05 -0.000300408795041767 -7.95917618005624e-05 5.14773002741013e-05 0.000148687803597662 -0.000200559831324984
"36" -0.000250036866537937 2.47027570732438e-05 0.000159658394961813 -0.0001332005163751 7.29807808025044e-05 0.000191113356237865 0.000331927672052534 2.06319783357509e-05 0.000196940145429438 0.000314601016058726 -7.5293989682794e-05 -0.000328864237947138 -9.2248263584817e-05 2.77901964474916e-05 0.000129003424698017 -0.000200064710746465
"37" -0.00024055075814466 1.59604237740922e-05 0.000224183830717889 -0.000161519039885312 9.25106707636223e-05 0.000179918148174223 0.000351640139485241 6.68534201397424e-06 0.000163172997084756 0.000287394226992083 -9.80606722333727e-05 -0.000357650086248347 -0.000104590244187637 3.57373568005184e-06 0.00010897594386609 -0.000199227134066548
"38" -0.000229058904105702 8.25469937367083e-06 0.000294369560997997 -0.000188929647689519 0.000113289830856261 0.000168725611910404 0.000373024569698007 -6.63243131645579e-06 0.000128946982896854 0.000259729998259925 -0.000120734643578712 -0.000386640098013326 -0.000116518916001418 -2.10358897817707e-05 8.87429055077461e-05 -0.000198048416916624
"39" -0.000215517764739429 1.73338885577319e-06 0.000370196096139329 -0.000215200548299926 0.0001352704424356 0.000157642888970054 0.000396090687877519 -1.91836380569047e-05 9.44686447763919e-05 0.000231800552681534 -0.000143173358393039 -0.000415710503487321 -0.000127941801810468 -4.59130667905578e-05 6.84417749221125e-05 -0.000196534169475889
"40" -0.000199901567268137 -3.47176765338432e-06 0.000451609550165398 -0.000240117852339654 0.000158399778245065 0.00014677775381979 0.000420828808197582 -3.08310454133057e-05 5.99361536104758e-05 0.000203794137353776 -0.000165239844844926 -0.000444729809350177 -0.000138766809164637 -7.09259797030943e-05 4.82038888092789e-05 -0.000194682526977704
"41" -0.000182192820845038 -7.23168116984239e-06 0.000538504762688062 -0.000263473565941229 0.000182612829464942 0.000136231612066435 0.000447214016737596 -4.14523055684826e-05 2.55454025675956e-05 0.000175888266921526 -0.000186803409506668 -0.000473574021753971 -0.000148904623687778 -9.59530395565301e-05 2.81578421616027e-05 -0.000192500627538453
"42" -0.000162388393534571 -9.43439121252745e-06 0.000630738756017933 -0.000285078589089911 0.000207830800011475 0.000126102729330054 0.000475196748532967 -5.0930672042833e-05 -8.51748548243402e-06 0.000148256349826164 -0.000207740402870015 -0.000502115289850687 -0.000158276906542598 -0.000120867923233171 8.42744257119128e-06 -0.000189983289817316
"43" -0.00014049989865844 -9.98174361768539e-06 0.000728109800622797 -0.000304762139361132 0.00023397272995358 0.000116484868102555 0.000504712113547104 -5.91631933902416e-05 -4.20694734195793e-05 0.000121065297059915 -0.000227930160402972 -0.00053022843620144 -0.000166807480162092 -0.000145546932513624 -1.08701963839762e-05 -0.000187135692615066
"44" -0.000116551742006255 -8.78875610921505e-06 0.000830373935795021 -0.000322362746453169 0.000260942693837754 0.00010746180739658 0.000535673555715496 -6.60551913940854e-05 -7.49523271620491e-05 9.44676724049166e-05 -0.000247265083497705 -0.000557788166825813 -0.000174428275421738 -0.00016988336087699 -2.96247882032717e-05 -0.00018395122901962
"45" -9.05834621159529e-05 -5.78725739349032e-06 0.000937242540988659 -0.000337746591166621 0.0002886379002067 9.91174149366333e-05 0.00056797794708814 -7.15244728137018e-05 -0.000107002693149293 6.86095009089653e-05 -0.000265640206432355 -0.000584675113563665 -0.000181077532332226 -0.00019376176241428 -4.77343958647303e-05 -0.000180431166371218
"46" -6.26450447538755e-05 -9.1830706657465e-07 0.00104836431417414 -0.000350788426724693 0.00031694833648899 9.15263745883704e-05 0.000601506092636694 -7.55039524937961e-05 -0.000138079376956555 4.36269792709928e-05 -0.000282965522421369 -0.000610773201491896 -0.000186702246698633 -0.000217081909253969 -6.51053449749049e-05 -0.000176571850181113
"47" -3.28047469597849e-05 5.85433358472332e-06 0.00116335414442638 -0.000361389708630641 0.000345760865295886 8.47566352170851e-05 0.000636119435043115 -7.79317638565578e-05 -0.000168049072006957 1.96399945511855e-05 -0.000299156258956451 -0.000635968427228632 -0.000191256398818467 -0.000239749634656277 -8.1652718760363e-05 -0.000172365880771467
"48" -1.13908981980588e-06 1.45486075779171e-05 0.00128176895885684 -0.000369467891588083 0.000374950449090635 7.88710105079195e-05 0.000671662417007306 -7.87652054096783e-05 -0.000196799385367943 -3.23901624030813e-06 -0.000314139802264832 -0.000660154594148376 -0.000194702835347685 -0.000261677307240417 -9.73032274940097e-05 -0.000167805193643998
"49" 3.22520768290211e-05 2.51740036425238e-05 0.00140311608179693 -0.000374960390586718 0.000404384080255683 7.39224731704015e-05 0.000707973184694098 -7.79698092437677e-05 -0.000224220962108333 -2.49106620922356e-05 -0.000327854759883499 -0.000683229004607551 -0.000197013774186611 -0.000282784489139618 -0.000111989551219168 -0.00016288677892796
"50" 6.72677106893829e-05 3.77128154757488e-05 0.0015268639979519 -0.000377828204824717 0.000433932927119542 6.99607899087272e-05 0.000744874015103624 -7.55269761895296e-05 -0.000250231918349458 -4.52897895202346e-05 -0.000340250951906704 -0.000705096517782469 -0.000198166179832721 -0.000303005217237762 -0.000125657398578664 -0.000157596086587931
"51" 0.000103782311080873 5.21344832199713e-05 0.00165243281206159 -0.000378046358747997 0.000463459488167531 6.70224904032207e-05 0.000782172124078726 -7.14294833742621e-05 -0.000274756717540559 -6.43042927179601e-05 -0.000351286544226824 -0.00072566894952941 -0.00019815307787441 -0.000322281775960326 -0.000138265002421764 -0.000151921259179446
"52" 0.000141663987752256 6.83900905214427e-05 0.00177920612130044 -0.000375616590419385 0.000492827273249139 6.5146741541806e-05 0.000819676757056456 -6.5679465708069e-05 -0.000297736671481053 -8.18922063536104e-05 -0.000360931849206663 -0.000744861264996457 -0.000196968459263444 -0.000340562188413587 -0.000149778403688814 -0.000145854299864245
"53" 0.000180770360895231 8.64177486873505e-05 0.00190652587636125 -0.000370555080484475 0.000521895337853588 6.43530133371075e-05 0.00085718181802229 -5.82928913980088e-05 -0.000319131435169951 -9.80062546860274e-05 -0.000369172113051771 -0.000762602195987958 -0.000194619591968904 -0.000357811823821141 -0.000160174889497215 -0.000139385635653921
"54" 0.000220944644878852 0.000106132649310867 0.00203370751206813 -0.000362897702582965 0.000550524384223942 6.46642613624335e-05 0.000894483020293821 -4.92971393454624e-05 -0.000338915437782262 -0.000112609789511373 -0.000375996036021833 -0.000778826242399837 -0.000191123024131681 -0.00037400127127142 -0.000169441988220683 -0.00013249612440337
"55" 0.000262024303208477 0.00012743978191659 0.00216003750714134 -0.000352703297411879 0.000578580710623957 6.60881930837564e-05 0.000931373688619339 -3.87318018302148e-05 -0.000357069001403045 -0.000125679236732926 -0.000381408238691347 -0.00079347133141053 -0.000186499706315027 -0.0003891108528626 -0.000177579716075302 -0.000125178380037356
"56" 0.000303831625655347 0.000150222574531557 0.00228477866558571 -0.000340048123183474 0.000605930823915491 6.86314813475522e-05 0.000967645520910053 -2.66436345855084e-05 -0.000373598939485005 -0.000137205935585377 -0.00038542383074857 -0.000806489478100174 -0.000180781969014979 -0.000403137209144 -0.000184595645988177 -0.000117420632727379
"57" 0.000346186966452931 0.000174358053587567 0.00240718805812376 -0.000325018819191582 0.000632441522240259 7.2293024099308e-05 0.00100309757294256 -1.30904403111635e-05 -0.000388520991505284 -0.000147184439741231 -0.000388065295734336 -0.000817838132884411 -0.000174010345375119 -0.000416082334165407 -0.000190509679405439 -0.000109207030237003
"58" 0.000388900753667187 0.000199705685990166 0.00252650678540791 -0.000307727756524741 0.000657992694641117 7.7058470913568e-05 0.00103752810337295 1.85855587869268e-06 -0.000401862274840255 -0.000155629277511547 -0.000389368333552447 -0.000827486848571106 -0.000166226411119503 -0.000427957731288481 -0.000195345433188186 -0.000100530885629709
"59" 0.00043178241101306 0.000226109559136855 0.00264199001030639 -0.000288299224785258 0.000682465140928722 8.29171546508866e-05 0.00107075293469443 1.81305398441151e-05 -0.000413660231631614 -0.000162557128458454 -0.000389377647959482 -0.000835408024642235 -0.000157489220752942 -0.000438786486634205 -0.000199143012146533 -9.13862340791628e-05
"60" 0.000474636599377892 0.000253409239127211 0.00275289224349479 -0.000266869652988419 0.000705753440994723 8.9843400942376e-05 0.00110258759249905 3.56431241319185e-05 -0.000423971427422752 -0.000168002080772123 -0.000388142842270165 -0.000841589542141493 -0.000147852058831211 -0.000448599992951089 -0.000201945674368646 -8.1762489910205e-05
"61" 0.000517261673435188 0.00028143221908608 0.00285849645449028 -0.000243593425294833 0.000727754984127729 9.78097309312591e-05 0.00113286659386393 5.43006012979463e-05 -0.000432851578861166 -0.000171999108388385 -0.00038572252561404 -0.000846020824750646 -0.000137381334037191 -0.000457429640674575 -0.000203799688312289 -7.16589469976021e-05
"62" 0.00055946501242676 0.000310004261190234 0.00295811379023651 -0.000218632817639195 0.000748386920027846 0.000106779935377399 0.00116143790724974 7.40162697453654e-05 -0.000440380485414983 -0.000174598660774883 -0.000382186577222339 -0.000848708119881552 -0.00012614881285642 -0.000465329670761395 -0.000204769499894405 -6.10778885059425e-05
"63" 0.000601042016182643 0.000338928890581895 0.00305109044610766 -0.000192165792919143 0.000767564195758623 0.000116716121197756 0.0011881630942629 9.46805592022043e-05 -0.000446627374443551 -0.000175852301056936 -0.000377610173972206 -0.00084965843910977 -0.000114224556306184 -0.000472342654120745 -0.000204915021143116 -5.00177902767383e-05
"64" 0.000641808789828671 0.000368025139266844 0.00313682564296135 -0.000164378288110633 0.000785225372399392 0.000127570284201225 0.00121292322554293 0.000116193458715759 -0.000451680582312809 -0.000175822000952683 -0.000372070298961211 -0.000848891455166642 -0.000101687539560915 -0.000478527826686264 -0.000204303290253711 -3.84945261460061e-05
"65" 0.000681569781911755 0.000397096980658934 0.00321477145893354 -0.000135463414825393 0.00080131772575395 0.000139292492978729 0.00123561432483571 0.000138446741963933 -0.000455631386241197 -0.0001745747241368 -0.0003656535043357 -0.00084643457710819 -8.8617135409652e-05 -0.000483946699349799 -0.000203008932963865 -2.65130895767752e-05
"66" 0.000720145327749344 0.000425950995129776 0.00328444394612811 -0.00010562108511172 0.00081579838308003 0.000151825411408067 0.00125615802686516 0.000161327650027396 -0.000458574189650432 -0.000172181877606714 -0.000358447185920104 -0.000842321343085935 -7.50961454639001e-05 -0.000488663118298493 -0.0002011049618788 -1.40967120603104e-05
"67" 0.000757361494350324 0.000454392457165135 0.00334543734838611 -7.50598280209684e-05 0.000828640606664448 0.000165107876627266 0.00127448680173316 0.000184721402564535 -0.000460603159821613 -0.000168716721302574 -0.000350545518892072 -0.000836596222450818 -6.12076946528647e-05 -0.000492740380237851 -0.000198672192583399 -1.26769486791922e-06
"68" 0.000793053013354002 0.000482234158953964 0.00339741419932389 -4.39865911283367e-05 0.000839832887051138 0.000179075389950907 0.00129056495241451 0.000208517232400207 -0.000461812135912128 -0.000164260538530132 -0.00034204358336901 -0.00082930735338141 -4.70311412859165e-05 -0.000496241259181744 -0.000195788402640481 1.19445690475714e-05
"69" 0.000827065893579279 0.000509287872335804 0.00344013445492906 -1.2612648531602e-05 0.000849376463410493 0.000193657060098233 0.00130437011268978 0.000232597459714416 -0.000462305646820895 -0.000158894591039066 -0.000333037100350562 -0.000820511603365129 -3.26529597015434e-05 -0.000499238824103021 -0.000192530847628705 2.55032047824275e-05
"70" 0.000859266621213737 0.000535374545597841 0.00347342844896332 1.88462301944975e-05 0.000857280096210992 0.000208780445675385 0.00131590199460732 0.000256846727869984 -0.000462171197392462 -0.000152700415335542 -0.000323623024486232 -0.00081027558348358 -1.81532995795599e-05 -0.00050179487827355 -0.00018898187295096 3.93698810377467e-05
"71" 0.000889522707209975 0.000560324797826043 0.00349723182903899 5.01805595200571e-05 0.000863573191497902 0.000224367543560808 0.00132517980981326 0.000281156159931164 -0.000461506369463923 -0.000145764905694714 -0.000313898578802084 -0.000798667531681366 -3.61463517215064e-06 -0.000503972498995164 -0.000185218300660039 5.34887537579674e-05
"72" 0.000917724729754578 0.000583975098006073 0.0035115593760575 8.11813994190302e-05 0.000868294795511901 0.000240337672607248 0.00133224178086398 0.000305414028912934 -0.0004603958543779 -0.000138169344917019 -0.000303964138576814 -0.00078576270130981 1.08861905979292e-05 -0.000505830879904077 -0.000181313724872286 6.78109335966622e-05
"73" 0.000943777042257396 0.00060617334449002 0.00351652117788491 0.00011164345760232 0.000871495856359466 0.000256606771188186 0.00133714915718289 0.000329507625477742 -0.000458921503300614 -0.00013000118308209 -0.000293908175702935 -0.00077164482404588 2.52786618982525e-05 -0.000507428493195659 -0.000177344760526408 8.2269783287468e-05
"74" 0.000967604721319055 0.000626776314311565 0.00351231071768815 0.000141368177472197 0.000873231466087892 0.000273092892437845 0.00133997453394246 0.000353332265000601 -0.0004571609960418 -0.000121340279211098 -0.000283823358940378 -0.000756400234240868 3.94863549188521e-05 -0.000508812273940809 -0.000173376381969934 9.68012826311301e-05
"75" 0.000989144368601534 0.00064566813727568 0.00349920786394227 0.000170165125215361 0.000873580402752273 0.000289702551071412 0.00134080493785431 0.000376785822592014 -0.000455184801340732 -0.000112269720240516 -0.000273803797476048 -0.000740120193396784 5.34462611270331e-05 -0.000510032327333199 -0.00016948003625521 0.000111327142357485
"76" 0.00100835556275005 0.000662729638207781 0.00347757027071941 0.000197855214521468 0.000872617279782573 0.00030634736472992 0.00133974434849888 0.00039977243280436 -0.000453048591537642 -0.000102868522723576 -0.000263928809374829 -0.000722899414394107 6.7098045203189e-05 -0.000511121571803737 -0.000165712387142194 0.00012576106677719
"77" 0.00102520919974331 0.000677863284979436 0.00344782298762717 0.000224259646439913 0.000870432605085599 0.000322938914421028 0.00133690969965421 0.000422192225600853 -0.000450809266860179 -9.32152744262901e-05 -0.000254279656052902 -0.000704837096304843 8.03810376872905e-05 -0.000512118553460326 -0.000162130173870559 0.000140024951482406
"78" 0.00103969850986961 0.000690992075746623 0.00341045815678262 0.000249224504984595 0.000867120610607026 0.00033937937279376 0.00133242240033433 0.000443956423606271 -0.00044850676316174 -8.33824160922307e-05 -0.000244931503343987 -0.000686037057171175 9.32475661336672e-05 -0.000513048237369462 -0.000158783431511817 0.000154019224366516
"79" 0.0010518333166064 0.000702052534537517 0.00336602661373039 0.000272599503425661 0.000862779921847897 0.000355578940729208 0.00132641720411533 0.000464981337646147 -0.000446175818029487 -7.34418420087996e-05 -0.000235952534119147 -0.000666600560077669 0.000105651830449295 -0.000513922185783045 -0.000155716588301471 0.00016764473229079
"80" 0.00106163992492661 0.000710991006487427 0.00331512203992277 0.000294250550104761 0.000857511203699552 0.000371445616359052 0.00131902706865532 0.000485184999966523 -0.000443845761301958 -6.34638126675058e-05 -0.00022740789952634 -0.000646636462471078 0.000117555481831318 -0.000514759737218684 -0.000152966061156595 0.000180799859270519
"81" 0.00106915800800126 0.000717783138904464 0.00325837680312591 0.000314061896591536 0.00085142547194433 0.000386881652454731 0.00131039532554408 0.0005044912097956 -0.000441526481875599 -5.35068852482823e-05 -0.000219350141854124 -0.000626249504371711 0.000128926007508295 -0.000515554206636378 -0.000150565198174631 0.000193378741622381
"82" 0.00107444943172119 0.000722406387119082 0.00319645878998996 0.000331928636371082 0.000844627461247002 0.000401798825094611 0.00130066102030622 0.000522830246949692 -0.000439225102209321 -4.36371665714191e-05 -0.000211831200445465 -0.000605547358064564 0.000139737252841271 -0.000516308110605726 -0.000148537847905158 0.000205268487243171
"83" 0.0010775819965292 0.000724867772782501 0.00313004669011567 0.00034776553408137 0.000837222059150369 0.000416102311224774 0.00128996716145416 0.00054013753161759 -0.000436942470218245 -3.39090620527612e-05 -0.000204896623071135 -0.000584637882488332 0.000149968041019648 -0.000517005778599814 -0.000146903965525958 0.000216359323526745
"84" 0.00107864140358905 0.000725180131904694 0.00305983772733015 0.00036150515219332 0.000829316505480867 0.000429706520492247 0.00127844646443447 0.000556353924335575 -0.000434665188496622 -2.43773301756651e-05 -0.000198577828775329 -0.000563627155010307 0.000159602475073727 -0.000517630993819257 -0.000145673906101487 0.000226536296107816
"85" 0.00107772111907742 0.00072337725186309 0.00298653122379672 0.000373097005019426 0.000821016004406197 0.000442522423124082 0.00126623474695316 0.000571422218252177 -0.000432378552028434 -1.50895251273226e-05 -0.0001929066481135 -0.000542618991465262 0.000168636979356901 -0.000518156126726827 -0.000144852625021631 0.000235681892630164
"86" 0.00107493084761863 0.000719506180707971 0.00291081743871932 0.00038250822712393 0.000812418348946337 0.000454466734543688 0.001253452188977 0.000585296138478999 -0.000430061692469956 -6.09382809643042e-06 -0.000187902978213521 -0.000521718119202925 0.000177067067707013 -0.000518557648699523 -0.000144444878987733 0.000243684377822879
"87" 0.0010703791561464 0.000713619026931114 0.00283337441146821 0.000389724766477302 0.000803618301868961 0.000465461688879653 0.00124022109273045 0.000597928862512608 -0.000427679338351416 2.56900653716373e-06 -0.000183581975686163 -0.000501019562038385 0.000184895883993716 -0.000518793337221071 -0.000144441615138203 0.000250434008816235
"88" 0.00106419058126852 0.000705797749664923 0.00275486739825554 0.000394745854893176 0.000794705841811652 0.000475426954118439 0.00122664500973087 0.000609284456212912 -0.000425204724446963 1.08576850692246e-05 -0.000179953568175585 -0.000480623303003771 0.00019213384320669 -0.000518825886552927 -0.000144835243949969 0.000255816631998644
"89" 0.0010564902377726 0.000696119611088839 0.00267592824274332 0.000397599553371941 0.00078576335937693 0.000484294264330439 0.00121282160987912 0.000619326789674298 -0.000422600303244933 1.87376971876541e-05 -0.000177017509781244 -0.000460619089514261 0.00019879351330162 -0.000518620858379524 -0.000145607414099177 0.000259731699152833
"90" 0.00104741034604312 0.000684678405346261 0.00259716455815148 0.000398316704209655 0.000776866953744454 0.000491996915139234 0.00119883347567302 0.000628031150670102 -0.000419826892006767 2.61762043765427e-05 -0.000174770499932152 -0.000441091424052021 0.000204893440218004 -0.000518125589527172 -0.000146737377332534 0.000262076733910918
"91" 0.00103708074121059 0.000671581061073119 0.0025191417836784 0.000396961323119574 0.000768085439563084 0.000498475503572241 0.00118475555850784 0.000635372569450951 -0.000416849821486233 3.31395347151185e-05 -0.000173203630456153 -0.000422123961703713 0.000210455361691563 -0.000517304737539983 -0.000148206805939787 0.000262762172682359
"92" 0.00102563772140841 0.000656931119783994 0.00244240189107516 0.000393600054002001 0.000759476936375106 0.00050367645245893 0.00117064713405415 0.000641333406359903 -0.000413627774724891 3.96037524856016e-05 -0.000172301918153184 -0.000403789357099098 0.000215504178644214 -0.000516111700297991 -0.000149981639837711 0.000261703499108285
"93" 0.00101321381711723 0.000640849105848725 0.00236742443583016 0.000388324326020186 0.00075109820516908 0.000507552533716905 0.00115655413126715 0.000645902526572055 -0.000410132748333019 4.55400848879471e-05 -0.000172041916065642 -0.000386155851870638 0.000220069881547788 -0.000514505463561502 -0.00015204094397563 0.000258827671164878
"94" 0.000999941241941213 0.00062345896178752 0.00229466759718538 0.000381233831464893 0.000742987478264184 0.000510068698297687 0.00114251130868682 0.000649073972505814 -0.00040632580701834 5.09269003638128e-05 -0.000172404307777895 -0.000369286047717509 0.00022418517008759 -0.000512447815090846 -0.00015434694863445 0.000254068945529691
"95" 0.000985947915755395 0.00060488580309729 0.00222453019450857 0.000372445773418412 0.000735180792069546 0.000511192603220433 0.00112853852792486 0.000650845448428212 -0.000402186048499147 5.57415918086305e-05 -0.000173356796389682 -0.000353231508449089 0.000227880450528976 -0.000509904839575751 -0.000156868311334012 0.000247375952684133
"96" 0.000971359928599259 0.000585261283292781 0.00215736572725237 0.000362089951050658 0.000727704315044387 0.000510907150481121 0.0011146405666491 0.000651222121135654 -0.000397688426433464 5.99640132565654e-05 -0.000174871340376249 -0.000338037823571953 0.000231193767463799 -0.000506844482985647 -0.000159571389526602 0.000238712887085096
"97" 0.000956297313845566 0.000564716259975478 0.0020934880508183 0.000350304388496621 0.000720577061347377 0.00050919419435073 0.00110082075456832 0.000650212230444459 -0.000392815030541348 6.35797995822485e-05 -0.000176911976262567 -0.000323739834401789 0.000234159057228058 -0.000503240594538613 -0.000162423449342569 0.000228053859049939
"98" 0.00094087222551397 0.000543386912472391 0.00203315787669844 0.00033723905872227 0.00071380925295306 0.000506055987374588 0.00108706117502687 0.000647834354115435 -0.00038756244707215 6.65709691525239e-05 -0.000179442684043789 -0.00031036920367277 0.000236814009720885 -0.000499075234988475 -0.000165386802955127 0.00021538809382507
"99" 0.000925197437495753 0.000521403362882474 0.0019765922549143 0.000323052960201559 0.00070740062689923 0.000501498513792739 0.00107333617339224 0.00064410847560098 -0.000381925900557784 6.89228089905676e-05 -0.000182423685657127 -0.00029794199538328 0.000239198574331213 -0.00049433900081756 -0.000168429778216898 0.000200725890520455
"100" 0.000909369010489643 0.000498900457853025 0.00192396196402254 0.000307910541141251 0.000701348607323142 0.000495539108831429 0.00105961464616659 0.000639059194956136 -0.000375912253284438 7.06263495547639e-05 -0.000185814324745256 -0.000286471147866465 0.000241347505942916 -0.000489025300708383 -0.000171517298157854 0.0001840862001023
"101" 0.00089348129678628 0.000476004660167456 0.00187539235835368 0.000291985131452459 0.000695642153193834 0.000488207786730592 0.00104585350651873 0.000632722042105545 -0.000369537077134229 7.16693691880728e-05 -0.000189573242367136 -0.000275956082501301 0.000243295324595404 -0.000483133889013294 -0.000174621812548097 0.000165510838265132
"102" 0.00087762077184425 0.000452846879286843 0.00183096366105328 0.000275448833934907 0.000690261774156869 0.000479539578145961 0.00103200948757537 0.000625133218593969 -0.000362819442242746 7.2047203246525e-05 -0.000193658032163276 -0.000266389158387206 0.000245084194247159 -0.000476676363779062 -0.00017770561225127 0.000145051747082548
"103" 0.000861866057461931 0.000429550676440015 0.00179071941808567 0.000258480818409566 0.000685185777642052 0.000469581930504764 0.00101802508845164 0.000616339455112642 -0.000355790840346094 7.17537105416172e-05 -0.000198026697070689 -0.000257755221224325 0.000246743423347322 -0.000469672350984552 -0.000180745784420364 0.000122784857992601
"104" 0.00084628042350102 0.000406239234183285 0.00175465447157256 0.000241259814271222 0.000680388372424294 0.000458397192031347 0.00100384905918971 0.00060638884681097 -0.000348486596942784 7.0787751157952e-05 -0.000202631279979789 -0.000250027491980244 0.000248308356382987 -0.000462141835010091 -0.000183713851891278 9.87980716938947e-05
"105" 0.000830930152292794 0.000383020643001273 0.00172273656168085 0.000223964172314325 0.000675840155618655 0.000446047988522286 0.000989422345387632 0.000595335970970104 -0.000340948327212336 6.91511552358137e-05 -0.000207431872111002 -0.000243173673712971 0.000249812603485154 -0.000454119342011988 -0.000186582818740455 7.31962384670684e-05
"106" 0.0008158622220879 0.000360012036926869 0.00169488457475246 0.000206769821578544 0.000671505245725928 0.000432615136676471 0.000974691125616271 0.000583242563782036 -0.000333223640045734 6.68492014888482e-05 -0.000212381272729676 -0.000237149932147778 0.00025128644810213 -0.000445638943938912 -0.000189334103717913 4.60986046967837e-05
"107" 0.000801125377168479 0.000337309733084981 0.00167099355771818 0.00018985025257061 0.000667350924403779 0.000418183546374638 0.000959594557980486 0.000570173602711269 -0.000325365438880859 6.38933165303105e-05 -0.000217435437554702 -0.00023190585359663 0.000252759861195701 -0.000436743022736868 -0.000191941614800049 1.76400091362178e-05
"108" 0.000786754226044887 0.000315019531345606 0.00165092824537773 0.000173374860531039 0.000663338334831616 0.000402846752989249 0.000944082112060765 0.000556203755515372 -0.000317427231320906 6.02961882879635e-05 -0.000222549256254014 -0.000227389249794586 0.000254258142859153 -0.00042748084744333 -0.000194389802145847 -1.20330732011595e-05
"109" 0.000772783167668706 0.000293229488090663 0.0016345126766483 0.00015750914637419 0.00065943793216888 0.000386709688240155 0.000928110521995464 0.000541406009166699 -0.000309466797822491 5.6074072585901e-05 -0.000227678853867009 -0.000223532070752984 0.000255810032644497 -0.000417903757651607 -0.000196661029930195 -4.27603339304802e-05
"110" 0.000759229446853917 0.000272027972550024 0.00162156327535692 0.000142405463113356 0.000655611320750246 0.000369881002150807 0.000911631477639984 0.000525864903005317 -0.000301542063325865 5.12558447678573e-05 -0.000232777799308132 -0.000220265233499533 0.000257437651066799 -0.000408059693620815 -0.000198739452282505 -7.43725344686169e-05
"111" 0.000746113496604484 0.00025149145967773 0.00161186092873192 0.000128216091008998 0.000651826008014229 0.00035247564137631 0.000894618679524554 0.000509666627579409 -0.000293710032378974 4.58677628241565e-05 -0.000237799813413393 -0.000217515809424333 0.000259164077778033 -0.000398008623187404 -0.000200610835195445 -0.000106693811921843
"112" 0.000733450032505638 0.000231696429101367 0.00160517070987544 0.000115077947844236 0.000648052478096012 0.00033461773602017 0.000877042626421781 0.000492904406183693 -0.000286026447718954 3.99457145038018e-05 -0.000242701026569299 -0.000215203726586089 0.000261013144491664 -0.000387803316361206 -0.000202264819047053 -0.00013953306950813
"113" 0.000721249509139916 0.000212706263349003 0.00160124432722745 0.000103123160728947 0.000644261430207564 0.000316432426755047 0.000858896635655952 0.000475673688388444 -0.000278544139375626 3.35313773748265e-05 -0.000247435877595433 -0.000213243177782502 0.000263004173402148 -0.000377503083434226 -0.000203686896283731 -0.000172704298480269
"114" 0.000709510641203161 0.000194584355433396 0.00159981931308531 9.24704506290592e-05 0.00064043506040153 0.000298052455487971 0.00084017633866105 0.000458075622086125 -0.000271311816605869 2.66738500205963e-05 -0.000251956981187633 -0.000211550568930538 0.000265154119545807 -0.00036716160286088 -0.000204872668524723 -0.000206006839237354
"115" 0.000698240727189474 0.000177387907256574 0.00160062683246368 8.32307083970019e-05 0.000636550324430791 0.000279611142711648 0.000820897604334807 0.000440216580184785 -0.000264373984177722 1.94266830533821e-05 -0.000256220971859108 -0.000210036096288193 0.000267485408312756 -0.000356830274696128 -0.000205808710377522 -0.000239250545245308
"116" 0.000687440290485348 0.000161165496173353 0.001603393579132 7.55000064565022e-05 0.000632600491397666 0.000261245532052479 0.000801087091506004 0.000422207662286561 -0.000257768415515575 1.18510886351166e-05 -0.000260178730171455 -0.000208609405029665 0.000270013553744254 -0.000346561224726356 -0.000206488079193912 -0.000272235347320694
"117" 0.000677111439995816 0.000145964494088326 0.00160783822406834 6.93661260961354e-05 0.000628577190725205 0.000243092303165761 0.000780787052068886 0.000404160721588615 -0.000251524836711659 4.01491507654103e-06 -0.000263784978335721 -0.000207179614308783 0.000272755827381424 -0.000336401323957037 -0.000206902374114602 -0.000304767515221967
"118" 0.000667252737789126 0.000131830647705154 0.00161368712710075 6.49042522797907e-05 0.000624481526310588 0.000225295674511523 0.00076005935395832 0.000386196830933669 -0.000245670462871074 -4.00965620252161e-06 -0.000266991095743828 -0.000205655454032357 0.000275727705252701 -0.000326397094530637 -0.000207047746366061 -0.000336656139881957
"119" 0.000657869649224151 0.000118801311967477 0.00162067410896918 6.21737685056361e-05 0.00062032438457145 0.000207988601266932 0.000738977002396499 0.000368434855175544 -0.000240219975504758 -1.21419608841273e-05 -0.000269752776672641 -0.000203950329169878 0.000278948892590632 -0.000316581335655451 -0.000206911774760603 -0.00036771359159273
"120" 0.000648967276328323 0.000106914849034842 0.00162854060346232 6.12283857536316e-05 0.000616120303338308 0.000191311192403867 0.000717635254518351 0.000351000924213199 -0.000235180927693425 -2.02960377391097e-05 -0.000272019958882728 -0.000201975334950402 0.000282435989943839 -0.000306992918285303 -0.000206493217254148 -0.000397764580316449
"121" 0.000640553563588484 9.62046831386523e-05 0.00163703447817308 6.21072698172913e-05 0.000611893718830335 0.000175400019786848 0.000696140095042877 0.00033402223237347 -0.000230556924929431 -2.83821595605203e-05 -0.000273751202270532 -0.000199644008432897 0.000286204791033178 -0.000297664900142321 -0.000205781776217551 -0.000426633636047027
"122" 0.000632638419103978 8.67072827162452e-05 0.00164592682645677 6.48342000123723e-05 0.000607670064262796 0.000160385727625137 0.000674621789261347 0.000317633837918139 -0.000226338255493567 -3.63056911023156e-05 -0.000274896664814411 -0.000196877987846142 0.000290269133082863 -0.000288617439481766 -0.00020477262514392 -0.000454163657852481
"123" 0.000625243359325428 7.84550570535845e-05 0.0016550013311776 6.94264062519247e-05 0.000603494065629673 0.000146397025877969 0.000653216189316212 0.000301962390400798 -0.000222510511240425 -4.3964781704621e-05 -0.000275413859904494 -0.000193599147080858 0.0002946494969397 -0.00027987307094573 -0.00020345833991533 -0.000480202394379244
"124" 0.00061838246880475 7.14803251286329e-05 0.00166406346241691 7.58898142699239e-05 0.000599410317330068 0.000133561584182615 0.000632085780343415 0.000287143911119533 -0.000219048837331458 -5.12596185523675e-05 -0.00027525820456781 -0.00018973510176271 0.000299363596211838 -0.000271449301239274 -0.000201832367154928 -0.0005046092797116
"125" 0.00061208891549976 6.58168433672423e-05 0.00167294492079979 8.42163601626715e-05 0.000595465914116583 0.00012199522646496 0.000611396221844017 0.000273312509419577 -0.000215925203467272 -5.80834610076692e-05 -0.000274389240833971 -0.000185218839515229 0.000304425392048402 -0.000263355652303968 -0.000199888644975113 -0.000527260193682011
"126" 0.000606388556889015 6.1500180699327e-05 0.00168149387910364 9.43903200103353e-05 0.000591725065908629 0.000111812628174067 0.000591336390772018 0.000260604421041459 -0.000213106575413478 -6.43308895112178e-05 -0.000272763265323476 -0.000179990893071975 0.000309853513691573 -0.000255602206379175 -0.000197621900771444 -0.000548036725992994
"127" 0.000601324230157136 5.85572622692261e-05 0.00168958784590821 0.000106382699692705 0.00058824988311465 0.000103118314096574 0.000572096905772361 0.000249150399013946 -0.000210541115709733 -6.98935416443047e-05 -0.000270344670901129 -0.000173994784453194 0.000315666652374234 -0.000248185363018333 -0.00019502192721535 -0.000566843407989359
"128" 0.000596936477400559 5.70318539056826e-05 0.00169713584237366 0.000120160126111741 0.000585110027898609 9.60115800438741e-05 0.000553883143070878 0.000239081865146271 -0.000208187993428416 -7.46648567836267e-05 -0.000267096060245468 -0.000167184570366015 0.000321877682852982 -0.00024110790513045 -0.000192086169127835 -0.000583587700631205
"129" 0.000593272954359852 5.69529904249943e-05 0.00170406243848742 0.000135674880514214 0.000582380275921181 9.05818925348083e-05 0.000536905217368327 0.000230526771907997 -0.00020599087185334 -7.8540629498254e-05 -0.000262985016815227 -0.000159520422406482 0.000328503379601518 -0.000234366364195668 -0.000188804365631428 -0.000598197887813224
"130" 0.000590389731753279 5.83580380269766e-05 0.00171032388772887 0.000152870299613859 0.000580135428430577 8.69117396681498e-05 0.00052137919083957 0.000223609113409323 -0.000203897334405844 -8.14198193041015e-05 -0.000257981275094011 -0.00015096880849949 0.000335563667922712 -0.000227950782701459 -0.000185170426020709 -0.000610615537879829
"131" 0.000588336192651261 6.12869826000529e-05 0.0017158993828787 0.000171685602890893 0.000578452569509864 8.50694577256355e-05 0.00050752296471414 0.000218444801527542 -0.000201843605430563 -8.32002940550786e-05 -0.000252062297993901 -0.000141505790405423 0.000343066733567114 -0.000221852644186025 -0.000181181934617086 -0.000620790297972384
"132" 0.000587175899058824 6.57688817236421e-05 0.00172079526093394 0.000192052260466052 0.000577413181954572 8.51158063400026e-05 0.000495556025433167 0.000215143850567569 -0.000199771708136496 -8.37897350518412e-05 -0.000245201875949621 -0.000131112155722966 0.000351029290786816 -0.000216056049159304 -0.000176829084226835 -0.000628689152531533
"133" 0.000586972137008908 7.18450921810526e-05 0.00172503578331823 0.000213887779448838 0.000577092423067257 8.70995857395701e-05 0.000485692417815046 0.000213812947577762 -0.00019761590802242 -8.3100320636656e-05 -0.000237384847726244 -0.000119784239264138 0.000359460836379283 -0.000210545628191652 -0.00017210714725747 -0.000634293044681543
"134" 0.000587785501155085 7.95476103175735e-05 0.00172866768520608 0.000237113108587894 0.000577571695133979 9.10598344534816e-05 0.000478139654662073 0.000214543249752128 -0.000195317592369037 -8.10522692734819e-05 -0.000228600944155564 -0.000107515418856197 0.00036837179105717 -0.000205309793280972 -0.000167011877876956 -0.000637589555928092
"135" 0.000589681859551836 8.89066016210537e-05 0.00173175975629166 0.000261632183644376 0.000578920011980925 9.70245064927729e-05 0.000473100571588798 0.000217415915165225 -0.000192812291666007 -7.75732818177546e-05 -0.000218840529710207 -9.43165573307627e-05 0.000377766685526402 -0.000200327289243008 -0.00016153996533573 -0.00063858533568743
"136" 0.000592719020380616 9.99518824438774e-05 0.00173438872832248 0.000287355155327886 0.000581211194471019 0.000105001845930467 0.000470762620070644 0.000222501627505894 -0.00019003991679401 -7.26012042960029e-05 -0.00020810391917973 -8.02006780869707e-05 0.00038765106180843 -0.000195581254258207 -0.000155686121557437 -0.000637289978166473
"137" 0.000596964549889982 0.000112711040843385 0.00173664938303001 0.000314176254801196 0.000584508828625163 0.000114996025118397 0.00047130662380582 0.000229858536365661 -0.000186941666166389 -6.60798913526599e-05 -0.000196390236171925 -6.51913154562327e-05 0.000398031123013316 -0.000191048906707915 -0.00014945130947547 -0.000633733352962095
"138" 0.000602470687456953 0.000127200124103403 0.00173864119525392 0.000341992801015309 0.000588869305915429 0.000126994551625091 0.00047488660828939 0.000239526205340594 -0.000183461623987816 -5.79712393448245e-05 -0.000183714117743518 -4.93182491113544e-05 0.000408897842808838 -0.000186711398009577 -0.000142830887425119 -0.000627944574679659
"139" 0.000609289976487376 0.000143437415999471 0.00174048052394267 0.000370694646983733 0.000594343334031067 0.000140971412044364 0.000481642121593477 0.000251530544820164 -0.00017954851589948 -4.82401128402688e-05 -0.000170088697839449 -3.26182096186968e-05 0.000420248733580183 -0.000182552169442607 -0.000135826379307034 -0.000619967767766344
"140" 0.000617476700435827 0.000161428929527085 0.00174227765332086 0.000400171622677342 0.000600974066684164 0.000156890121839755 0.000491693152271516 0.000265887434611564 -0.000175151731493925 -3.68696959209693e-05 -0.000155534082282652 -1.51346898589313e-05 0.000432079978043963 -0.000178544597914548 -0.00012843919684191 -0.000609859246666113
"141" 0.000627061925082891 0.00018117845849122 0.00174414803659803 0.000430308077829818 0.000608790740525069 0.000174696835394986 0.000505135396241339 0.000282584340788826 -0.000170229738298974 -2.38550088588369e-05 -0.000140077085375157 3.08352498046955e-06 0.00044437192533818 -0.000174671382821497 -0.000120672412605247 -0.000597677550735833
"142" 0.000638081385512648 0.000202677148442567 0.00174620734798295 0.000460992212158497 0.000617815965538663 0.00019432977785283 0.000522035776631228 0.00030159946302246 -0.000164740846611696 -9.19908524152692e-06 -0.000123750520213913 2.19807779207743e-05 0.000457113991760381 -0.000170913393470826 -0.000112532374355942 -0.000583491761824848
"143" 0.000650564558184564 0.000225910247833232 0.00174856168633888 0.000492106571592522 0.000628065168813746 0.000215713692953244 0.000542434752129197 0.000322890507005989 -0.000158654476829229 7.07741491360226e-06 -0.000106593267422614 4.1497415486042e-05 0.000470287759792764 -0.000167252105860249 -0.000104019465470781 -0.000567375737713479
"144" 0.000664521648854048 0.000250852362335351 0.00175131863780983 0.000523533341113857 0.000639530604487873 0.000238758879227624 0.000566347444585526 0.000346396633638836 -0.000151940916022457 2.49411302473076e-05 -8.86458909655437e-05 6.15691047961169e-05 0.000483867848508548 -0.000163663705054718 -9.51489410850759e-05 -0.000549414406995587
"145" 0.000679959034023925 0.000277467176748661 0.00175456673914897 0.000555165075674917 0.000652206362966024 0.000263366984175793 0.000593756852230876 0.000372036497181885 -0.000144576481484114 4.43512594555597e-05 -6.99560795862584e-05 8.21255331756468e-05 0.000497830235081363 -0.000160132979363943 -8.5927662277201e-05 -0.000529698634795101
"146" 0.000696871924411186 0.000305711397093468 0.00175839082947639 0.000586883296050639 0.000666065491758986 0.000289427712927117 0.000624616150118064 0.000399713789246093 -0.000136547419084962 6.52498021479077e-05 -5.05780046476513e-05 0.000103098212625277 0.000512142086625507 -0.000156640059437748 -7.6370232758223e-05 -0.000508322354394311
"147" 0.000715246333216732 0.000335530754541969 0.00176286248386555 0.000618582548286366 0.000681072241295717 0.000316821134525222 0.000658847137161722 0.000429314354235855 -0.000127840266350256 8.7567104733349e-05 -3.05675494378779e-05 0.000124410438160688 0.000526775303777937 -0.000153167720380286 -6.64887560661208e-05 -0.000485389823758667
"148" 0.000735050554908184 0.000366848256930401 0.00176803441261344 0.000650154618066485 0.00069718025502341 0.000345419346228044 0.000696340135795665 0.000460704597153488 -0.000118452087980699 0.000111227096758567 -9.98258132650828e-06 0.000145987094210658 0.000541691156508311 -0.000149701948535893 -5.63032353690865e-05 -0.000461007429242601
"149" 0.000756248692643539 0.000399592984632112 0.00177395007803303 0.000681498206535075 0.000714331149887785 0.000375085480119523 0.000736955676119827 0.000493737777495914 -0.000108382388766528 0.000136136963644887 1.1114535191121e-05 0.00016775139547964 0.000556855484872048 -0.000146222184522291 -4.58302743623499e-05 -0.00043529221887233
"150" 0.000778788597288944 0.000433671209995652 0.00178063012151046 0.000712518086048332 0.000732453861690385 0.000405675738270615 0.000780517990843422 0.000528245088871095 -9.76382795927685e-05 0.000162197193868501 3.2655161991822e-05 0.000189625311038252 0.00057222532362119 -0.000142717265979505 -3.50927445319458e-05 -0.000408357854994135
"151" 0.000802607403266977 0.000468977523773185 0.00178808830652639 0.000743125313667422 0.000751470429985178 0.000437041156160615 0.000826829628676866 0.000564050457542037 -8.62366689593303e-05 0.000189300062622437 5.45711375683087e-05 0.00021153239719487 0.000587759536061603 -0.000139170415921638 -2.41168330248165e-05 -0.000380333611808131
"152" 0.000827630339673316 0.000505398868991823 0.00179631086771253 0.000773233702969306 0.000771286492805225 0.000469030937392856 0.000875663335811945 0.000600958966629381 -7.41886563093081e-05 0.000217331711131355 7.67951186953463e-05 0.000233392866189014 0.000603417107671335 -0.000135568510762611 -1.29260913246343e-05 -0.000351343749521924
"153" 0.000853776702303699 0.000542814045229356 0.00180527532342873 0.000802768873535226 0.000791807079119393 0.00050148267121089 0.000926756161464331 0.000638768458914296 -6.15264928684515e-05 0.000246163111340777 9.92540802466883e-05 0.000255134599158944 0.000619154321819135 -0.00013190692113055 -1.55289437148043e-06 -0.00032152455412452
"154" 0.000880945782781542 0.000581076389037528 0.00181493417357055 0.000831661724557557 0.000812922224274966 0.000534240069611405 0.000979826609405771 0.000677261964004166 -4.82781802903102e-05 0.000275666156724085 0.000121877596041757 0.000276681707531377 0.000634923512929531 -0.000128170695571285 9.97326546760863e-06 -0.000291009729826054
"155" 0.000909031498776024 0.00062004464057168 0.00182523188151899 0.000859852981827629 0.00083452102483596 0.000567142862009542 0.00103456593269722 0.000716212278933723 -3.44792029834287e-05 0.000305708898858101 0.000144592671350861 0.000297962069365645 0.000650680665843002 -0.000124354646082334 2.16193766897571e-05 -0.000259935972952285
"156" 0.000937917876548116 0.000659560906806415 0.00183608946025521 0.000887288540241894 0.000856476755705871 0.00060003235941592 0.00109064357165936 0.000755390506174636 -2.01714741990409e-05 0.000336150626585944 0.000167328507159555 0.000318908326885408 0.000666379816917299 -0.000120450967841851 3.33483402339491e-05 -0.000228450098191505
"157" 0.000967476035673402 0.000699451571999206 0.00184741749444689 0.000913927518422332 0.000878670077124436 0.000632748178241819 0.00114771315503255 0.000794556711102019 -5.40337901054172e-06 0.000366848698508247 0.000190010693042361 0.000339454695915746 0.000681976896230397 -0.000116461634825118 4.51228892876051e-05 -0.00019668979407058
"158" 0.000997569703870062 0.000739546681595729 0.00185910704320594 0.000939737044234414 0.00090097028822403 0.000665138661414284 0.00120540682948878 0.000833467551768045 9.77270592270249e-06 0.000397661925576957 0.000212570055527218 0.000359538395130166 0.000697428490225657 -0.000112382063381757 5.69032896902107e-05 -0.000164799462711288
"159" 0.00102805669985915 0.00077965273703882 0.0018710398777509 0.000964690465916182 0.000923242602750013 0.000697052615460213 0.00126334111649448 0.00087188105870207 2.5301072360045e-05 0.000428445374261987 0.000234937573070931 0.000379102345369052 0.000712685939186989 -0.000108217770245739 6.86488558194419e-05 -0.000132925025742213
"160" 0.00105877950493077 0.000819584354326186 0.00188308617326411 0.000988774019822062 0.000945354839612236 0.000728342697813513 0.00132112800198808 0.000909551461919086 4.111661290209e-05 0.000459055579768216 0.000257040906239831 0.000398094141910873 0.000727709367179758 -0.000103974486650811 8.03179215739788e-05 -0.000101201705823501
"161" 0.00108958134459787 0.000859134453517934 0.00189509337385718 0.0010119793440114 0.000967174528304817 0.000758872604834915 0.00137836600642733 0.000946233040973928 5.71535234800726e-05 0.000489351186442697 0.000278818162168201 0.000416461517912557 0.000742457421629541 -9.96569064752069e-05 9.18692080989049e-05 -6.97733297235855e-05
"162" 0.0011202916212882 0.000898104269397821 0.00190691520907153 0.00103431059275574 0.000988564673025297 0.000788509344513616 0.00143465245298075 0.000981687715506317 7.33427627230428e-05 0.000519192516489372 0.000300201867000844 0.000434160793011279 0.000756887322651938 -9.52837019536206e-05 0.000103256495293383 -3.87739385623869e-05
"163" 0.00115074220698759 0.00093628128574981 0.0019183888329603 0.00105577663028809 0.00100939646782937 0.000817132832211899 0.00148958110993602 0.00101568050110348 8.9605974175953e-05 0.000548443868420671 0.000321129001813019 0.000451157495731779 0.000770964441444849 -9.08654189718856e-05 0.000114439568260377 -8.33135048983616e-06
"164" 0.00118075461382168 0.000973453538823296 0.0019293423156593 0.00107639678697771 0.00102954264601488 0.000844625876852594 0.00154274813792252 0.00104798457986486 0.000105868160135206 0.000576975401857715 0.000341544313053051 0.000467410627843263 0.000784648590535217 -8.64210736166461e-05 0.000125375765022501 2.1424853987251e-05
"165" 0.00121014876743244 0.00100941012661867 0.00193960234024142 0.00109619539372311 0.00104888017982896 0.000870886136679712 0.00159375955568827 0.0010783822211143 0.000122045946759685 0.00060465810678392 0.000361384373056569 0.000482896851454424 0.000797907454994531 -8.19729988684992e-05 0.000136019243495158 5.03810031466173e-05
"166" 0.00123874381969118 0.00104393284652817 0.00194898834562078 0.00111520213640894 0.00106728590958204 0.000895821062106093 0.00164222530439658 0.00110666304069069 0.000138058848263959 0.000631378620847964 0.000380599208000484 0.000497589582018811 0.000810703480503306 -7.75400458912081e-05 0.000146331953285282 7.84274011002493e-05
"167" 0.0012663484139825 0.00107681206727475 0.0019573200188853 0.00113345838411448 0.00108465319082861 0.000919347599180763 0.00168777312443053 0.00113263075079893 0.000153827639006739 0.00065702126026595 0.000399139944141394 0.000511472673334746 0.000823010677511261 -7.3154003559227e-05 0.000156272118872707 0.000105465415111459
"168" 0.0012927865087437 0.00110783981378235 0.00196442266206922 0.00115100429605156 0.00110087551975696 0.000941393771392059 0.00173004644103847 0.00115610744539437 0.000169263260573988 0.000681486332965236 0.000416953151442611 0.000524531451353453 0.000834797863074354 -6.88400481340254e-05 0.000165801294642846 0.000131405671714074
"169" 0.00131786966483051 0.00113680897173105 0.0019701074066101 0.00116788881142329 0.0011158524438088 0.000961903397232837 0.00176870758188554 0.00117692294563023 0.000184287173515153 0.000704676267402489 0.000434001614697143 0.000536760344849795 0.000846036658649509 -6.46286973458555e-05 0.000174888835718572 0.00015617042466932
"170" 0.00134141610924172 0.00116352713921917 0.00197420631116893 0.00118415770737986 0.00112950132877197 0.000980824391589532 0.00180344443433729 0.00119493007901899 0.000198817413159729 0.000726510953725131 0.000450243120274419 0.000548156012029962 0.000856706305872804 -6.05455158179535e-05 0.00018349896976345 0.000179692326044314
"171" 0.00136325041278767 0.00118780119101083 0.001976544181796 0.00119986642037987 0.0011417399206129 0.000998124484278148 0.00183396771501779 0.00120999747166662 0.000212777953445682 0.00074691562118771 0.000465638943222769 0.000558722630711051 0.00086678419445602 -5.66266296232119e-05 0.000191606456282953 0.000201922694272493
"172" 0.00138320346101675 0.00120945688751253 0.00197696284241298 0.00121506445838024 0.00115250053400024 0.00101377909441219 0.00186002263338833 0.00122201338611186 0.000226092161841162 0.000765825049046195 0.000480162617265932 0.00056846684741611 0.000876249073621678 -5.28966701343598e-05 0.000199184746691389 0.000222820310560343
"173" 0.00140110771541226 0.00122833036643631 0.0019753032539276 0.00122980667319697 0.00116172411163185 0.00102776952322205 0.00188137812356124 0.00123087994067064 0.000238693932008691 0.000783193886771907 0.000493784274726609 0.000577400314516321 0.000885083284730459 -4.93886287973241e-05 0.000206212744943467 0.000242360156557296
"174" 0.0014168036359844 0.00124426338791169 0.0019714288213003 0.00124414716264275 0.00116936475666694 0.00104010143387423 0.00189784874943898 0.00123652907174879 0.000250519098820478 0.000798977054747836 0.000506480257439268 0.000585539653244896 0.000893273916330345 -4.61277934821445e-05 0.000212675705954984 0.000260530675469726
"175" 0.00143014538440066 0.00125712543853641 0.00196520174346561 0.001258133173389 0.00117538632143353 0.00105077725509306 0.00190927282965732 0.00123890714884712 0.000261513121511283 0.000813152956542888 0.00051823603235845 0.000592907269528844 0.000900805673586419 -4.31380869844227e-05 0.000218563791170612 0.000277335182260311
"176" 0.00144099972241918 0.00126679917994381 0.00195650976555202 0.00127181540134719 0.00117975897491488 0.00105981795360186 0.00191553378452606 0.00123798371588508 0.000271622285496901 0.000825704672900794 0.000529034108739173 0.000599523924520074 0.000907672957591773 -4.04465029610037e-05 0.000223868215411329 0.000292786616714689
"177" 0.00144923833284939 0.00127318555588029 0.0019452470671576 0.00128523757544877 0.0011824699064371 0.00106724825807449 0.00191654997623678 0.00123374848043504 0.000280806795287824 0.000836629192768144 0.000538867959411949 0.000605418255649695 0.000913861923057275 -3.80679326561955e-05 0.000228589142060068 0.000306915835257034
"178" 0.0014547555706202 0.00127620411151617 0.00193132950892735 0.00129843836267606 0.00118351857125649 0.00107310851403855 0.00191227817483622 0.00122621407260458 0.00028903512617754 0.0008459370605362 0.000547731361996861 0.00061062115848707 0.000919370933418586 -3.60195604758581e-05 0.000232731505734368 0.000319767610967144
"179" 0.00145745249750908 0.00127579776571735 0.00191469627406405 0.00131145477569328 0.00118290873163369 0.00107743801761519 0.00190271547016878 0.0012154116978978 0.000296283354705236 0.000853650261865434 0.000555625188144615 0.000615161808354169 0.000924197089712175 -3.43133785033797e-05 0.000236303974585104 0.000331387772356365
"180" 0.00145725346599143 0.00127193652035149 0.00189529071578628 0.00132431703071998 0.00118065820854313 0.00108028952594204 0.00188789620425565 0.00120139067697377 0.000302535035330946 0.00085979833397101 0.000562551913774337 0.000619072729790681 0.000928337860306363 -3.29586256317033e-05 0.000239322931948352 0.000341843686300501
"181" 0.00145409871265973 0.00126460309388888 0.00187308831478846 0.00133704796626608 0.00117679658378583 0.00108171935650426 0.00186789444536693 0.00118422659569778 0.00030778487996435 0.000864427206142099 0.000568521375510214 0.000622387616002319 0.000931795820326206 -3.19568507693568e-05 0.000241805078630492 0.00035120488576023
"182" 0.0014479394749492 0.00125381402452555 0.00184807557470631 0.00134966587130412 0.00117135928348501 0.00108179110495005 0.00184281693856928 0.00116400438727584 0.00031203421275851 0.000867589913473241 0.000573546812738536 0.000625139410228765 0.00093457138434801 -3.13084531085361e-05 0.000243776432103655 0.00035955729959137
"183" 0.00143875591343924 0.00123960472462054 0.00182026454960807 0.00136218134499625 0.00116439096113663 0.00108056962598481 0.001812809129704 0.00114083395887026 0.000315296789784373 0.000869350130558117 0.000577638495583965 0.000627360990814601 0.000936673174264552 -3.10112066324332e-05 0.000245264966634321 0.000366981637434923
"184" 0.00142653933961285 0.00122203231696422 0.00178968571131525 0.00137459136174326 0.0011559458585636 0.0010781245760868 0.00177804665815891 0.00111483195777595 0.000317591893227167 0.000869776271381194 0.000580820949329243 0.000629085730645797 0.000938105029957761 -3.10556698153734e-05 0.000246306222188092 0.000373571789075281
"185" 0.00141130392234478 0.00120118053004532 0.00175638720212772 0.00138689922098443 0.00114608864644263 0.00107452950142412 0.00173873509546365 0.00108613777119941 0.000318943764929203 0.00086894852118453 0.000583114355331072 0.00063033920414543 0.000938875597029669 -3.14282659853122e-05 0.000246935720273661 0.000379424234341181
"186" 0.00139308684831331 0.00117715507758853 0.00172043623545979 0.00139909024965396 0.00113488310952971 0.00106985974971657 0.00169510872766446 0.00105490150544421 0.000319394442092157 0.000866949767660105 0.00058454474135823 0.000631154276102152 0.000938994684900112 -3.2115055900749e-05 0.000247192215783449 0.000384635248979238
"187" 0.00137193210304394 0.00115007671503617 0.00168191831179155 0.00141114183503082 0.00112240896450681 0.001064188467267 0.00164742781974018 0.00102127764555156 0.000318978822808911 0.000863871573962235 0.000585134244051096 0.000631550909628248 0.000938475934211931 -3.30993992821751e-05 0.000247117205172784 0.000389304345129679
"188" 0.00134791895013472 0.00112009674639911 0.00164093934573274 0.00142302924195009 0.00110873916128098 0.00105759150435976 0.00159597186378119 0.000985435960590294 0.000317743507547889 0.000859805561539824 0.000584913267607182 0.000631552840529889 0.000937329393735226 -3.43608141772093e-05 0.000246758867944881 0.0003935264394179
"189" 0.00132112693784678 0.00108737959971012 0.00159761192262859 0.00143472094459662 0.00109396135121747 0.001050140286637 0.0015410381450009 0.000947553612937911 0.000315741887589708 0.000854849592557788 0.000583912092588327 0.000631175520963622 0.000935569147429123 -3.58805269344534e-05 0.000246161636405113 0.000397395603238517
"190" 0.00129166695304536 0.00105210227456634 0.00155207437086073 0.00144617142795294 0.00107815763390232 0.00104190635949759 0.00148294302509315 0.000907810189207541 0.000313029385166547 0.000849100122561911 0.000582162963973099 0.000630431787811961 0.000933207809183851 -3.76295991078674e-05 0.000245372850439593 0.000401000663232704
"191" 0.0012596541861687 0.00101446182533185 0.00150446659865441 0.00145733268965487 0.00106142002926734 0.00103296027570579 0.00142200349755833 0.000866389553081391 0.000309659649139049 0.000842653987571774 0.000579691955196437 0.000629331468472833 0.000930259804011391 -3.95892710070372e-05 0.000244440746238708 0.000404427986790482
"192" 0.00122522787019168 0.000974664722515962 0.00145494429111928 0.00146815241002604 0.00104383491165659 0.00102336970072402 0.00135855834535098 0.000823475646116105 0.000305697772984547 0.000835608279994274 0.000576533763658869 0.000627877602367527 0.000926741708368143 -4.17328486402883e-05 0.000243411065625813 0.000407751817919407
"193" 0.00118853265853173 0.000932930904973157 0.00140367482003384 0.00147856962133103 0.00102548777552325 0.00101319306092083 0.0012929360638347 0.000779254692350512 0.00030120261449527 0.000828057381066583 0.000572717790315405 0.000626068404245468 0.000922664735020564 -4.40362315572616e-05 0.000242336926380589 0.000411043220895473
"194" 0.00114972879746736 0.000889487445612093 0.0013508267782573 0.00148851608975639 0.00100647446769103 0.0010024909933884 0.00122547677742264 0.00073390816414398 0.000296233067788234 0.000820091720229696 0.000568275183322273 0.000623899045705541 0.000918046009685423 -4.64765657986769e-05 0.000241256375131276 0.000414367238465725
"195" 0.00110898319260924 0.000844562214143852 0.0012965763935926 0.00149792219411153 0.000986878042313368 0.00099131194844957 0.00115650879003301 0.000687614493688814 0.000290850978552944 0.000811796453079153 0.000563233087440668 0.000621357646738489 0.000912895201925644 -4.90328348535035e-05 0.00024021920485992 0.000417768039832791
"196" 0.0010664698483418 0.000798396267417026 0.00124110361681005 0.00150671412343084 0.00096677800002051 0.000979704430779644 0.00108636099871165 0.000640547821753878 0.000285118439619556 0.000803254935029834 0.000557620432970739 0.000618431225894249 0.000907230566959055 -5.16788738968255e-05 0.000239262688670939 0.000421288134507159
"197" 0.00102237738228446 0.000751222732297924 0.00118459289556004 0.00151481228881506 0.000946261708602085 0.000967710436308377 0.00101535116412733 0.000592875558257374 0.0002790908150377 0.000794540436753393 0.000551463710664673 0.00061509742148745 0.000901060694217651 -5.43997179117019e-05 0.000238426864803171 0.000424958400337032
"198" 0.000976886528058588 0.000703280942880068 0.00112722293245471 0.00152213285145329 0.000925401175903018 0.000955363652325443 0.000943783099782551 0.000544751205753155 0.000272825400835302 0.000785720224505108 0.000544790597790414 0.000611334403692619 0.000894401614781731 -5.71696652815523e-05 0.000237747883726154 0.000428795751541396
"199" 0.000930185962349413 0.000654798045800731 0.00106917303201404 0.00152859364997021 0.000904270062252282 0.000942691682745612 0.000871948050615606 0.000496326812207532 0.000266375636868426 0.000776856298045107 0.000537620146458152 0.000607113781519054 0.000887260609567957 -5.99781848576691e-05 0.000237255931611321 0.000432808336006646
"200" 0.000882467121728562 0.000606007307664054 0.00101061780758961 0.00153410645603982 0.000882934483469089 0.000929716545670517 0.000800120074412116 0.000447736731055674 0.00025979282017315 0.00076799811491378 0.000529976952003595 0.000602406018251066 0.000879647676803981 -6.2804582798762e-05 0.000236978495882116 0.000436990312575394
"201" 0.000833920390072811 0.000557128275485853 0.00095173648389927 0.00153858630986034 0.000861455278077108 0.000916456180493037 0.000728558489153583 0.000399110384293359 0.000253121233386336 0.000759190468332425 0.000521876691829135 0.000597178444343844 0.000871570446239423 -6.56352244931451e-05 0.000236941913954734 0.000441327056549203
"202" 0.00078472802791468 0.000508368390383941 0.000892685980265017 0.00154194739961021 0.000839884726874826 0.000902916000777748 0.000657496843300336 0.000350558733688169 0.000246409496687806 0.00075046898477616 0.00051334316226523 0.000591398272842077 0.000863037661526893 -6.84563753435943e-05 0.000237159471144345 0.000445789532882854
"203" 0.000735074805781884 0.000459936803399736 0.000833630664926618 0.00154410194785935 0.000818272522321202 0.000889101053684333 0.000587147377654969 0.000302186205539967 0.000239697211878033 0.000741858478783195 0.000504387029016554 0.000585025211373438 0.000854057264494668 -7.12596306123171e-05 0.000237653527540214 0.000450338106627538
"204" 0.000685133713291467 0.000412018919916773 0.000774720549193707 0.00154496796763222 0.000796662108059706 0.00087500619606005 0.000517712926288273 0.000254082651367869 0.000233020976915526 0.000733374604460777 0.00049502748806148 0.000578027430457309 0.000844633038489991 -7.40287614966341e-05 0.000238423678960297 0.000454931311721055
"205" 0.000635077784951712 0.000364794819386476 0.000716102647848399 0.00154446297337006 0.00077508742387217 0.000860624200643987 0.000449353509890145 0.000206327099680384 0.000226419211023483 0.000725029209215026 0.000485274887136754 0.000570367616183673 0.000834768203477431 -7.67579012476617e-05 0.000239482438084945 0.00045950483387186
"206" 0.000585071486154934 0.000318431202628174 0.000657907471517372 0.00154250737776415 0.000753576516671317 0.000845939106308068 0.000382224424651856 0.000158979751671834 0.000219919147574133 0.00071681810470948 0.000475144133998297 0.000562009046210224 0.000824466121860641 -7.94376741941137e-05 0.000240824489436099 0.000463994828397125
"207" 0.000535268933075753 0.000273076876572767 0.000600261126280401 0.0015390307824073 0.000732154736305435 0.000830935110516267 0.000316447140945814 0.000112098381766369 0.000213550391999264 0.00070873459307771 0.000464642336605928 0.000552919844970479 0.000813729482721866 -8.20584036054442e-05 0.000242446439057274 0.000468335127694067
"208" 0.000485816093083896 0.000228867218365015 0.000543281633309371 0.00153396438365935 0.000710835057112314 0.000815587622703346 0.000252125429453277 6.57196307474869e-05 0.000207338835012798 0.000700762203467031 0.000453783355883428 0.000543069307162786 0.000802560936521088 -8.46101946506799e-05 0.00024433757160897 0.000472439318617137
"209" 0.000436843161438719 0.000185922253491976 0.000487072749484815 0.00152724256235801 0.000689630651026866 0.00079987200317055 0.000189335152156819 1.98782740335121e-05 0.000201309418895791 0.000692878993528618 0.000442574421007183 0.000532428438815393 0.000790960146326294 -8.70896475115403e-05 0.000246486749070144 0.00047622704396168
"210" 0.000388480954868441 0.000144351669684592 0.000431734709986999 0.00151881321041321 0.000668542726933541 0.000783757360217708 0.000128142659474498 -2.54070583827135e-05 0.000195476442903562 0.000685051568708208 0.000431024047533312 0.000520972355274813 0.000778930952319772 -8.94857156465682e-05 0.000248871370493448 0.000479613348872482
"211" 0.000340844746798717 0.000104242064574367 0.000377356444439526 0.00150862588209351 0.000647575532811051 0.000767213255980735 6.85823195193523e-05 -7.01228403750174e-05 0.000189858286850324 0.000677245539913309 0.000419142886779634 0.000508683839787638 0.000766471764140569 -9.17953734201438e-05 0.0002514696505717 0.00048250877017699
"212" 0.000294034370928138 6.56668726357261e-05 0.000324011973903541 0.00149664383285331 0.000626722766645584 0.000750208549961743 1.06738300945254e-05 -0.000114269596072799 0.000184467443742698 0.000669417017891921 0.000406937494807929 0.000495546027969845 0.000753586205815059 -9.40125389434056e-05 0.000254256252800416 0.000484820161241588
"213" 0.00024814561103742 2.86856293501848e-05 0.000271773904261221 0.00148283201073084 0.000605979113977006 0.000732712918148263 -4.55797876513059e-05 -0.000157852069604776 0.000179318326268809 0.000661525120173127 0.000394421179206375 0.000481550262447369 0.000740273742236022 -9.6123742928444e-05 0.000257200752785871 0.000486459830460844
"214" 0.000203259120746886 -6.65457261991093e-06 0.000220705102296398 0.00146717018356487 0.000585331634886514 0.000714692128022163 -0.000100192523593457 -0.000200875236164343 0.000174418003574312 0.000653517421314096 0.000381600150785227 0.000466694027825129 0.000726536719677519 -9.81306688651962e-05 0.000260268077985361 0.000487345031164164
"215" 0.000159446709289873 -4.03259295599201e-05 0.000170854186505453 0.00144964881964494 0.000564766671304062 0.000696119096217382 -0.000153189257363941 -0.000243355451591041 0.000169769464771216 0.000645340897945302 0.000368485612317889 0.000450981270517589 0.000712380137804502 -0.000100027317444933 0.000263424928096302 0.000487390243950522
"216" 0.000116768801634348 -7.23131359364734e-05 0.000122273035236248 0.00143026624471188 0.000544270941403803 0.000676963917303051 -0.000204608794735996 -0.000285313003408 0.000165380952297893 0.000636944410122095 0.000355090451603408 0.000434421953309649 0.000697806417332746 -0.000101802960540725 0.000266632182557471 0.00048651649883736
"217" 7.52779437097595e-05 -0.000102612994166485 7.49970710923303e-05 0.00140903296535202 0.000523827026379149 0.000657204361045657 -0.000254504927964201 -0.000326764884127937 0.000161246436780264 0.000628268799173551 0.000341427029285443 0.000417029095645856 0.000682823916662325 -0.000103461619164666 0.000269845786185655 0.000484650023672119
"218" 3.50123272283036e-05 -0.000131233412084754 2.90594730988465e-05 0.00138596887512461 0.000503416016578097 0.00063681687367077 -0.000302935311194677 -0.000367734690297193 0.000157369779772898 0.000619263931492577 0.000327507067920802 0.000398831282593814 0.000667435630231397 -0.000104992844483299 0.000273029614671699 0.000481727901991252
"219" -3.99460453613732e-06 -0.000158197454791343 -1.55105772214114e-05 0.00136110684863043 0.000483026840327366 0.000615789749124714 -0.000349961094585651 -0.000408238647507344 0.000153744400075854 0.000609870893166655 0.000313349683004176 0.000379857332398094 0.000651654611179299 -0.000106398161087119 0.00027613924726497 0.000477698306346258
"220" -4.17212782046053e-05 -0.000183537477589466 -5.86903899132611e-05 0.00133449154283815 0.000462641526033165 0.000594111717872903 -0.000395648189977776 -0.000448298177002206 0.000150358860708958 0.000600037980745011 0.000298966808820531 0.0003601442830588 0.000635488877891412 -0.000107679718460119 0.00027913198753028 0.000472511550142612
"221" -7.81483872517066e-05 -0.000207292678886702 -0.000100460430694594 0.00130617692860566 0.000442247669528154 0.000571776901777201 -0.000440072572527415 -0.000487926497247902 0.0001472117336432 0.000589717917878219 0.000284378291478037 0.000339741130462419 0.000618952728556642 -0.000108833255904162 0.000281966938986937 0.000466130415855629
"222" -0.00011327086774975 -0.000229512788476472 -0.000140808478923539 0.00127623170060656 0.00042183696466198 0.000548787426699582 -0.000483297568199497 -0.000527134506762975 0.000144283556549501 0.000578856884915392 0.000269607758500505 0.00031869681668567 0.000602059408063471 -0.000109861832316997 0.00028459756344386 0.000458535527786293
"223" -0.000147085446638372 -0.000250255876660922 -0.000179718543608143 0.00124472977001272 0.000401399761826543 0.00052515405170643 -0.000525394330877277 -0.000565929574758651 0.000141565397299766 0.00056741864772499 0.00025467323073069 0.000297070059917082 0.000584831969430838 -0.000110769168492789 0.000286987400142916 0.000449714197291103
"224" -0.000179596321211981 -0.000269581123001334 -0.000217186026679098 0.00121176219024735 0.000380931577256673 0.000500892062024934 -0.000566425441190076 -0.000604305839993247 0.000139036793674594 0.000555360546532709 0.000239599516191387 0.000274928535887801 0.000567284262181797 -0.000111560154307532 0.000289094703363161 0.000439667449660839
"225" -0.000210811802217928 -0.0002875589147867 -0.000253196724149744 0.00117742210003245 0.000360436431586489 0.0004760275066348 -0.000606448215263456 -0.000642258781378192 0.000136682353417059 0.000542650690845051 0.000224411827266717 0.000252340006831285 0.000549441623798694 -0.000112244488657068 0.000290883965728994 0.000428408301040921
"226" -0.000240743657239227 -0.000304260586346244 -0.000287744843493515 0.00114182186367387 0.000339918815534576 0.000450588418352113 -0.000645514151285796 -0.00067977197231113 0.000134482138938583 0.000529262274397339 0.000209139899277973 0.000229381419944176 0.000531329288380287 -0.000112826445837445 0.000292319844686446 0.000415963968637831
"227" -0.000269405014008589 -0.000319759866857872 -0.000320823876759951 0.00110507160213006 0.000319386014865046 0.000424618732284175 -0.000683659234999759 -0.000716816919594292 0.000132415336596133 0.000515172495978211 0.000193812569173205 0.000206136261345932 0.000512975880352672 -0.000113317282478024 0.000293373995461634 0.000402377058102764
"228" -0.000296817322599947 -0.000334128911613563 -0.00035242393997698 0.00106729736550324 0.000298857316104603 0.000398162070504622 -0.000720920093645902 -0.000753362738165994 0.000130459664204803 0.000500370868147747 0.000178455527161462 0.000182685774381328 0.000494409941186257 -0.000113724031553471 0.000294015147259791 0.00038769876161533
"229" -0.000322997237993694 -0.000347443807686651 -0.000382540876389088 0.0010286313848236 0.000278348034788866 0.000371276628710092 -0.000757314843388866 -0.000789362700622372 0.000128592325628683 0.00048484711503984 0.000163108764020568 0.000159123495382783 0.000475666763268909 -0.000114067251897321 0.000294221483841757 0.00037199896114638
"230" -0.000347964332682913 -0.000359778856985609 -0.000411162801626707 0.000989207430268296 0.000257889540126343 0.000344022509395047 -0.00079284731937625 -0.000824763433798486 0.000126792070834828 0.000468605120836293 0.0001478059967272 0.000135539339293874 0.000456783798181651 -0.000114354034306937 0.000293972252861797 0.000355351751464165
"231" -0.000371735922649714 -0.000371205209528654 -0.000438281777209911 0.000949169065403948 0.00023751301698836 0.000316471774248586 -0.000827512273445273 -0.000859503042852972 0.000125036834332991 0.00045165567477686 0.000132579791442633 0.000112030645231031 0.000437794379478377 -0.000114598416976492 0.000293255708673405 0.000337851526634091
"232" -0.000394334815367436 -0.000381787586891819 -0.000463887193369416 0.00090865984197126 0.000217252008118648 0.000288695870428984 -0.000861292262380995 -0.000893504677157237 0.000123302131998382 0.000434012059017832 0.000117469044460681 8.8690791121918e-05 0.000418741705392961 -0.000114819938936219 0.000292058960598558 0.000319597154257804
"233" -0.000415773748284299 -0.000391592098627144 -0.000487965756720159 0.000867833628604821 0.000197153783315527 0.000260780291942755 -0.000894149250271888 -0.00092668779671251 0.000121571941601022 0.000415702195852546 0.000102515847228462 6.56201591595118e-05 0.000399667473778817 -0.000115024818358818 0.000290377813357327 0.000300701835606076
"234" -0.000436068231632492 -0.000400673907943198 -0.000510502641695029 0.000826833287366053 0.000177261841976196 0.000232810709587038 -0.000926039170526217 -0.00095896088662884 0.000119823590908851 0.000396757992327616 8.77564833547581e-05 4.29166235803814e-05 0.0003806158409034 -0.000115234366138221 0.000288213177375751 0.000281287152955939
"235" -0.00045523287087725 -0.000409087300979839 -0.000531481434965251 0.00078581746128267 0.000157629110002298 0.000204880643694111 -0.000956895766900973 -0.000990223018182547 0.00011804363518819 0.000377223744602764 7.32371417625256e-05 2.06768898794202e-05 0.000361636984599544 -0.00011545805093414 0.000285570727405537 0.000261480180932432
"236" -0.000473271848455696 -0.000416874599871955 -0.000550887253480513 0.000744931523103622 0.000138314839118619 0.000177085509714647 -0.000986645507257604 -0.00102036418504544 0.000116214125560687 0.000357145655616486 5.89999483235316e-05 -1.00042733397204e-06 0.000342772753483276 -0.000115710642285705 0.000282462633450108 0.000241417997792244
"237" -0.000490192235827735 -0.000424074464853456 -0.000568698711472394 0.000704329096361526 0.000119377654656642 0.000149524933707279 -0.00101520129486173 -0.00104927214081303 0.000114329538264345 0.000336583925103679 4.50840110023018e-05 -2.20220578973011e-05 0.000324074758556606 -0.000116003204852419 0.000278903945327109 0.000221240190779207
"238" -0.000505992912407601 -0.000430715971687309 -0.000584895676696918 0.000664155452428782 0.000100880214906505 0.000122303066299466 -0.00104245902687123 -0.00107682352241731 0.000112372955798418 0.000315599626757463 3.15360070200183e-05 -4.22960356487825e-05 0.000305594317855737 -0.000116346737996614 0.000274917292447386 0.000201096725243931
"239" -0.000520671533592416 -0.000436816760131848 -0.000599456008221705 0.000624554303210755 8.28932298623619e-05 9.55186277963291e-05 -0.00106830407158737 -0.00110289468958419 0.000110347302351294 0.000294263996899491 1.83995067703038e-05 -6.17326362148464e-05 0.000287378005636308 -0.000116748893726659 0.000270529544085549 0.000181134498650055
"240" -0.000534219576361599 -0.000442393254947764 -0.000612360675984471 0.000585662746263068 6.5480374277545e-05 6.92824509770178e-05 -0.00109261780998269 -0.00112735146118042 0.000108247308663505 0.000272656336508525 5.71969014248532e-06 -8.02471434145227e-05 0.000269478837469497 -0.000117216518510058 0.000265772234649401 0.000161504496856416
"241" -0.000546627472472112 -0.000447445768641865 -0.000623587109191523 0.000547613720032204 4.87186709826534e-05 4.36946703121193e-05 -0.00111526155893942 -0.00115006476070268 0.000106078608009334 0.000250856806120685 -6.46104786838242e-06 -9.77571671553698e-05 0.000251947723727748 -0.000117752333841728 0.000260681753896857 0.000142358436603289
"242" -0.000557875493221001 -0.000451972837201665 -0.00063311305877759 0.000510535511659149 3.26714155561778e-05 1.88592760975443e-05 -0.0011361024592786 -0.00117089998705423 0.000103845595930953 0.000228954242555879 -1.80998362465265e-05 -0.000114190273010545 0.000234832498332522 -0.000118358545066287 0.000255300764673817 0.000123842617750233
"243" -0.000567943579010001 -0.000455956743717261 -0.000640915328046681 0.00047454334931307 1.74184028917646e-05 -5.12115163616367e-06 -0.00115498881993257 -0.00118972228858623 0.000101558569606414 0.000207038325573106 -2.91538681413175e-05 -0.000129475783273887 0.000218182116144733 -0.000119037206262217 0.000249671190490652 0.000106105335108771
"244" -0.000576804770599749 -0.000459382037850545 -0.000646973558495174 0.00043975267092348 3.02526788923174e-06 -2.81484173465361e-05 -0.00117177055157989 -0.00120640029886632 9.92325946020828e-05 0.000185206664838681 -3.95838398789622e-05 -0.000143550377815477 0.00020204508294759 -0.000119784781877059 0.000243842827666189 8.92893477229849e-05
"245" -0.000584432319363449 -0.000462214984819324 -0.000651272024826652 0.000406259938025217 -1.04356762841649e-05 -5.01273209415354e-05 -0.00118629680010031 -0.00122080402277141 9.68837213323624e-05 0.000163552078387122 -4.93515067985647e-05 -0.000156361060461694 0.000186466042309408 -0.000120591451671775 0.000237865299649929 7.35310995331964e-05
"246" -0.00059079599758576 -0.000464424863566457 -0.000653789243005878 0.000374158708894946 -2.2897743428027e-05 -7.09688716582427e-05 -0.00119840935692238 -0.00123280876989436 9.45375226171401e-05 0.000142176050433997 -5.84199922900052e-05 -0.000167858443944708 0.000171488539315609 -0.000121450939060955 0.000231791838072352 5.89526183874489e-05
"247" -0.00059585892209158 -0.000465970815612142 -0.000654519404505795 0.000343531645069503 -3.42974242776056e-05 -9.05857725738141e-05 -0.00120795957968486 -0.00124229533764794 9.22135417617107e-05 0.000121177147204405 -6.67525010214286e-05 -0.000178000269030897 0.000157153651205087 -0.000122357037133122 0.000225679801239096 4.56790344304704e-05
"248" -0.00059958841279513 -0.000466808791862843 -0.000653443420627153 0.000314444793141598 -4.45707662654055e-05 -0.000108900919904836 -0.00121479482827074 -0.00124914964431079 8.9944748593843e-05 0.000100652708263538 -7.43178871113748e-05 -0.000186757110894564 0.000143501333406284 -0.000123286231377497 0.000219581842874716 3.38162469901386e-05
"249" -0.000601940197442041 -0.000466886918897373 -0.000650564614939252 0.0002869621120083 -5.36642532170575e-05 -0.000125844286216259 -0.00121877016711731 -0.00125327030884763 8.77575264552401e-05 8.07012217787591e-05 -8.10919577648473e-05 -0.000194104905319737 0.000130562003219777 -0.000124233564018768 0.000213558044522337 2.34603203032975e-05
"250" -0.000602881596286449 -0.000466152059211034 -0.000645874942426371 0.000261127561770206 -6.15250589040122e-05 -0.000141349201203931 -0.00121974663470674 -0.00125456097101953 8.56861208548929e-05 6.14152661095461e-05 -8.70472689882119e-05 -0.000200031845990918 0.000118369580669539 -0.000125174622042045 0.000207661457212581 1.4696038072596e-05
"251" -0.000602373980982898 -0.000464556579096474 -0.000639381985116157 0.000236977907579523 -6.81072282323695e-05 -0.000155360134050674 -0.00121759749318479 -0.00125294072112396 8.37643942308119e-05 4.28890970622661e-05 -9.21633891336527e-05 -0.000204530051472094 0.000106951984458571 -0.000126089326993447 0.000201951689244825 7.59149528701406e-06
"252" -0.000600375739806652 -0.000462041232913388 -0.000631092545233126 0.00021453971290597 -7.33741292026704e-05 -0.000167830132222159 -0.00121220143631293 -0.0012483374346201 8.20273218168931e-05 2.52072851282571e-05 -9.64250871696656e-05 -0.000207606904923725 9.63285349710113e-05 -0.000126959936359932 0.000196481676035372 2.20123899185178e-06
"253" -0.000596856057538598 -0.000458556907061471 -0.000621025011919603 0.000193818967418681 -7.72896162483308e-05 -0.000178724158442862 -0.00120345781906145 -0.00124069442098795 8.0511298738221e-05 8.45360634857269e-06 -9.98177846741918e-05 -0.000209274059599503 8.6517959293335e-05 -0.00012776261256905 0.000191302136831949 -1.43742869350102e-06
"254" -0.00059178061257049 -0.000454052532877086 -0.000609202147774412 0.000174817271657039 -7.98284237325702e-05 -0.000188013764268546 -0.00119127477783586 -0.00122996962000506 7.92538469765445e-05 -7.29907804012466e-06 -0.0001023381912972 -0.000209560790330796 7.75344118788653e-05 -0.000128473525867429 0.00018646697140487 -3.30550457537475e-06
"255" -0.000585119840428926 -0.000448480125345501 -0.000595655825686143 0.000157524507654319 -8.0975202808149e-05 -0.000195678852313312 -0.00117557512918757 -0.00121613424638133 7.8289189563893e-05 -2.19804556254447e-05 -0.000103982614524086 -0.000208494495201795 6.93854787118649e-05 -0.000129066512706387 0.000182018043150676 -3.39638634083283e-06
"256" -0.000576851495890826 -0.000441799725350923 -0.00058041963869065 0.00014191319699305 -8.07211489470537e-05 -0.000201717949630512 -0.0011563060742894 -0.00119918049401352 7.76555602237055e-05 -3.55320598090157e-05 -0.000104753180963449 -0.000206120899238572 6.2073176495378e-05 -0.000129515417722881 0.000177999181933985 -1.72630489902515e-06
"257" -0.000566953903963405 -0.000433973414141955 -0.000563543378717498 0.000127947483755174 -7.90674097249439e-05 -0.00020613209913491 -0.00113342601749303 -0.00117911218489772 7.73785316288164e-05 -4.78982162379902e-05 -0.000104662075128307 -0.000202492928815166 5.55925295159079e-05 -0.000129798164461679 0.000174450653619292 1.67339289989189e-06
"258" -0.00055541581740717 -0.000424968933458568 -0.000545079515428383 0.000115582241101794 -7.60187751258355e-05 -0.000208937850448055 -0.00110692322104137 -0.00115595524326425 7.74979927829916e-05 -5.90372602558115e-05 -0.000103716922221267 -0.000197669888637685 4.99362241267738e-05 -0.00012988724655192 0.00017140201950123 6.7503028656652e-06
"259" -0.000542231325213217 -0.000414771018266621 -0.000525087559777291 0.000104755384130967 -7.15987145196063e-05 -0.000210161228840674 -0.00107679863364199 -0.00112974769245672 7.80398944048333e-05 -6.89159829308233e-05 -0.00010194374810076 -0.000191721642198752 4.50919919319034e-05 -0.000129755380030222 0.000168881139182292 1.34380897272847e-05
"260" -0.000527402644545959 -0.000403363343330894 -0.000503642387923963 9.54035403866373e-05 -6.58302147722714e-05 -0.000209838054874217 -0.00104308215455273 -0.0011005548263798 7.90288132752743e-05 -7.75083394127279e-05 -9.93648200173212e-05 -0.000184726009806991 4.10366257475096e-05 -0.000129385641676875 0.000166913337684296 2.16498964418462e-05
"261" -0.000510937236993676 -0.000390745265324092 -0.000480821266928335 8.7448339005328e-05 -5.87524044183488e-05 -0.000208016286091475 -0.00100582557409576 -0.00106845426165498 8.04896670412046e-05 -8.48031471431642e-05 -9.60115469417094e-05 -0.000176766198518179 3.77463804779358e-05 -0.000128744926650018 0.000165512999431962 3.12814902226786e-05
"262" -0.000492858693163375 -0.000376922620756015 -0.000456708791875624 8.08023252215779e-05 -5.04070186783226e-05 -0.00020475534448099 -0.000965097362033918 -0.00103354127769456 8.243838875729e-05 -9.07966631339466e-05 -9.19192948614427e-05 -0.000167936794888877 3.51910363698384e-05 -0.000127820076245647 0.000164690194366337 4.2216236676821e-05
"263" -0.000473193253349081 -0.000361917143760386 -0.000431403150306697 7.53738694348985e-05 -4.08522744854474e-05 -0.000200120886678503 -0.00092100572784287 -0.000995933205561493 8.4891931041498e-05 -9.54941563144588e-05 -8.7126132548076e-05 -0.000158331942343662 3.33336606395222e-05 -0.000126585032469892 0.000164444591781413 5.43183204580319e-05
"264" -0.000451978338544294 -0.000345757075163947 -0.000405004624322649 7.10585295359393e-05 -3.01479086959443e-05 -0.000194191633459703 -0.000873663331911908 -0.000955767021594333 8.78620797013215e-05 -9.89138299799949e-05 -8.16829449918553e-05 -0.000148058053321548 3.21333346366379e-05 -0.000125022686623806 0.000164777673106955 6.74388106571455e-05
"265" -0.0004292659449662 -0.00032848897852524 -0.000377620157734221 6.77518659152053e-05 -1.83665382168134e-05 -0.000187054636326288 -0.000823225646851729 -0.000913191298281955 9.13485383143783e-05 -0.000101083845899171 -7.563523605779e-05 -0.000137220385603913 3.15435789964656e-05 -0.00012311938080068 0.000165675062513029 8.14261294086392e-05
"266" -0.000405109068683763 -0.000310165796716273 -0.000349373284478395 6.53401209355369e-05 -5.58739707268599e-06 -0.000178800672956261 -0.000769855817863009 -0.000868378832873201 9.53602920666605e-05 -0.000102041425674598 -6.90365243351145e-05 -0.000125930054644105 3.15162654976901e-05 -0.000120855823954103 0.000167122806749976 9.61011692217748e-05
"267" -0.000379583429841559 -0.000290852401567587 -0.000320382515971443 6.37091450804219e-05 8.10745205224473e-06 -0.000169535139711817 -0.000713755184953978 -0.000821515720909197 9.98840558259386e-05 -0.000101837065307277 -6.19492986196699e-05 -0.000114299844281938 3.19960004319051e-05 -0.000118225495970574 0.000169094594870672 0.000111289655628853
"268" -0.000352766869580125 -0.000270629755156004 -0.000290775134754284 6.27355657288717e-05 2.26184099753345e-05 -0.000159363469322819 -0.000655136292724672 -0.000772805231589521 0.000104915893380075 -0.000100524024102332 -5.44317861385162e-05 -0.000102445862033054 3.29263664872291e-05 -0.000115220392167261 0.000171563700736603 0.000126806064351586
"269" -0.000324746603325925 -0.00024959224153408 -0.000260690018406891 6.23011630867309e-05 3.78513868155602e-05 -0.000148401537286671 -0.000594239113869282 -0.000722459834591257 0.000110437500410601 -9.81685180316349e-05 -4.65468453016762e-05 -9.0483367131209e-05 3.42454498544272e-05 -0.000111828054657415 0.000174493426980276 0.000142460781612077
"270" -0.000295631385951063 -0.000227837470774097 -0.000230261060163512 6.22850315295966e-05 5.36990231554297e-05 -0.000136764100690643 -0.000531315890730761 -0.00067071311718754 0.000116428053717029 -9.48452968883588e-05 -3.83638216160696e-05 -7.85290191831318e-05 3.588863803416e-05 -0.000108054687838512 0.000177843454452097 0.000158060699219102
"271" -0.000265521716495968 -0.000205484693841123 -0.000199629958409387 6.25626133837923e-05 7.00556140547483e-05 -0.000124576608235906 -0.000466649208946677 -0.000617807530783534 0.000122863687207314 -9.06338169221657e-05 -2.99478974820271e-05 -6.66959664144608e-05 3.77922841615212e-05 -0.000103892888264296 0.000181567515443513 0.000173411374410929
"272" -0.000234546865829315 -0.000182650673204828 -0.000168945380555931 6.30133846929932e-05 8.6807990249971e-05 -0.000111962843367992 -0.000400528052949156 -0.000563993204142005 0.000129714018333511 -8.56216666935153e-05 -2.13681187752021e-05 -5.50932769828342e-05 3.98875528073234e-05 -9.9354421557547e-05 0.000185614013164907 0.000188324889851428
"273" -0.000202828404603477 -0.000159476732138937 -0.000138348209500385 6.35245007320063e-05 0.000103838777283237 -9.90451631531283e-05 -0.000333255275854143 -0.000509535119895913 0.000136939478962439 -7.99047127741017e-05 -1.26976791880854e-05 -4.38316852490594e-05 4.2108330188847e-05 -9.4442314466117e-05 0.000189927502357761 0.000202612585569582
"274" -0.000170509490079574 -0.000136095061308489 -0.000107987098904616 6.39789830374464e-05 0.000121033565360284 -8.59545345717036e-05 -0.00026516121832237 -0.000454701365016006 0.000144501282466227 -7.35765302202248e-05 -4.00269698001366e-06 -3.30154135222657e-05 4.43817115071365e-05 -8.9170284915974e-05 0.000194449809219264 0.000216092253559141
"275" -0.000137731848714261 -0.000112663323375663 -7.8008778592931e-05 6.4265460604172e-05 0.000138272104987879 -7.28114764033087e-05 -0.0001965698165021 -0.000399767333311674 0.000152354014604293 -6.67421639010148e-05 4.64521469100031e-06 -2.27410931090149e-05 4.66437859087231e-05 -8.3550489167014e-05 0.000199121200406575 0.000228595041466095
"276" -0.000104645901158267 -8.93292661852224e-05 -4.85626395276083e-05 6.42838771916889e-05 0.000155437465450719 -5.97445549353463e-05 -0.000127822551955962 -0.000345009952423513 0.000160449061161603 -5.95049914137913e-05 1.31805950532396e-05 -1.31003644680235e-05 4.88257955416803e-05 -7.7599481196364e-05 0.000203873362404013 0.000239954232186765
"277" -7.14091877671523e-05 -6.62538615771819e-05 -1.97842973680711e-05 6.39351173142903e-05 0.0001724084940595 -4.68702790565359e-05 -5.92642337693711e-05 -0.000290711123876285 0.0001687331248422 -5.19725862910789e-05 2.15356319796171e-05 -4.18087825981678e-06 5.08580510830505e-05 -7.13408321084498e-05 0.000208644557406849 0.000250021782746734
"278" -3.81830950054992e-05 -4.35974999595634e-05 8.18697060074099e-06 6.31309973913691e-05 0.000189076140194981 -3.43064166751355e-05 8.76211621263469e-06 -0.000237143587800537 0.000177147552337828 -4.4251145096592e-05 2.96475932076788e-05 3.93947542884958e-06 5.26803125517047e-05 -6.48000486501657e-05 0.000213367616415187 0.000258663163815398
"279" -5.13076709611344e-06 -2.15226462009824e-05 3.52106341078288e-05 6.17843868210384e-05 0.000205319757222605 -2.21662574337188e-05 7.59061283002874e-05 -0.000184590065105861 0.000185636069986371 -3.64474193545827e-05 3.74548121770164e-05 1.11916315915109e-05 5.42249079517166e-05 -5.79988731539409e-05 0.000217978037027787 0.000265753817980696
"280" 2.75838946191299e-05 -1.952047539488e-07 6.11628749349339e-05 5.98268152398029e-05 0.000221037809198024 -1.05540370328002e-05 0.000141830443767048 -0.000133313043971032 0.000194134565178394 -2.86690497283597e-05 4.48977529661823e-05 1.75144738872465e-05 5.54374647111102e-05 -5.09726946445877e-05 0.000222410437335739 0.000271187746520989
"281" 5.97926449006692e-05 2.02307043455347e-05 8.59215892052815e-05 5.71896322165333e-05 0.000236120132955093 4.312092344986e-07 0.000206192989355334 -8.35807364793235e-05 0.000202581179842497 -2.10196154628269e-05 5.19269068995474e-05 2.28527575466751e-05 5.62625595123571e-05 -4.37516604972897e-05 0.000226598640900752 0.000274878468697648
"282" 9.13332293892955e-05 3.9593326222202e-05 0.000109368810014827 5.38200262777286e-05 0.000250467320832875 1.06936803042739e-05 0.000268663877002933 -3.5642635302046e-05 0.000210911786880392 -1.35984306615341e-05 5.84881859401941e-05 2.71651999037869e-05 5.66459101532026e-05 -3.63661512862209e-05 0.000230487189601827 0.000276753181838506
"283" 0.000122040699426133 5.77469480742919e-05 0.000131406489259808 4.96723989796796e-05 0.000263986186979941 2.01535333007094e-05 0.000328931785595453 1.02657341401655e-05 0.000219061583429348 -6.50368889212088e-06 6.45394464112407e-05 3.04174736713901e-05 5.6544313237876e-05 -2.88572451796631e-05 0.000234014840950259 0.000276762408706267
"284" 0.000151759151495542 7.45459304839762e-05 0.000151933722104741 4.47080214378225e-05 0.000276594312509473 2.87305707479514e-05 0.000386692159665991 5.39137386361213e-05 0.000226965360361299 1.73083362929624e-07 7.00426700005251e-05 3.25864203757754e-05 5.59148262174883e-05 -2.1257892942421e-05 0.000237131432773319 0.000274874006872258
"285" 0.000180335884187119 8.98585679889764e-05 0.000170865687905953 3.89039292798171e-05 0.000288207116994404 3.63646308886859e-05 0.000441662659145836 9.50969171587651e-05 0.0002345596935058 6.34829279732391e-06 7.49592874187553e-05 3.36544586192871e-05 5.472116757809e-05 -1.36076934388362e-05 0.000239787012491318 0.000271072105082795
"286" 0.00020762463467427 0.000103562174454678 0.000188134828732738 3.22434043844937e-05 0.00029876054599508 4.29940874324371e-05 0.000493580331206283 0.000133627965265311 0.00024178705624774 1.19412832962306e-05 7.92615026784493e-05 3.36186385842115e-05 5.29343172177348e-05 -5.94513809810829e-06 0.000241935766926819 0.00026536596439913
"287" 0.000233488745594586 0.000115546985921916 0.000203673762588678 2.47212413745148e-05 0.000308184954039358 4.85741735090457e-05 0.000542205381337002 0.000169337547130004 0.000248582178646399 1.6879523327471e-05 8.29293190780727e-05 3.2482676161852e-05 5.05306914290575e-05 1.69253034780889e-06 0.000243544743810465 0.00025777645717875
"288" 0.000257802542406385 0.000125720545768649 0.00021744320552632 1.63373570634363e-05 0.000316433454683085 5.30671229213186e-05 0.000587322589421027 0.000202080751494804 0.000254893580033648 2.1099924540094e-05 8.5943365372304e-05 3.02597824457863e-05 4.74936658300644e-05 9.27022269907437e-06 0.000244584166975481 0.000248347272213988
"289" 0.000280452621360551 0.000134005946128703 0.000229400048282659 7.10691873739387e-06 0.000323462994684016 5.64488174210384e-05 0.000628749132371099 0.000231739372918971 0.000260666272027823 2.45478114833917e-05 8.82938427058028e-05 2.69725856872191e-05 4.38110221762469e-05 1.67494560793642e-05 0.000245026217148104 0.000237136360449103
"290" 0.00030133299431914 0.000140336337222501 0.00023952958653096 -2.94842003448285e-06 0.000329239811072659 5.86987770428128e-05 0.000666322272041057 0.000258214835466207 0.000265858213553037 2.7178855771156e-05 8.99796396379796e-05 2.26508952916989e-05 3.9480753582408e-05 2.40969813514454e-05 0.000244858701523283 0.000224219520463417
"291" 0.000320358822950356 0.000144668970513108 0.000247819896209491 -1.38010206996679e-05 0.000333740199126027 5.98120156162708e-05 0.00069991710485836 0.000281444199912106 0.000270420360394002 2.89511766956681e-05 9.09963714182544e-05 1.73341302395354e-05 3.45066647260411e-05 3.12762358110755e-05 0.000244074084545895 0.000209687939725805
"292" 0.000337454350477094 0.000146979924540387 0.000254277090146019 -2.54134046915174e-05 0.000336950006531426 5.97940574464907e-05 0.000729443226211549 0.000301379795156725 0.000274322653740045 2.98438667122446e-05 9.13569961584855e-05 1.10664405592307e-05 2.88948274234368e-05 3.82625721240147e-05 0.000242672787786427 0.000193649473461677
"293" 0.000352564392201611 0.000147263380984764 0.000258923486868555 -3.77401159559085e-05 0.00033887052527119 5.86546773341681e-05 0.000754837180725549 0.000318012704948754 0.000277531151344769 2.98356461611314e-05 9.10766081534445e-05 3.90308555039471e-06 2.26670807500145e-05 4.50283464766262e-05 0.000240661375627958 0.000176213716419179
"294" 0.000365642782652225 0.000145534785784151 0.000261794426812231 -5.07340734464045e-05 0.00033950525551999 5.64207543213921e-05 0.000776070969042849 0.00033135638514206 0.000280023635542761 2.89212425853464e-05 9.01714646282632e-05 -4.09988173719241e-06 1.58469430077401e-05 5.15468027501562e-05 0.000238060404116706 0.000157518284776225
"295" 0.000376668292250641 0.000141827657353452 0.000262928803836849 -6.43400097766515e-05 0.000338876122757092 5.311992978818e-05 0.000793154339568108 0.000341455290951019 0.000281783544719899 2.71044477732599e-05 8.86708766680002e-05 -1.28743521920385e-05 8.45970501666036e-06 5.78009941482763e-05 0.000234892882442261 0.000137694955948515
"296" 0.000385632731802533 0.000136193914148793 0.000262389723638651 -7.84974871376268e-05 0.000337009941934292 4.87937998024598e-05 0.000806128548274418 0.000348377975756245 0.000282803122702705 2.4396033774579e-05 8.6602748453092e-05 -2.23521479298839e-05 5.4902577307545e-07 6.37756626329295e-05 0.000231195129212391 0.000116891365699428
"297" 0.000392544997848065 0.000128708688798053 0.000260247810240346 -9.31392756197984e-05 0.000333942583737326 4.34922073032534e-05 0.000815066237090953 0.000352218841705044 0.000283077759456364 2.08174378334416e-05 8.40052797121066e-05 -3.24600343215607e-05 -7.84667020753283e-06 6.94521079499134e-05 0.000227005587344077 9.52637075512839e-05
"298" 0.000397430770405436 0.000119461042999607 0.000256575827403408 -0.000108202197110871 0.000329721862845351 3.72677836345417e-05 0.0008200741409254 0.000353103309611993 0.000282617812793767 1.64041524425802e-05 8.09198305151052e-05 -4.31209980449021e-05 -1.668231516538e-05 7.48294330903494e-05 0.000222375372738447 7.29658712700654e-05
"299" 0.000400333918235703 0.000108565302761862 0.000251472902795955 -0.000123614387337553 0.000324402253266016 3.01848499062802e-05 0.000821291426024612 0.000351174828363503 0.000281433591445056 1.11942563629403e-05 7.73916490156198e-05 -5.42514494816887e-05 -2.58976232563438e-05 7.98999247157754e-05 0.00021736327961313 5.01623776380622e-05
"300" 0.000401313809138294 9.61401241123875e-05 0.000245028869024154 -0.000139307948321916 0.000318043704168119 2.23114081386169e-05 0.000818888435313541 0.000346599535812345 0.000279549098243431 5.23615199343299e-06 7.34704314156612e-05 -6.57720262162013e-05 -3.54394320633033e-05 8.46698986769306e-05 0.000212030366263502 2.70104171450187e-05
"301" 0.000400443490981171 8.23334738814372e-05 0.00023735614051059 -0.000155211772741028 0.000310719654718211 1.37189249999025e-05 0.000813054931846095 0.000339567393555721 0.000276994645173134 -1.41070609217324e-06 6.92063303465856e-05 -7.75961255484625e-05 -4.52462070995132e-05 8.9140813329072e-05 0.00020644905173566 3.67505942367669e-06
"302" 0.00039781560508933 6.72950984959267e-05 0.000228560515845017 -0.000171251868248239 0.000302505469969736 4.49007684258977e-06 0.000804015987713427 0.000330282859530152 0.000273800563140809 -8.68623643221646e-06 6.4656724286262e-05 -8.96403746229065e-05 -5.52515677931569e-05 9.33230047587723e-05 0.00020069250997073 -1.96838090446046e-05
"303" 0.000393524482593959 5.11904672855451e-05 0.000218760754550031 -0.000187360986754725 0.000293478814207417 -5.29903918166957e-06 0.000792010968115878 0.00031896725531735 0.000270015316544311 -1.65187825109677e-05 5.98785313353794e-05 -0.000101820158918542 -6.53917115632552e-05 9.72328309211344e-05 0.000194839216328457 -4.29091265350494e-05
"304" 0.000387692594806292 3.41972530054422e-05 0.000208079432644383 -0.000203471468779858 0.000283729995504621 -1.55588091974162e-05 0.000777307055729211 0.00030585426902771 0.000265686422619548 -2.4831010937118e-05 5.49304487049365e-05 -0.000114050937838521 -7.55922496793709e-05 0.000100886584688699 0.000188973757176861 -6.58459251760958e-05
"305" 0.000380440906819043 1.64969450278785e-05 0.000196634143024956 -0.000219513744583626 0.000273352825055335 -2.62022324258882e-05 0.000760187471772942 0.000291190887893672 0.000260864417606124 -3.35450912526145e-05 4.9872466182432e-05 -0.000126250362478345 -8.57872329256557e-05 0.000104302252708349 0.000183184222095203 -8.83504907306372e-05
"306" 0.000371899920432557 -1.71620523632172e-06 0.000184553486830417 -0.000235427917872328 0.000262434586958863 -3.71432185039274e-05 0.000740944997573209 0.000275228043979138 0.000255614000491878 -4.25766280077538e-05 4.47651958529099e-05 -0.000138336186753201 -9.59000767873447e-05 0.000107514693847784 0.00017755832143787 -0.000110282114673343
"307" 0.000362217853177158 -2.02543660545192e-05 0.000171958300914853 -0.000251155437820855 0.000251077048793843 -4.82912186742392e-05 0.000719886380470949 0.0002582272346654 0.000249996212399202 -5.18405714853928e-05 3.96706932145161e-05 -0.000150229604312574 -0.000105864283827255 0.000110540921096262 0.000172188214800046 -0.000131508981371705
"308" 0.000351541050286534 -3.89208647384626e-05 0.000158969781003371 -0.000266638697872823 0.000239376105961338 -5.95546558170526e-05 0.000697329910722309 0.00024044641907099 0.000244078554687184 -6.12468301981053e-05 3.46448518717669e-05 -0.000161856809090456 -0.000115610868308311 0.000113418171022636 0.000167159238347577 -0.00015191387227758
"309" 0.00034001407561599 -5.75219692602045e-05 0.000145707268199245 -0.000281828304736317 0.000227430588335573 -7.08484949944744e-05 0.000673594728080013 0.00022214667906512 0.000237932814065852 -7.07081723255299e-05 2.97496956998965e-05 -0.000173142900570847 -0.000125069134947535 0.000116176436645216 0.000162563460642206 -0.000171383379602815
"310" 0.000327798838320255 -7.58670441442276e-05 0.000132286669809576 -0.000296679580228744 0.00021533476999172 -8.20882455749185e-05 0.00064900309931691 0.0002035863067516 0.000231628638017877 -8.01372626757177e-05 2.50387856625278e-05 -0.000184024523887255 -0.000134173947798431 0.000118848024658034 0.000158485390969438 -0.000189824652231714
"311" 0.000315044749541696 -9.37658600502852e-05 0.000118817114484892 -0.00031114949739251 0.000203187301843247 -9.31854213510653e-05 0.000623874535843825 0.000185019577310546 0.000225239150888392 -8.94447441981703e-05 2.05658741778617e-05 -0.000194434801860908 -0.000142862621487965 0.000121467587063626 0.000155012497764833 -0.000207144761857843
"312" 0.000301913573211487 -0.000111043469482591 0.0001054093839382 -0.000325202504003471 0.000191079476571801 -0.000104061024011165 0.000598525853681475 0.000166690086844444 0.000218835066711575 -9.85490783509006e-05 1.63834116634877e-05 -0.000204316072374598 -0.000151079867579148 0.000124067181958364 0.000152220178746937 -0.000223280308726301
"313" 0.000288549926794102 -0.000127526510370257 9.21564531264318e-05 -0.000338812946990453 0.000179105224846099 -0.00011463745409762 0.000573268850206321 0.000148833342449915 0.000212489706412876 -0.000107367605957876 1.25341930141133e-05 -0.000213614273928878 -0.000158771519512667 0.000126686117228124 0.000150183911234746 -0.000238167906747679
"314" 0.000275103896796621 -0.000143055564440369 7.91514352450467e-05 -0.000351956091571609 0.000167351310291 -0.000124844955708475 0.000548403656361149 0.000131673512364263 0.000206273106256434 -0.000115825774526221 9.06483236981148e-06 -0.000222283757011249 -0.000165886034837528 0.00012935700984619 0.000148972084544795 -0.000251767107298821
"315" 0.000261720258991288 -0.000157478445449494 6.64836892632372e-05 -0.000364611979856832 0.000155897528071747 -0.000134615758403809 0.000524211387652149 0.000115418196230187 0.000200250436620977 -0.000123850340464849 6.01001070843348e-06 -0.000230282862256671 -0.000172383550513621 0.00013210926221237 0.000148647785743013 -0.000264047711595996
"316" 0.000248530525430957 -0.000170665506666382 5.42242043616551e-05 -0.000376770786439961 0.000144821505047047 -0.000143885012164165 0.000500965724172425 0.000100264452148275 0.000194486338564432 -0.000131374318470285 3.40619068687253e-06 -0.000237572269290961 -0.000178227154488362 0.000134972571795732 0.000149265955381456 -0.000274998625159691
"317" 0.000235668247620866 -0.000182492645801385 4.2443722229634e-05 -0.000388424581077304 0.000134195026677717 -0.000152601235505585 0.000478920089228889 8.63850671705188e-05 0.000189035173469734 -0.00013834468135655 1.27702419525321e-06 -0.000244125578030207 -0.000183387013251739 0.000137976315661476 0.000150869560604139 -0.000284620443764163
"318" 0.000223245465604126 -0.000192857318543587 3.12005657875301e-05 -0.000399573068390634 0.000124081441872895 -0.000160710424438981 0.000458309007576458 7.39421149131729e-05 0.000183952221131831 -0.00014470761546776 -3.53862666247253e-07 -0.000249916312016566 -0.000187839345798763 0.000141144480872198 0.000153493415345628 -0.000292929441944733
"319" 0.000211375059137389 -0.000201671878906506 2.05469871718242e-05 -0.000410218603728442 0.000114540771088423 -0.000168175432887351 0.000439343993878314 6.30733227591734e-05 0.000179283932437455 -0.000150418820924202 -1.46675458900282e-06 -0.000254926376197131 -0.000191569008547253 0.000144498902201958 0.000157167983073523 -0.000299955550168635
"320" 0.000200150244233805 -0.000208865411191507 1.05239782549317e-05 -0.000420373390547965 0.000105622910334968 -0.000174957919751384 0.000422209134161646 5.3890707410093e-05 0.000175072652739492 -0.000155442997622789 -2.05499860849991e-06 -0.000259145475878993 -0.000194568277106836 0.000148055984111517 0.000161910294710349 -0.000305744805574508
"321" 0.000189656108693684 -0.00021439058209936 1.1607701137394e-06 -0.000430050564918183 9.73662209805373e-05 -0.000181030823682685 0.00040707241112353 4.64952463228039e-05 0.000171349516961992 -0.000159759309255317 -2.11201385775425e-06 -0.000262568046704555 -0.000196836220447621 0.000151830078073784 0.000167721682284595 -0.000310354200604124
"322" 0.000179965122942451 -0.000218215804954818 -7.51574058667998e-06 -0.000439264194144019 8.98087367219778e-05 -0.000186375993624051 0.000394067262495057 4.09563312335721e-05 0.00016813775849338 -0.000163346768051123 -1.63943725025448e-06 -0.000265191727652378 -0.000198378256281066 0.000155829734967586 0.000174602545536379 -0.000313854021986199
"323" 0.00017113432108158 -0.000220329732427288 -1.54957476066068e-05 -0.000448039720610336 8.29785810428062e-05 -0.000190976804031679 0.000383306165527657 3.73258154712748e-05 0.000165458018710255 -0.000166200142156844 -6.45025885882653e-07 -0.000267022036464296 -0.000199210115159731 0.000160060124370644 0.000182535081255799 -0.000316328262771133
"324" 0.000163208598839001 -0.000220741826072552 -2.27712545961031e-05 -0.000456398201474193 7.68905066057516e-05 -0.00019483009666182 0.000374867691029153 3.56296741626656e-05 0.000163318691669708 -0.00016832340580228 8.57880598658737e-07 -0.000268071710836677 -0.00019935411531032 0.000164519427859947 0.000191492955377154 -0.000317863683903851
"325" 0.000156221722687161 -0.000219479156668271 -2.93456337084691e-05 -0.000464369747010013 7.15555157297296e-05 -0.000197940252003529 0.000368804732613134 3.58699637519936e-05 0.000161716869380928 -0.000169725208104297 2.84984019276555e-06 -0.000268352286487092 -0.000198837385035486 0.000169201601593691 0.000201441704330209 -0.000318568334347914
"326" 0.000150186577151776 -0.000216591563748234 -3.52304628519895e-05 -0.000471983389898219 6.69735116813168e-05 -0.000200313930824915 0.000365141065557384 3.80266127710192e-05 0.000160646240527305 -0.000170429265115029 5.30624825065615e-06 -0.000267884758360719 -0.000197696518556986 0.000174100381493197 0.000212329838289404 -0.000318543909078367
"327" 0.00014510491952854 -0.000212149265974005 -4.04476212796573e-05 -0.000479267414926819 6.31384844024568e-05 -0.000201967783498681 0.00036386924283859 4.2055438771739e-05 0.000160091664621827 -0.000170462393187303 8.1993768877354e-06 -0.000266690932495633 -0.000195975815585104 0.000179195877455688 0.000224101049094889 -0.000317907389791422
"328" 0.000140966170598981 -0.000206233059472312 -4.50223751047528e-05 -0.000486254899494635 6.00362605235707e-05 -0.000202926351642194 0.000364957778797588 4.7889803368071e-05 0.000160023953437562 -0.000169868644188783 1.14940529683658e-05 -0.000264802287972918 -0.000193721026290866 0.000184469169011067 0.000236688509358911 -0.000316777978965998
"329" 0.000137746292547845 -0.000198955364823806 -4.89881758388569e-05 -0.000492977536493842 5.76445506786036e-05 -0.000203220227878213 0.000368342507486853 5.54423736954822e-05 0.000160409730445204 -0.000168688817292107 1.51494022902154e-05 -0.00026224427026564 -0.000190986022163041 0.000189895805148054 0.000250015901572236 -0.000315271534488869
"330" 0.000135405113271485 -0.000190436073534294 -5.23874024509396e-05 -0.000499465996081291 5.59330687529972e-05 -0.000202882008334632 0.000373930772016993 6.46024629801466e-05 0.000161212041690385 -0.000166980558567451 1.91285250126669e-05 -0.000259052787933454 -0.000187834358541319 0.000195445456541563 0.000263995284847544 -0.000313513141004575
"331" 0.000133886957393197 -0.000180815676380705 -5.5269467011754e-05 -0.00050575133477734 5.48633757746272e-05 -0.000201957045698548 0.000381604839714244 7.52372012665975e-05 0.00016237759744365 -0.000164802879897054 2.33799941835099e-05 -0.000255260343863082 -0.000184327060080785 0.000201084578772571 0.000278538940062603 -0.00031161912503905
"332" 0.000133135215528238 -0.000170245495786541 -5.76812549171511e-05 -0.000511861566759751 5.43945906715476e-05 -0.000200488109868617 0.000391220815635879 8.71990556416114e-05 0.000163850908295242 -0.000162225950032019 2.78578856002035e-05 -0.00025090553861301 -0.000180529954642662 0.000206776351110774 0.000293538617257843 -0.000309711691806242
"333" 0.000133069729742865 -0.000158901711922144 -5.96787264703319e-05 -0.000517826745020897 5.44768271931741e-05 -0.000198526028265253 0.000402612320406323 0.000100316200749581 0.000165569456264342 -0.000159322479017229 3.25064075308635e-05 -0.00024602347741123 -0.000176517624326421 0.000212475272358223 0.000308892271596113 -0.000307899662958715
"334" 0.000133603384024162 -0.000146958681164974 -6.13290892669557e-05 -0.000523667949079614 5.50555040005092e-05 -0.000196126163666087 0.000415583251493179 0.000114404394979907 0.000167467342062155 -0.000156166480376809 3.72779438897106e-05 -0.000240654433053468 -0.000172359784282842 0.000218138577743919 0.000324490017523589 -0.000306293456749259
"335" 0.000134643881642669 -0.000134614223768878 -6.26906686620211e-05 -0.000529410328596387 5.607101974098e-05 -0.000193347654554286 0.00042992383038818 0.00012926363875506 0.000169469691852113 -0.000152841801726366 4.21160360366236e-05 -0.000234836086263556 -0.000168135712395631 0.000223719338419475 0.000340212597013706 -0.000304991531148041
"336" 0.000136087591163585 -0.000122063398203357 -6.38295461837926e-05 -0.000535068406996701 5.74571100292337e-05 -0.000190244393691077 0.000445402624002241 0.000144682000746961 0.000171497552161152 -0.000149431697169485 4.69644610195161e-05 -0.000228607139029299 -0.000163915569615197 0.000229164564831142 0.000355944109693874 -0.000304083951441581
"337" 0.000137815821465432 -0.000109521123822101 -6.48222204245416e-05 -0.000540659527053684 5.91470271246147e-05 -0.000186884880399922 0.000461766497357742 0.000160427458457237 0.000173473385777135 -0.000146020122401174 5.17712812364318e-05 -0.000222006659134005 -0.000159778930115733 0.000234424361229055 0.000371561468705191 -0.000303649248356698
"338" 0.000139721962002129 -9.71932085681407e-05 -6.5724558777605e-05 -0.000546193473553332 6.10747866999288e-05 -0.000183325902654774 0.000478754898970182 0.000176273348563687 0.000175312496991699 -0.000142697221116442 5.64791910000735e-05 -0.000215069101188005 -0.000155800158285711 0.000239443488592128 0.000386943644053271 -0.000303759808025981
"339" 0.000141683258271519 -8.52923055356473e-05 -6.66174122474457e-05 -0.00055167785501992 6.3161981077147e-05 -0.000179632545214298 0.000496093272343277 0.000191975944801803 0.000176929693311709 -0.000139544600379346 6.10358016637313e-05 -0.000207834694072967 -0.000152051297081756 0.000244163913951232 0.000401969564787815 -0.000304471967389709
"340" 0.000143567873644028 -7.40393109177522e-05 -6.75617797218211e-05 -0.000557113517011513 6.53384321451589e-05 -0.000175868866321854 0.000513490965586248 0.000207287860210886 0.000178238952879287 -0.000136648735246956 6.53885594316096e-05 -0.000200334132166158 -0.000148603191554247 0.000248537013088754 0.000416518729808879 -0.000305829876712402
"341" 0.000145256548260552 -6.36428823255629e-05 -6.86265737357749e-05 -0.000562497376920682 6.75297339548462e-05 -0.000172092722779492 0.000530659884182251 0.000221964589982108 0.00017915304178137 -0.000134093689393951 6.94892231974211e-05 -0.000192604215857849 -0.000145525020597516 0.00025249875327114 0.000430472989056195 -0.000307862181557644
"342" 0.000146624628180835 -5.43092625904529e-05 -6.98760696667922e-05 -0.000567825216637219 6.96592690289997e-05 -0.000168369080918997 0.000547303149249348 0.000235758892127994 0.000179591652367805 -0.000131957096198118 7.32928079183603e-05 -0.000184673251997699 -0.000142881131426575 0.000256004324680771 0.000443719414773727 -0.000310593859309988
"343" 0.00014754483019008 -4.62328113210408e-05 -7.13713201445859e-05 -0.000573084429710499 7.16572442740732e-05 -0.000164752274449226 0.000563127179281307 0.00024842977930791 0.000179467695968152 -0.000130314617516019 7.6750187232741e-05 -0.000176574030804822 -0.000140732771236615 0.000258994823930503 0.000456149365179827 -0.000314023082105452
"344" 0.000147900831311894 -3.96076391958159e-05 -7.31648798948347e-05 -0.000578259491011778 7.3450582452017e-05 -0.000161297367414211 0.000577836010704179 0.000259740993558187 0.000178706859390696 -0.000129236591017266 7.98272347055703e-05 -0.000168334672259414 -0.000139128097322612 0.00026142341114007 0.000467655748610674 -0.000318146309393437
"345" 0.000147574653442655 -3.46049326919889e-05 -7.5315290804734e-05 -0.000583329564019822 7.49700563541014e-05 -0.000158059358094502 0.000591142449104228 0.000269469203544483 0.000177227739597463 -0.000128788524192055 8.24837097329116e-05 -0.000159981609773444 -0.000138119323072103 0.000263236060158137 0.000478146929345747 -0.000322935983938081
"346" 0.000146458000010846 -3.13876211180299e-05 -7.78609486084873e-05 -0.000588275289852132 7.61492352595105e-05 -0.000155084074258861 0.000602767932033181 0.000277400273566798 0.000174961030261262 -0.000129026904566613 8.46884028210958e-05 -0.000151538498497658 -0.000137744843347491 0.000264390537188434 0.000487529222454213 -0.000328361529971949
"347" 0.000144449877402843 -3.00989623032655e-05 -8.08482297031719e-05 -0.00059306374303959 7.6927169633754e-05 -0.00015241601105505 0.000612447207404561 0.000283332398770274 0.000171840768721088 -0.000130003821073057 8.64132655401594e-05 -0.00014303141709132 -0.000138044515285331 0.000264844064927272 0.00049572381581769 -0.000334377960693856
"348" 0.00014146114221786 -3.08578218914501e-05 -8.4303450854347e-05 -0.000597670051047236 7.72447553200648e-05 -0.000150093683720529 0.000619925384132898 0.000287090103120443 0.000167808522477027 -0.000131760434128638 8.76365479228148e-05 -0.000134483516959825 -0.000139038863038982 0.000264559405887008 0.00050265932144381 -0.000340926186760289
