"V1" "V2" "V4" "V5" "V7" "V8" "V10" "V11" "V13" "V14" "V15" "V17" "V18" "V20" "V21" "V23"
"1" 0.000167944188900545 -9.22163693303557e-05 -8.41644183285089e-06 -0.000138540237586278 0.000372385094935481 0.000214022468113861 0.000266625959036047 0.000135370577557747 -2.95903102146013e-05 -0.00116433467482505 5.01998854940927e-05 6.3263491874365e-05 -2.29821188102113e-05 7.01574237110795e-05 5.86341341798177e-05 -0.000100673336012878
"2" 0.000185964658903015 -8.23790287226528e-05 1.11069828923004e-05 -0.00011869614291552 0.00040435013740117 0.000229411895281504 0.000290412696707414 0.000156863583025807 -1.35976602018e-05 -0.00116212846568612 6.08695508906254e-05 7.69936084119337e-05 -1.68317209184761e-05 8.15230453002455e-05 7.10081951037639e-05 -7.79231819842417e-05
"3" 0.000204544108022171 -7.2045715485546e-05 3.16560475589829e-05 -9.80776924452436e-05 0.000436515214859266 0.000245313410942023 0.000314743537454027 0.000178631560208721 3.87486018849068e-06 -0.00115428140685794 7.236722919781e-05 9.15886530210009e-05 -9.75617460391332e-06 9.36323669635533e-05 8.35904129678971e-05 -5.38985086662097e-05
"4" 0.000223616082106039 -6.12634192136803e-05 5.31685731191403e-05 -7.67897185978657e-05 0.000468728477246885 0.000261667483294544 0.000339491671610625 0.000200541204973822 2.27309054912978e-05 -0.00114066796801247 8.46043942435955e-05 0.000106942553107042 -1.86945998711768e-06 0.000106452960500293 9.63152022258631e-05 -2.8782815043075e-05
"5" 0.000243103974946488 -5.00714353931742e-05 7.55803423931253e-05 -5.49347510523351e-05 0.000500845742249505 0.000278415267705165 0.000364541780349306 0.00022245549191577 4.28647449222905e-05 -0.00112122706651833 9.74942151023778e-05 0.000122953520115784 6.71099509073384e-06 0.000119944070847311 0.000109124969132971 -2.76570727502781e-06
"6" 0.000262935793457861 -3.85202442468456e-05 9.88157492646188e-05 -3.26256369246836e-05 0.000532717802010051 0.000295494298585275 0.000389774132217853 0.000244244140892162 6.41455090299504e-05 -0.00109593438753603 0.00011093052004726 0.000139519701455901 1.58661593468076e-05 0.000134054547348638 0.000121955438706509 2.39601397328851e-05
"7" 0.000283027754935069 -2.6656985677109e-05 0.000122794873671228 -9.97894026364113e-06 0.000564199773397688 0.000312842146754812 0.000415062283592795 0.000265784845979739 8.64351517859244e-05 -0.0010648237816246 0.000124814622369126 0.000156546688812639 2.5475858612766e-05 0.000148725764908106 0.000134746788769327 5.12001254159569e-05
"8" 0.000303297690691794 -1.45268252684123e-05 0.000147430958931363 1.28971370099013e-05 0.000595151824980002 0.000330394246289515 0.000440292523811275 0.000286957283306518 0.000109585523964749 -0.00102798588834435 0.000139039545191606 0.000173943685586842 3.54410868409101e-05 0.000163893616638298 0.000147442472894747 7.87571899065808e-05
"9" 0.000323657600589049 -2.18219043970059e-06 0.00017262324246857 3.58845363661934e-05 0.000625428644301471 0.000348081990821884 0.000465345018375605 0.000307653091430504 0.000133434790935447 -0.000985551289277174 0.000153494593029013 0.000191623995926726 4.56490716838441e-05 0.000179480828570931 0.000159987592270161 0.000106434258216831
"10" 0.000344022691283061 1.03272568975913e-05 0.00019827675818039 5.88800480159608e-05 0.000654893346525826 0.000365840250394748 0.000490112273844124 0.000327769083824232 0.000157814632251385 -0.000937715371355204 0.000168072369474729 0.000209510478018668 5.60067427758225e-05 0.000195412314441105 0.000172334287568791 0.000134039897805282
"11" 0.000364300121592623 2.29584039049097e-05 0.000224286930387382 8.17715647882138e-05 0.000683413678320195 0.00038359662574675 0.00051448230551506 0.000347216243366966 0.000182551398234198 -0.0008847152838955 0.00018266604676454 0.000227527014792901 6.64315793972221e-05 0.000211605858230412 0.000184433571083955 0.000161392685822075
"12" 0.000384399025822292 3.5653778417025e-05 0.000250545415286709 0.000104456039602964 0.000710854706280378 0.000401282704661713 0.000538346035941175 0.000365910058132699 0.000207465798132448 -0.000826834077481 0.000197161380816447 0.000245601602130443 7.68401803827134e-05 0.000227970850228751 0.000196246194638354 0.00018831492764886
"13" 0.000404226645054863 4.83647252637218e-05 0.000276937208433165 0.000126836507865778 0.000737090677885686 0.000418823962166063 0.000561608479910463 0.000383782130143931 0.000232367761554327 -0.000764405622989196 0.0002114546321986 0.000263668986987053 8.71682874565535e-05 0.000244415759911113 0.000207726200990545 0.00021463923905732
"14" 0.000423689727274814 6.10400205350538e-05 0.000303349058523651 0.000148815707611691 0.000761999953285462 0.000436145162415242 0.000584164913210126 0.000400764347165531 0.000257073468072255 -0.00069779895235495 0.000225436571053597 0.000281662919031636 9.73498883875749e-05 0.00026084180192585 0.000218839066386374 0.000240203051935153
"15" 0.000442692429040885 7.36267596400659e-05 0.000329660646941471 0.000170297061067671 0.000785465257293554 0.000453171467110652 0.000605920190032423 0.000416806320347486 0.000281390157241459 -0.000627419762180647 0.000239003259582173 0.000299523925550346 0.000107334922496876 0.00027714937659025 0.000229543848887045 0.000264866980433373
"16" 0.000461140838856942 8.60653627613378e-05 0.00035574991265915 0.000191191675640658 0.000807374759120128 0.000469826848701648 0.000626785425048317 0.000431856145046288 0.000305124633257631 -0.000553710483675925 0.000252048166170873 0.000317190269854784 0.000117074455906614 0.000293229872640247 0.000239804858343649 0.000288489731811776
"17" 0.000478943607434585 9.83034009863758e-05 0.000381492038272252 0.000211414532062812 0.00082761530865865 0.000486030419737245 0.000646667779322673 0.000445878628205858 0.00032808897551595 -0.000477146719038423 0.000264475691979975 0.000334600533974101 0.000126528083391791 0.00030897993267389 0.000249584882225935 0.000310952949911242
"18" 0.000496003492694518 0.000110282283572268 0.000406758176765875 0.000230881265467954 0.000846090122131349 0.00050170301152575 0.00066548586210924 0.000458838329910862 0.00035009181427898 -0.000398224395639356 0.000276185069691353 0.000351699096762774 0.000135661341254774 0.000324283653194198 0.000258848992519101 0.000332144222948245
"19" 0.000512232977463344 0.000121940764186028 0.000431426203822139 0.000249510207605716 0.000862706356322575 0.000516766553273188 0.00068316160661929 0.000470711543612541 0.000370946690515732 -0.000317475539040087 0.000287085461039716 0.000368426357955148 0.000144437622427947 0.000339030745101118 0.000267558028041233 0.000351974722971873
"20" 0.000527540788545587 0.000133213482550604 0.000455362411189176 0.000267215962435046 0.000877377789771425 0.000531139654451631 0.00069960590203131 0.000481472433855993 0.000390467530857678 -0.000235433612124443 0.00029708062318614 0.00038472067257732 0.00015283353831505 0.000353103973462265 0.000275667009040805 0.000370356064575047
"21" 0.000541840021805051 0.000144043012189619 0.000478435709317391 0.000283928251303798 0.000890022438922122 0.000544744295195451 0.00071475137905076 0.000491107672753316 0.000408478214917028 -0.000152670330524441 0.000306091529166206 0.000400525433561029 0.000160819774823849 0.000366384072989796 0.000283138543547634 0.000387223234576424
"22" 0.000555047414062086 0.000154359826063596 0.00050052047710709 0.000299565310433234 0.000900571829788924 0.000557502628024873 0.000728527095990552 0.000499604475205273 0.000424810057461853 -6.97557937934317e-05 0.000314031588530892 0.00041578247103614 0.00016837098954313 0.000378761269069977 0.000289927166103922 0.000402519009071799
"23" 0.000567083358476715 0.000164101769252151 0.000521482752685046 0.000314051345840185 0.000908968236973506 0.000569335018436049 0.000740862527412137 0.000506949472894177 0.000439295691646124 1.27209552281633e-05 0.000320828744096864 0.000430431953432435 0.000175470753673141 0.000390115053745239 0.000295991001671813 0.000416203580167119
"24" 0.000577870238613059 0.000173199216565556 0.00054120356925303 0.000327315193639366 0.000915161895909606 0.00058017128825095 0.000751698055196816 0.000513142444436442 0.000451785170639861 9.41677693135526e-05 0.000326411856111941 0.000444419930974151 0.000182093335725039 0.000400337045144529 0.000301285612194496 0.000428254722513819
"25" 0.000587339963412083 0.000181585749180007 0.0005595492675253 0.000339282744100688 0.000919111215806726 0.000589937505855044 0.00076097678508429 0.000518175269129275 0.000462139174282848 0.000173984227119738 0.000330722000843547 0.000457689543424993 0.000188224660495519 0.000409316670524832 0.000305761495141171 0.000438656110252035
"26" 0.000595423818687261 0.000189195641594399 0.000576402325380637 0.000349882615469853 0.00092079055681873 0.000598569185143243 0.000768641578824711 0.000522048263231846 0.000470223141324333 0.000251595223477385 0.000333703395244534 0.000470184604605875 0.000193836676906516 0.000416947832649081 0.000309371115225888 0.000447400591616518
"27" 0.000602061166703829 0.000195966091506545 0.000591646349334208 0.000359047026737651 0.000920180765222523 0.000605999721773464 0.000774653466421555 0.000524764887508768 0.000475929888223193 0.000326408293915998 0.000335310184760734 0.00048185535983424 0.000198923016385771 0.000423133430261181 0.000312073284825592 0.000454508696091442
"28" 0.00060720154210705 0.000201830033416209 0.00060516360932882 0.000366711404215247 0.000917277078425904 0.000612174735991718 0.000778967749820047 0.000526327083385504 0.000479152865324681 0.000397848249939779 0.000335503562870492 0.000492656315052772 0.000203462001067783 0.000427782549921758 0.000313820760282093 0.000459999964907552
"29" 0.000610792396218312 0.000206728011579876 0.000616852378548588 0.000372811578284913 0.000912087087014258 0.000617039132731033 0.00078155263713163 0.000526740923987927 0.000479813217633208 0.00046537817272115 0.000334260212478755 0.000502537645879579 0.000207441091291786 0.000430812978241509 0.000314573188028795 0.000463908889691654
"30" 0.000612796292912304 0.000210602145234456 0.000626604927622439 0.00037728818862934 0.000904628608331518 0.000620550286942996 0.00078238025874573 0.00052601557707915 0.00047784502372428 0.000528467431598574 0.000331558006990759 0.000511459323275907 0.000210848142322266 0.000432147082605805 0.000314288159502898 0.000466282319189485
"31" 0.000613180430667337 0.000213393394142612 0.000634336079479367 0.000380083572398033 0.000894931171257799 0.000622665702907707 0.000781431811741323 0.000524159942704005 0.000473202307501893 0.000586631457366774 0.000327391024907834 0.000519386804069103 0.000213672028130069 0.000431723698037527 0.000312932791098927 0.000467174423393546
"32" 0.000611914472170183 0.000215055613700962 0.000639955985603393 0.000381155648241114 0.000883035443843944 0.000623353677438772 0.000778699778398001 0.000521184613580427 0.000465859134287429 0.000639419401846048 0.000321762126299184 0.000526284819326533 0.000215907568628021 0.000429495878383814 0.000310475860982145 0.000466649165519432
"33" 0.000608984309139324 0.00021554052894991 0.0006433896484808 0.000380454830944645 0.000868997736827012 0.000622591646365227 0.000774175580980609 0.000517108238067988 0.000455804726726625 0.000686426313996557 0.000314687234354556 0.000532126479942909 0.000217548444162606 0.000425416575494175 0.000306887836515714 0.000464777713666556
"34" 0.000604377466735483 0.000214810651901615 0.000644574773007127 0.000377950328899051 0.000852879416866944 0.000620360980741598 0.000767873576648933 0.000511944478224161 0.000443062128183384 0.000727310870648989 0.000306188720085311 0.000536889167473827 0.000218596574468053 0.000419468115249871 0.000302154469849069 0.000461645466226859
"35" 0.000598092993860201 0.000212827926610476 0.000643456981444118 0.000373611788465748 0.000834757268381474 0.000616655253937313 0.000759802215487178 0.000505715433153668 0.000427656663001005 0.000761767747785467 0.000296305556866983 0.000540559062760224 0.000219046433185817 0.000411633107304774 0.000296257199786179 0.000457333361603127
"36" 0.000590139137812215 0.000209569943007963 0.000639997644106341 0.000367421123263746 0.00081471807824562 0.00061147287488673 0.000749989381541112 0.000498441503149501 0.000409647068666779 0.000789583133063529 0.000285082280906434 0.000543118712578801 0.0002189126950153 0.000401917289267686 0.000289194106155204 0.000451938386392059
"37" 0.00058052706034008 0.000205016302199712 0.000634168641742876 0.000359371054012068 0.000792858518848553 0.000604822399130561 0.000738469675280186 0.000490149424198603 0.000389110175850974 0.000810588647558888 0.000272574936435785 0.000544563309754917 0.000218199777384011 0.000390336430420121 0.000280966253955324 0.000445551524842678
"38" 0.000569288465970908 0.000199154997382034 0.000625955415135827 0.000349462233055438 0.000769276595612832 0.000596721769521677 0.000725285790003143 0.00048086944963866 0.000366147456231559 0.000824701922969553 0.00025885080565357 0.000544892722320244 0.000216917287505862 0.000376924864167554 0.000271582502277081 0.000438275759789849
"39" 0.000556449924051199 0.000191986355162358 0.000615362074236287 0.000337708705459601 0.000744089352621273 0.000587193490509693 0.000710494038627751 0.000470630545102692 0.000340866022579253 0.000831906583575423 0.000243988939649914 0.000544105737768948 0.000215088944086864 0.000361726638330261 0.000261062480174827 0.000430211458245217
"40" 0.000542060839595634 0.000183515822116114 0.000602404399080316 0.000324140592383633 0.000717414867898663 0.000576273713019341 0.000694154077396518 0.000459470638316414 0.000313407813157596 0.000832261017348297 0.000228072853067307 0.000542209968749908 0.000212724738447347 0.000344808492134826 0.00024943194892984 0.000421463061522512
"41" 0.000526165867615387 0.000173756679461645 0.000587112581318602 0.000308791781765563 0.000689383510782165 0.000564001828875911 0.000676338469931941 0.000447424910362639 0.000283927884923677 0.000825899694803123 0.000211196684088658 0.000539216281927552 0.000209857774476383 0.000326244758204086 0.000236724788594009 0.000412135510560988
"42" 0.000508832685760965 0.000162735594999022 0.000569537724126045 0.00029171610275605 0.000660124689203028 0.000550429293542158 0.000657132086794207 0.000434537767060852 0.000252589277938161 0.000813026379283902 0.000193462088729621 0.00053513745220088 0.000206502349256017 0.000306126508784782 0.000222982482462611 0.000402328419259197
"43" 0.000490131210362883 0.000150486356691593 0.000549748484183473 0.000272979399319762 0.00062978224345774 0.000535610323120021 0.000636620059445396 0.000420850436150904 0.000219582211771635 0.000793914511063925 0.000174975087538241 0.000529990764456826 0.000202689769977434 0.000284555481258593 0.000208257087756333 0.000392143733635833
"44" 0.000470137927066474 0.000137056803614956 0.000527821413398948 0.000252662154677613 0.000598494109762586 0.000519610143729407 0.000614906036352463 0.000406416736601167 0.000185106699377811 0.000768887562547146 0.000155847638988879 0.000523800556446491 0.000198449190961207 0.000261651967264351 0.000192605828603586 0.000381678668336228
"45" 0.000448939657340344 0.000122493831490788 0.00050385465649214 0.000230851270044768 0.000566410800808062 0.000502498353554914 0.000592097444224914 0.000391283988857731 0.000149371242474198 0.000738342943600742 0.000136197709745836 0.000516583705402446 0.000193811654440425 0.000237539036801418 0.000176091603180036 0.000371029335603475
"46" 0.000426635237781668 0.000106863005385902 0.00047796562733435 0.00020765774707548 0.00053368381091778 0.000484354079636616 0.00056830639706862 0.000375507000526585 0.000112596586112887 0.000702722382032368 0.000116145245922024 0.0005083673474163 0.00018880229664736 0.000212353979184017 0.000158782565319634 0.000360277485510227
"47" 0.000403330385984185 9.02367007235618e-05 0.000450277605359162 0.000183191251661381 0.000500459828853084 0.000465258926885043 0.000543649781924915 0.00035914208405603 7.50103713465317e-05 0.000662501536434309 9.58127746426245e-05 0.000499179240919607 0.000183453737946787 0.000186243547673276 0.000140755230105964 0.000349509237008803
"48" 0.000379129968814479 7.26876493981809e-05 0.000420934864422688 0.000157579709247137 0.000466897950053779 0.00044530004698154 0.000518258512622168 0.000342248886600793 3.68492627606863e-05 0.000618205071673286 7.53193790076927e-05 0.000489046780299352 0.000177792319994541 0.000159358118620801 0.000122086266920554 0.000338799829332414
"49" 0.000354149620173488 5.43051173916668e-05 0.000390090332515478 0.00013095665850007 0.000433144866193455 0.000424569061001551 0.000492257851292302 0.00032488261878022 -1.65201420297023e-06 0.000570380339991225 5.47891696883052e-05 0.000477995551376828 0.000171837952082804 0.000131854664410364 0.000102851801446037 0.000328210051250528
"50" 0.000328521317342744 3.51778266691316e-05 0.000357915114799014 0.000103473171238819 0.000399361626376812 0.000403163938941085 0.000465788472467638 0.000307110038490076 -4.02547334723927e-05 0.000519583969700921 3.43400470900837e-05 0.000466063513152093 0.00016562016926591 0.000103893867101295 8.31390197702894e-05 0.00031780650528721
"51" 0.000302361248173809 1.54079225713965e-05 0.000324581070835487 7.52767309523188e-05 0.000365697489002005 0.000381185177997227 0.000438980211300551 0.000288993437662515 -7.87181900849427e-05 0.000466394064024274 1.40888394533436e-05 0.000453280913240331 0.000159158623069847 7.56401598457348e-05 6.30291557865394e-05 0.000307633001961747
"52" 0.000275807905153761 -4.9095355378856e-06 0.000290280015276165 4.65205825895107e-05 0.000332303031925157 0.000358735338657139 0.000411972561142817 0.000270592024604966 -0.000116812859225249 0.000411393879473626 -5.84873252147665e-06 0.000439679425839831 0.000152465231376691 4.72544915557565e-05 4.26011996028086e-05 0.000297732498865403
"53" 0.000248988697795205 -2.56648353584107e-05 0.000255205238193392 1.7369128016938e-05 0.000299323918443018 0.000335917337371267 0.000384905073710308 0.000251974705414542 -0.000154306912640535 0.000355151547570081 -2.53709662731614e-05 0.000425297093238525 0.00014555199276708 1.88965882470832e-05 2.19408968238026e-05 0.000288132331208576
"54" 0.000222040619618966 -4.6747688601966e-05 0.000219550991898727 -1.20178663728112e-05 0.000266909180565226 0.000312838588281353 0.000357918581867358 0.000233201943722201 -0.000190980605532334 0.000298231299722578 -4.4371112169939e-05 0.000410171732351479 0.000138433662140577 -9.2714212213103e-06 1.12674891739392e-06 0.000278855238072209
"55" 0.000195097758590729 -6.80577042553566e-05 0.000183526631336744 -4.14780277600292e-05 0.000235194620383078 0.000289604305601897 0.000331143915847164 0.000214337328088143 -0.00022662345181323 0.000241190688569184 -6.27587089048215e-05 0.000394338406239362 0.00013110261701117 -3.71013344923235e-05 -1.97674788589713e-05 0.000269909275724639
"56" 0.000168295018391262 -8.94786046633924e-05 0.000147332108863828 -7.08485121677192e-05 0.000204314962646842 0.00026632505951216 0.000304711978066668 0.000195442916487017 -0.00026103649894347 0.000184552333820466 -8.04467291572387e-05 0.000377841136741989 0.000123565080292358 -6.44428022043483e-05 -4.06718966468621e-05 0.000261298480336808
"57" 0.000141760694833536 -0.000110904320595544 0.000111175956603509 -9.99740046584776e-05 0.000174399919709697 0.000243100772079619 0.000278753882218815 0.000176578791764712 -0.000294028353160654 0.000128823485706333 -9.73553746545843e-05 0.000360719934208917 0.000115811912361864 -9.11620600387891e-05 -6.15160958051246e-05 0.000253011565710822
"58" 0.000115627855517023 -0.000132226880065078 7.52610572101398e-05 -0.000128699419583178 0.000145569586896849 0.000220039527266749 0.000253390158421012 0.000157808993280376 -0.000325429185906588 7.44743464894496e-05 -0.000113418939688647 0.000343019599793823 0.000107839157606187 -0.000117122393104167 -8.22377292330117e-05 0.00024503588824429
"59" 9.00219512516855e-05 -0.000153342697640813 3.97906752500483e-05 -0.000156874595635065 0.000117944116765099 0.000197243917839378 0.000228745000183186 0.000139188053502388 -0.00035508011701519 2.19520577599829e-05 -0.000128575554211231 0.000324785983880147 9.96322460528623e-05 -0.000142206911444643 -0.000102778842429402 0.000237341657372133
"60" 6.50599969531558e-05 -0.000174147296844782 4.95990543655067e-06 -0.000184358477243774 9.16237028861989e-05 0.000174808983286538 0.000204922053198243 0.000120779106437189 -0.000382837812344474 -2.83417776405363e-05 -0.000142771543770168 0.000306067509168247 9.11818663586386e-05 -0.000166301023577622 -0.000123086137341571 0.000229897130218811
"61" 4.08574937700665e-05 -0.000194547322848668 -2.90422071715965e-05 -0.000211016264400428 6.67058706625525e-05 0.000152832730566801 0.000182025787063212 0.000102632304222476 -0.000408579937808326 -7.60142481084069e-05 -0.000155974527442025 0.000286914757985609 8.24728067980696e-05 -0.000189306908992688 -0.000143112395345315 0.00022266915954002
"62" 1.7522947030442e-05 -0.000214452065015475 -6.20290425937891e-05 -0.00023672423804829 4.32858895360109e-05 0.000131405335028882 0.000160151101465897 8.48052994408561e-05 -0.000432200831897725 -0.000120745345527231 -0.00016814675463898 0.000267379357690168 7.34864074408469e-05 -0.000211136808277263 -0.0001628162866794 0.000215611698280259
"63" -4.8458656788727e-06 -0.000233770392496573 -9.38277400489215e-05 -0.000261363748654205 2.14331024892377e-05 0.000110611110999068 0.000139386591914613 6.73512166826945e-05 -0.000453607579099656 -0.000162226452671869 -0.000179272084101005 0.000247516653090448 6.42113867584654e-05 -0.000231710861139667 -0.000182162119831809 0.000208676763592848
"64" -2.61545228478353e-05 -0.000252423583757424 -0.000124272875137695 -0.000284828660168642 1.21944420924389e-06 9.05302031512881e-05 0.000119806297547333 5.0319815637463e-05 -0.000472728764481488 -0.000200195134779805 -0.000189333985295783 0.000227381508659459 5.46347426277864e-05 -0.000250968363458724 -0.000201114790266 0.000201814909543888
"65" -4.63219070138676e-05 -0.000270340214755405 -0.000153209605704166 -0.000307021978414813 -1.73005120061657e-05 7.12380786055839e-05 0.000101473750473236 3.37616325121545e-05 -0.000489515516806848 -0.000234417270063383 -0.000198333036712104 0.000207031678236792 4.47446528932437e-05 -0.000268852333383893 -0.000219650408475472 0.000194978143943454
"66" -6.52720949371272e-05 -0.000287448212641492 -0.000180496523171451 -0.000327858108587757 -3.40803787745657e-05 5.27981251722583e-05 8.44535747598205e-05 1.77239665120659e-05 -0.00050392881892101 -0.000264710314864722 -0.000206276236097128 0.000186526440465695 3.45311199369226e-05 -0.000285323898813237 -0.000237743511120016 0.000188107058208891
"67" -8.29402111022409e-05 -0.000303692579662186 -0.000206004412962444 -0.000347261872938957 -4.90894917593329e-05 3.52726973354963e-05 6.87828117144137e-05 2.24948978113092e-06 -0.000515953637643426 -0.000290917888218124 -0.000213178058975979 0.000165923066292534 2.39865123510142e-05 -0.000300354918033082 -0.000255379032371377 0.000181155467069482
"68" -9.92697209135262e-05 -0.000319015152906308 -0.00022961218050641 -0.000365165553230192 -6.23025658143374e-05 1.87121082691785e-05 5.45070668603258e-05 -1.26112536606649e-05 -0.00052558760161408 -0.000312929085974786 -0.000219061390147241 0.000145288362635496 1.31205532932817e-05 -0.00031392191435087 -0.000272536050096273 0.00017407195973552
"69" -0.000114218318128342 -0.000333373544497887 -0.000251221885779875 -0.000381523987953471 -7.3713352881661e-05 3.1599364043467e-06 4.16438917515559e-05 -2.68237607323616e-05 -0.000532850654091553 -0.000330655272410641 -0.000223957160070084 0.0001246763214569 1.92654506292691e-06 -0.000326026938818279 -0.000289210508332572 0.000166808972200591
"70" -0.000127749444816428 -0.000346729544528076 -0.000270740041920713 -0.000396288905731035 -8.3327045910708e-05 -1.13476057539469e-05 3.02133188556391e-05 -4.03458265362277e-05 -0.000537773769250332 -0.00034405869018747 -0.00022790490555151 0.000104151302624287 -9.58528300312645e-06 -0.00033666798167381 -0.0003053866060127 0.000159321449641357
"71" -0.00013983889839093 -0.000359054528026286 -0.000288092404645698 -0.000409430173044597 -9.11546071217168e-05 -2.4783605491772e-05 2.02203468075042e-05 -5.31396372771502e-05 -0.000540405495643483 -0.000353129839728609 -0.000230946084708946 8.37739365197277e-05 -2.13977861191465e-05 -0.00034586136053347 -0.000321064244126665 0.000151573460575293
"72" -0.000150468992455734 -0.000370320826208616 -0.000303222559848566 -0.000420929010178769 -9.72257154976002e-05 -3.71306447269243e-05 1.16556784874218e-05 -6.51715949334251e-05 -0.000540810289035257 -0.000357896405008157 -0.000233133506307275 6.36035865863653e-05 -3.34916783900452e-05 -0.000353632067373427 -0.00033623220555829 0.000143527501193365
"73" -0.000159634889226683 -0.000380513819972438 -0.000316082780243323 -0.000430771684576999 -0.000101576632587771 -4.83769426734174e-05 4.50722382099699e-06 -7.6411727242888e-05 -0.00053906385493813 -0.000358426875684105 -0.000234518630256196 4.37003130842816e-05 -4.58407896702884e-05 -0.000360008231150857 -0.000350892520913211 0.000135154476721164
"74" -0.000167343669842445 -0.000389626787808425 -0.000326643349524927 -0.000438965293281219 -0.000104259390083056 -5.85220638093448e-05 -1.25207485299625e-06 -8.68312156367816e-05 -0.000535259025250119 -0.000354816780791756 -0.000235161830359689 2.41187303008882e-05 -5.84190618897225e-05 -0.000365040629317814 -0.000365044845054676 0.000126433252278985
"75" -0.000173609027582565 -0.00039765806177802 -0.000334892101619395 -0.000445519291966046 -0.000105335977317584 -6.7574714104101e-05 -5.66099857886746e-06 -9.64059107813696e-05 -0.000529499083114297 -0.000347196427023726 -0.000235130431252127 4.91354221488763e-06 -7.1190472891232e-05 -0.000368772581622442 -0.000378690169850817 0.000117343243700219
"76" -0.000178454816203893 -0.000404610969805616 -0.000340826727375303 -0.000450455701834447 -0.000104877656079044 -7.55470768640976e-05 -8.75753137960275e-06 -0.000105116574257544 -0.000521893443408309 -0.000335737152360028 -0.000234485241041413 -1.38606341741749e-05 -8.41176757347272e-05 -0.000371263131256529 -0.000391830495225072 0.000107875707697865
"77" -0.000181915262794461 -0.000410499397787879 -0.000344465875351953 -0.000453803220433646 -0.00010296616721561 -8.24677038089333e-05 -1.06000342739873e-05 -0.000112945365803735 -0.000512572236067491 -0.000320645399122124 -0.000233296620195719 -3.21578547106748e-05 -9.71546866297147e-05 -0.000372575058358964 -0.000404466787690451 9.80277710818276e-05
"78" -0.000184029884562848 -0.000415342948009405 -0.000345839035101543 -0.000455608193570911 -9.96920848576128e-05 -8.83647311160981e-05 -1.12498916357436e-05 -0.00011988115582048 -0.000501664074707274 -0.000302154334682662 -0.000231633504988187 -4.99283921175579e-05 -0.000110256606383348 -0.000372778623127633 -0.000416607146904901 8.78023247338519e-05
"79" -0.000184852493619103 -0.000419162057286767 -0.000344992659645803 -0.000455914311503312 -9.51542169417305e-05 -9.32757253253074e-05 -1.07718657515452e-05 -0.000125915357587018 -0.000489315060524414 -0.000280546416411089 -0.000229566488585485 -6.71284564160691e-05 -0.000123374150775174 -0.000371949766087936 -0.000428252779459114 7.72036355905437e-05
"80" -0.000184437908522971 -0.000421989611959858 -0.00034198500483345 -0.000454786381705125 -8.94639268000643e-05 -9.72510031631513e-05 -9.24785606276997e-06 -0.000131048789249312 -0.00047566839749722 -0.00025611736700857 -0.000227167236258579 -8.37208242964634e-05 -0.00013645633042639 -0.00037016578781983 -0.000439414365994086 6.62482134611703e-05
"81" -0.00018285831356997 -0.000423859201786971 -0.000336892909335684 -0.000452291029030974 -8.27325937622003e-05 -0.000100339973921856 -6.76036633804489e-06 -0.000135282615095945 -0.000460878776176951 -0.000229213379815772 -0.000224504131360593 -9.96679029123734e-05 -0.000149451794024846 -0.000367507844706824 -0.000450091162869123 5.49606337647813e-05
"82" -0.000180181942439607 -0.000424814540087599 -0.000329799438725983 -0.000448502328320536 -7.50805499105759e-05 -0.000102599168369846 -3.39665769449569e-06 -0.000138627646726219 -0.000445104159432298 -0.000200196116417939 -0.000221644247618904 -0.000114939106067722 -0.000162304644649837 -0.000364061888887391 -0.000460296018603724 4.33627857066394e-05
"83" -0.000176491620711038 -0.00042489691195511 -0.000320806986762231 -0.000443503672750386 -6.66386663655129e-05 -0.000104095379782054 7.46587105156477e-07 -0.000141094268390269 -0.000428508606885152 -0.000169462009856526 -0.000218657398247882 -0.000129507703685095 -0.000174963217159983 -0.000359916548744782 -0.00047003336721018 3.14846130622852e-05
"84" -0.000171873138443264 -0.000424158649996055 -0.000310026900152453 -0.000437382354367845 -5.75314987213424e-05 -0.000104896294019183 5.56629852184533e-06 -0.000142706260605041 -0.000411253267425822 -0.000137434929719485 -0.000215608664495849 -0.000143349228494677 -0.000187374809385664 -0.00035516042522939 -0.000479313449170049 1.93628848627316e-05
"85" -0.000166417565817478 -0.00042264916365836 -0.000297579604532259 -0.000430235271426991 -4.78974534688963e-05 -0.000105073123707116 1.09667103748369e-05 -0.000143486003561663 -0.000393498785927903 -0.000104557837471147 -0.000212552059846892 -0.000156443844338305 -0.000199484525673224 -0.000349878779741607 -0.000488137430212966 7.03636004478635e-06
"86" -0.000160222457413021 -0.00042042732190827 -0.000283600692668934 -0.000422161866648342 -3.78709444557498e-05 -0.000104700727792509 1.68376395655629e-05 -0.000143466047942605 -0.000375410451141153 -7.12889149772925e-05 -0.000209550328370221 -0.000168779333738021 -0.000211250526706008 -0.00034416550633074 -0.000496519733111435 -5.45334448479435e-06
"87" -0.000153384960058117 -0.000417546980775866 -0.000268230870112404 -0.000413263403637051 -2.75894224379843e-05 -0.000103857697394595 2.30685405445772e-05 -0.000142682636446534 -0.000357146222536098 -3.8104341131236e-05 -0.000206656423688641 -0.000180342220458271 -0.000222613222960883 -0.000338099922698734 -0.000504463016424159 -1.80560461153719e-05
"88" -0.000146012907325721 -0.000414074335637874 -0.000251620804532856 -0.000403652170351236 -1.71898718115372e-05 -0.000102625966472169 2.95551800837034e-05 -0.000141174735473057 -0.000338869758831713 -5.49033814432461e-06 -0.000203916315863723 -0.000191128368362602 -0.000233537011879839 -0.000331776294962597 -0.000511979483913341 -3.07300628824129e-05
"89" -0.00013820950762164 -0.000410068475022802 -0.000233928006670735 -0.000393433841142323 -6.80830723777682e-06 -0.000101082791733477 3.61832769217265e-05 -0.000138990836030306 -0.000320728820093406 2.6070290804901e-05 -0.000201376871362304 -0.000201132758105991 -0.000243971941452614 -0.000325273016579329 -0.000519069134599516 -4.34176742810179e-05
"90" -0.000130081630430127 -0.000405594752354125 -0.000215318406720299 -0.000382723587854071 3.41899349815966e-06 -9.93091190085833e-05 4.28461216704859e-05 -0.000136181725060686 -0.000302872524550207 5.60964364746153e-05 -0.000199073187272055 -0.000210357377209505 -0.000253885134459513 -0.000318669691754618 -0.000525744243312764 -5.6074917229455e-05
"91" -0.000121737994856818 -0.00040071396200069 -0.000195953561799954 -0.00037163191989643 1.33630387776136e-05 -9.73885101492074e-05 4.9435476997252e-05 -0.000132803450307681 -0.000285442683370428 8.41186357570178e-05 -0.000197041303154751 -0.00021881028259708 -0.000263237707146243 -0.000312044090205246 -0.000532008844639706 -6.86438095531665e-05
"92" -0.000113284268469884 -0.000395490911811822 -0.000176012341108323 -0.00036027044427474 2.28993214996844e-05 -9.54005920584952e-05 5.58482044829995e-05 -0.000128912590242968 -0.000268573386899379 0.000109678708313401 -0.000195306018321621 -0.000226496711779433 -0.000271995988429424 -0.000305466106019887 -0.00053786369434698 -8.10711500540998e-05
"93" -0.000104833601961064 -0.000389989582522418 -0.000155665709982262 -0.00034874973338337 3.18982321875082e-05 -9.34189362015452e-05 6.19797078537271e-05 -0.000124571758619735 -0.000252384757475809 0.000132353791990555 -0.00019388888850688 -0.000233429793668175 -0.000280131611698481 -0.0002990004749739 -0.000543317306186287 -9.33063509992418e-05
"94" -9.64861437814614e-05 -0.000384270249418719 -0.000135084405646211 -0.000337174957029099 4.02510589680834e-05 -9.15197802847808e-05 6.77374011203882e-05 -0.00011984586757914 -0.000236993804116621 0.000151748697788922 -0.000192807001058814 -0.000239623410493019 -0.00028761782386944 -0.000292712304824141 -0.000548370497006613 -0.000105292736691934
"95" -8.83430535706049e-05 -0.000378392616119724 -0.000114443906328214 -0.000325652997423753 4.7852168301995e-05 -8.97744791386383e-05 7.30264864018822e-05 -0.000114802989420046 -0.000222503575225974 0.000167502177421848 -0.000192067645520528 -0.000245092687156225 -0.000294435523942626 -0.00028665315604842 -0.000553020282090216 -0.000116979712060241
"96" -8.05042846642375e-05 -0.000372415384898892 -9.391478540625e-05 -0.000314283164094824 5.45951108026797e-05 -8.82453529110594e-05 7.77605120410363e-05 -0.000109507091507437 -0.000209005807216426 0.000179308391631268 -0.000191675007668751 -0.000249859196783167 -0.00030056334759514 -0.000280870909058373 -0.000557269966693063 -0.000128313466323088
"97" -7.30631774848033e-05 -0.000366393862868519 -7.36631384324231e-05 -0.000303160534550917 6.03947287563709e-05 -8.6998982864642e-05 8.18637905755509e-05 -0.000104032977916524 -0.000196586290465751 0.000186909171190661 -0.000191629959022025 -0.000253941798325407 -0.000305992020490775 -0.000275410887215226 -0.000561116187636343 -0.000139246732575787
"98" -6.61060205506683e-05 -0.000360377414800456 -5.38520333933165e-05 -0.00029237193189106 6.51726891818226e-05 -8.6088653633674e-05 8.52683755776958e-05 -9.84421468659844e-05 -0.000185304299976723 0.000190097717305482 -0.000191920665537323 -0.000257361503457946 -0.000310698002873745 -0.000270302200145941 -0.000564552141078498 -0.000149727030939596
"99" -5.97188525578886e-05 -0.000354415288887645 -3.4634645346625e-05 -0.000282000450741849 6.8852178895721e-05 -8.55670797134987e-05 8.79065046739108e-05 -9.28096197952571e-05 -0.000175222921888111 0.000188739153386996 -0.000192537823283514 -0.000260145568052692 -0.000314685399046127 -0.000265579096255913 -0.000567575588345044 -0.000159714750175457
"100" -5.39722049483666e-05 -0.000348553359949533 -1.61627305606008e-05 -0.000272117025134652 7.13815420767463e-05 -8.54737920527433e-05 8.97296877860394e-05 -8.71998520136638e-05 -0.000166379316028035 0.000182757120123792 -0.000193458236632784 -0.000262316099279172 -0.00031794070007705 -0.000261256918938475 -0.000570180445492336 -0.000169158997579342
"101" -4.89356268837536e-05 -0.000342828410206495 1.42499615640671e-06 -0.000262792570173976 7.27122270085384e-05 -8.58502782625438e-05 9.06895592392229e-05 -8.16773312340685e-05 -0.000158801010554323 0.000172138469298856 -0.000194661824135091 -0.000263898814006748 -0.000320464826742125 -0.000257350647738641 -0.000572352962669923 -0.000178024129037056
"102" -4.46713278320561e-05 -0.00033727850837976 1.79978294921077e-05 -0.000254082476207819 7.28071184617275e-05 -8.67211609262534e-05 9.07511748914095e-05 -7.6308979839197e-05 -0.000152510035365663 0.000156941870653725 -0.000196121890215381 -0.000264919893287784 -0.000322257583641072 -0.000253871798922294 -0.000574090670798775 -0.000186271510448109
"103" -4.12231523688191e-05 -0.000331937809552129 3.34436064026416e-05 -0.00024603738209495 7.16510051069112e-05 -8.81116018900816e-05 8.98981407176747e-05 -7.11519345123353e-05 -0.000147503213705974 0.000137293481461153 -0.000197808158481945 -0.000265404224703788 -0.00032332515836647 -0.000250810342792639 -0.000575380168836749 -0.000193866544965214
"104" -3.86383137518893e-05 -0.000326828315361061 4.76491584174965e-05 -0.000238692335448711 6.92310292175003e-05 -9.0037035345742e-05 8.81089014353647e-05 -6.62631284492275e-05 -0.000143768514343505 0.000113372175976248 -0.000199682078210808 -0.000265375445102513 -0.000323672021018164 -0.000248164453487616 -0.000576208402523661 -0.000200779231447996
"105" -3.69449273193634e-05 -0.000321971742319194 6.05210094358221e-05 -0.000232083942976646 6.55536605711484e-05 -9.2501118740084e-05 8.5382697014574e-05 -6.16974542131767e-05 -0.000141288276963366 8.5427711943932e-05 -0.00020170949154617 -0.00026486127069845 -0.000323308374038367 -0.000245922449524756 -0.000576568655202211 -0.000206986205903478
"106" -3.61680317818952e-05 -0.000317388634584694 7.19814296266563e-05 -0.000226231426613259 6.06335779122061e-05 -9.55048729276565e-05 8.17290194705264e-05 -5.75010267063292e-05 -0.000140022570525938 5.37581540183008e-05 -0.00020384586808195 -0.000263882650770578 -0.000322245364113268 -0.000244059465318274 -0.000576445959264828 -0.000212462396486572
"107" -3.63177059607565e-05 -0.000313088723951107 8.1958296093248e-05 -0.000221147767211933 5.450528509391e-05 -9.90378779698392e-05 7.71628778825989e-05 -5.37207682535061e-05 -0.000139928129681801 1.87155776734085e-05 -0.000206051465387548 -0.000262465816719267 -0.000320498018421473 -0.000242554061739916 -0.000575830667313891 -0.000217197794748617
"108" -3.73987928290437e-05 -0.000309081323783723 9.04019864168727e-05 -0.000216835888124856 4.72061503578357e-05 -0.000103085588527166 7.17091124598486e-05 -5.03939327061904e-05 -0.000140945403922232 -1.93036326260326e-05 -0.000208284937412316 -0.000260633339598733 -0.000318089929588268 -0.000241379535790296 -0.000574716316406885 -0.000221180200385144
"109" -3.94018671301696e-05 -0.000305370714494683 9.72728771638448e-05 -0.000213290454869268 3.87964715257625e-05 -0.000107621201860134 6.54079326442194e-05 -4.75517960208286e-05 -0.000143006979483432 -5.98723019809805e-05 -0.000210495991698092 -0.000258403549576915 -0.000315036491681982 -0.000240492077416252 -0.000573090497224261 -0.000224403087787355
"110" -4.23094301591367e-05 -0.000301955489613678 0.000102546022730555 -0.000210503525787246 2.93369040491052e-05 -0.000112617782259653 5.830157872743e-05 -4.52254393287599e-05 -0.000146041207332841 -0.000102523482620912 -0.000212644462537224 -0.000255802279176361 -0.000311366726676979 -0.00023986226043741 -0.000570953348696686 -0.000226864696701199
"111" -4.60947768594908e-05 -0.000298830302381865 0.000106216062369178 -0.000208444390664291 1.89103631825688e-05 -0.000118036389362874 5.04462065117836e-05 -4.34335862359801e-05 -0.000149958349847959 -0.000146786649244588 -0.000214684746635506 -0.000252843882170711 -0.000307102471159023 -0.000239443438806001 -0.0005682929346791 -0.00022857406229663
"112" -5.07226772443791e-05 -0.000295988273494063 0.000108283282489361 -0.000207096960198966 7.59916588121394e-06 -0.000123835898593444 4.18990537454492e-05 -4.21986284441814e-05 -0.000154672633044877 -0.000192152835450519 -0.00021657319504107 -0.000249551793709712 -0.000302280266741353 -0.000239197735041377 -0.000565117939501015 -0.000229544389297917
"113" -5.6150584841469e-05 -0.000293419655706065 0.00010876771582393 -0.000206421454374787 -4.49750730502443e-06 -0.000129964119045122 3.2732657609768e-05 -4.15260288898057e-05 -0.000160085281803563 -0.000238122126851507 -0.000218268966298324 -0.000245943021056312 -0.000296932983300879 -0.000239071666654223 -0.000561426055971833 -0.00022979141017465
"114" -6.23213752217519e-05 -0.000291108615018584 0.000107700092203109 -0.000206379150064636 -1.7275089055249e-05 -0.00013636956105044 2.30238155617913e-05 -4.14209891780939e-05 -0.000166096900262109 -0.00028419484151171 -0.000219731927770898 -0.00024203253254463 -0.000291093171430345 -0.00023902446816391 -0.00055722470785869 -0.000229338148605909
"115" -6.91766332698508e-05 -0.00028903707560614 0.000105133356542101 -0.000206919684658576 -3.06244971876108e-05 -0.00014299230321 1.28470270864235e-05 -4.18838568069962e-05 -0.000172599332853046 -0.00032987424573597 -0.000220923962144392 -0.000237837648948562 -0.000284799399050027 -0.000238999271098095 -0.000552520468909812 -0.000228212082531329
"116" -7.66463502884805e-05 -0.000287187102783438 0.000101119743749287 -0.000208001075423124 -4.44231718166679e-05 -0.000149772995522184 2.28962206392219e-06 -4.29057430511522e-05 -0.000179492989076259 -0.000374672357686017 -0.000221811675598139 -0.000233374240612391 -0.000278094632591854 -0.000238958281663073 -0.000547337261669611 -0.000226448586559944
"117" -8.46597024068129e-05 -0.000285539515309391 9.57320155738736e-05 -0.000209567472822191 -5.85504382625394e-05 -0.000156646312871405 -8.5596806124498e-06 -4.44757500094225e-05 -0.000186660664438171 -0.00041812070571888 -0.000222364526456307 -0.000228659002841893 -0.000271026717329934 -0.000238844062249685 -0.000541685865601212 -0.000224086878142006
"118" -9.31337567379492e-05 -0.000284071447264623 8.90523979484674e-05 -0.000211562769448126 -7.28805007367314e-05 -0.000163545768364018 -1.96109315585537e-05 -4.65766938650633e-05 -0.000194003833442591 -0.000459776594757406 -0.000222556855171872 -0.000223705490697669 -0.000263637915094658 -0.000238622230671459 -0.000535595006986151 -0.000221169652226275
"119" -0.00010198213525424 -0.000282757411152021 8.11721658699968e-05 -0.000213926592613893 -8.72814742805022e-05 -0.000170401974245357 -3.07679993474442e-05 -4.9181548597978e-05 -0.000201411265914396 -0.00049922931727562 -0.000222362785324635 -0.000218526338543611 -0.000255978896786832 -0.000238236677608393 -0.000529086808181652 -0.000217743459447398
"120" -0.000111122937140752 -0.000281576657899575 7.2190107786747e-05 -0.000216599841537025 -0.000101626534209762 -0.000177147535501991 -4.19472319522808e-05 -5.22689093809174e-05 -0.000208778586489117 -0.000536078322995339 -0.000221770763301552 -0.000213144857184903 -0.000248097466092173 -0.000237653158163353 -0.000522202813022423 -0.00021386248973656
"121" -0.000120457157478166 -0.000280500764061103 6.22168139285247e-05 -0.000219522470659072 -0.000115781243266702 -0.000183714201622393 -5.30486911434232e-05 -5.58013045199785e-05 -0.000216005489155627 -0.000569980625845513 -0.000220763508853434 -0.000207565964136803 -0.000240049227566402 -0.000236828298321047 -0.000514972157670343 -0.000209579412936632
"122" -0.000129892541605418 -0.000279506247553534 5.13692758548799e-05 -0.000222630413717764 -0.000129618188542116 -0.000190033836578847 -6.39796066728835e-05 -5.97437485296922e-05 -0.000222994704947896 -0.000600608273462454 -0.000219333377346122 -0.000201810232154449 -0.000231876132149154 -0.000235726978480566 -0.00050744026927777 -0.000204945945439419
"123" -0.000139334619044667 -0.00027856687414431 3.97656427903752e-05 -0.00022586465865276 -0.000143011541119759 -0.00019604075172095 -7.46577262127909e-05 -6.40549392133276e-05 -0.000229656284522712 -0.000627684026304715 -0.000217481177228531 -0.000195895698407247 -0.000223642810059077 -0.000234318550337905 -0.000499647785893178 -0.000200026531870044
"124" -0.000148686070588087 -0.000277662439083163 2.75329919219911e-05 -0.000229167041197507 -0.000155834332960737 -0.000201670609555651 -8.49909804828959e-05 -6.86927909195291e-05 -0.000235905606056471 -0.000650952172375967 -0.000215205485187248 -0.000189835515111973 -0.00021539575451684 -0.00023257230480712 -0.000491649856380654 -0.000194878305484881
"125" -0.00015785006071871 -0.000276763975130427 1.48008730285658e-05 -0.000232476598160914 -0.000167973054887195 -0.000206863442766183 -9.48988599897537e-05 -7.36084959732953e-05 -0.000241660155798673 -0.000670218715959945 -0.000212516143622566 -0.000183645459942298 -0.000207182667938242 -0.000230464270138113 -0.000483487588639359 -0.000189555642741332
"126" -0.000166735903397053 -0.000275850792729969 1.70178025359796e-06 -0.000235737826622814 -0.000179309107163537 -0.000211561592246795 -0.00010430405309338 -7.8754149874225e-05 -0.000246850961587105 -0.000685308091375571 -0.000209426601982064 -0.000177344712747064 -0.000199056046920526 -0.000227970648373393 -0.000475217676289309 -0.000184124267522531
"127" -0.000175242982028357 -0.000274899750510624 -1.16367248560663e-05 -0.000238895086245918 -0.00018974076611323 -0.00021571173474667 -0.000113128239929371 -8.4075739360027e-05 -0.000251414450491015 -0.000696103757405599 -0.000205951104788206 -0.000170946974880141 -0.000191064051900199 -0.000225077995921591 -0.000466890021592204 -0.00017863405023752
"128" -0.000183290739854788 -0.000273893736251354 -2.50795978107491e-05 -0.000241902453141146 -0.000199172408333124 -0.000219268411878627 -0.000121313220222201 -8.95249573222327e-05 -0.000255302432341831 -0.000702501617202521 -0.000202120508625626 -0.000164477890180757 -0.000183259090596721 -0.000221781381452487 -0.000458568485982874 -0.000173145307647112
"129" -0.00019078966337653 -0.0002728086352155 -3.84985408381578e-05 -0.000244708900445426 -0.000207508320205945 -0.000222186373473325 -0.000128792219296669 -9.50449485473956e-05 -0.000258462639030291 -0.000704474695055566 -0.000197957491577938 -0.000157950195870657 -0.000175671562072112 -0.000218066432055369 -0.000450297013771236 -0.000167709054672607
"130" -0.000197659057398828 -0.000271629081676113 -5.17686135589282e-05 -0.000247272085028534 -0.000214672510498677 -0.000224426435132092 -0.000135513724748112 -0.000100580490606493 -0.000260864780417651 -0.000701998662426533 -0.000193492790292234 -0.000151383015268933 -0.000168351387097073 -0.000213931034243183 -0.00044213508785623 -0.000162370938290074
"131" -0.000203819911817928 -0.000270337291965081 -6.47615891972997e-05 -0.000249551640588946 -0.000220592630222254 -0.000225960545105358 -0.000141429124339997 -0.000106077059762627 -0.000262481267577289 -0.000695117505569713 -0.00018876348118642 -0.000144794444969288 -0.000161329330303706 -0.000209383590259533 -0.000434131634890058 -0.000157178594276992
"132" -0.000209206456755173 -0.000268918228417185 -7.73639992835943e-05 -0.000251510801896632 -0.000225213726105225 -0.000226762170469244 -0.000146502546602389 -0.000111483402604731 -0.000263300957154949 -0.000683888708666778 -0.000183811721028066 -0.000138207928651342 -0.000154641194613898 -0.000204429526208573 -0.000426341332889063 -0.000152171889543003
"133" -0.000213752202509059 -0.000267360528588507 -8.9463566932171e-05 -0.000253122915491043 -0.00022848405259352 -0.000226809082904343 -0.000150701621485187 -0.000116745817412188 -0.000263313205213017 -0.000668425422920663 -0.000178676869209759 -0.000131640370582163 -0.000148312857475478 -0.000199082116805625 -0.000418808601666121 -0.000147386078912187
"134" -0.000217400844696314 -0.000265650591575962 -0.000100953445709196 -0.000254356738084563 -0.000230366413752757 -0.000226092736399742 -0.000154003369302617 -0.000121814174884561 -0.000262527399058477 -0.000648868126194963 -0.000173403825972779 -0.000125109499775332 -0.00014236793809547 -0.000193352280456319 -0.000411574757944205 -0.000142847984321388
"135" -0.000220103953778557 -0.000263780473964916 -0.000111736079803048 -0.000255191372880182 -0.000230837734474012 -0.000224602027993754 -0.000156391672523461 -0.000126635649072823 -0.000260953096229313 -0.000625398706690544 -0.000168041192796644 -0.000118634011457516 -0.000136823762371276 -0.000187262065566331 -0.000404683598373279 -0.000138581752321218
"136" -0.000221819832552719 -0.000261737821136763 -0.000121722774875568 -0.000255609829273689 -0.00022988268813279 -0.000222340040484507 -0.000157862768232951 -0.000131168625403482 -0.000258620694207226 -0.000598235777938042 -0.000162637221593146 -0.000112233313534475 -0.000131698603605783 -0.000180839131049603 -0.000398165326784724 -0.000134606296100946
"137" -0.000222516323154652 -0.0002595206779141 -0.000130831901300007 -0.00025559424217349 -0.000227501551031614 -0.000219311016750592 -0.000158413530823928 -0.000135363574285489 -0.000255558361300569 -0.000567627032134482 -0.000157240750280057 -0.000105922691729769 -0.000126991628549 -0.000174104194818728 -0.000392049602521059 -0.000130928711202297
"138" -0.000222165202330189 -0.000257120868499366 -0.000138991495616825 -0.0002551390264759 -0.000223703281549661 -0.000215529441224772 -0.000158057253119586 -0.000139185764715723 -0.000251808167117074 -0.000533852864976623 -0.000151902684973711 -9.97186383470913e-05 -0.000122712532941294 -0.000167088142195839 -0.000386359727587101 -0.000127557831012371
"139" -0.000220755211899231 -0.000254535079199585 -0.000146138710050142 -0.000254237793909013 -0.00021851218905777 -0.000211010531423141 -0.000156805242750327 -0.000142596057867518 -0.000247424291239691 -0.000497224092942676 -0.000146669080433153 -9.36370306869677e-05 -0.000118860884180179 -0.000159825463034813 -0.000381115385020023 -0.000124490789909293
"140" -0.000218275927768106 -0.000251759045573267 -0.000152222149632345 -0.000252885501688672 -0.000211958321986238 -0.000205780294001594 -0.000154685846494203 -0.000145558820661079 -0.000242459889219344 -0.000458088508603472 -0.000141592216948373 -8.76884001500194e-05 -0.000115425383269948 -0.000152349078896617 -0.000376321578190915 -0.000121718962851512
"141" -0.000214729362888933 -0.000248793257537889 -0.000157199975001126 -0.000251085210127282 -0.000204084102226056 -0.000199867840463682 -0.000151727994500703 -0.00014804988901961 -0.000236980101034988 -0.000416810082872955 -0.000136714012432639 -8.18869794371665e-05 -0.000112399876906357 -0.000144690984740535 -0.00037198223805545 -0.000119228050933464
"142" -0.000210124148248089 -0.000245634967275591 -0.000161035758138615 -0.000248840416799639 -0.000194949067439506 -0.000193305936032331 -0.000147965222160564 -0.000150040861362987 -0.000231055470321146 -0.000373783643045443 -0.000132082096289562 -7.62438458908812e-05 -0.000109762289075933 -0.000136889344926401 -0.000368094654608976 -0.000116999853910658
"143" -0.000204478994503683 -0.000242285992765704 -0.000163713750360147 -0.000246159418070084 -0.000184613123573837 -0.000186133323692192 -0.000143440787499569 -0.000151514246721538 -0.000224758736517826 -0.00032942328941009 -0.000127736185291771 -7.07638730628463e-05 -0.000107494939280387 -0.000128980426964529 -0.000364648027522834 -0.000115009754249639
"144" -0.000197819783987852 -0.000238746170611009 -0.000165219581602556 -0.000243049320811684 -0.000173152102883871 -0.000178392516077856 -0.000138207457964017 -0.000152452573763134 -0.000218168805930412 -0.000284168268231178 -0.000123714277876178 -6.54531644870237e-05 -0.000105570167058261 -0.000121000992025534 -0.000361620698529328 -0.000113227411462517
"145" -0.000190178717711178 -0.000235016300093088 -0.000165545731896011 -0.00023952351332666 -0.000160643857554623 -0.000170130561632276 -0.00013231024868399 -0.000152845840578502 -0.000211371153885328 -0.000238460249089405 -0.000120055809213868 -6.03174640340832e-05 -0.000103965732134661 -0.00011299030226379 -0.000358990438400728 -0.000111617356701019
"146" -0.000181602217879017 -0.000231101536307081 -0.000164702595919036 -0.000235591785340718 -0.000147182571756764 -0.000161395471879825 -0.000125811660661853 -0.000152686000639332 -0.000204444358645308 -0.000192759984179362 -0.000116785780940084 -5.53555116624849e-05 -0.000102646344899574 -0.000104977028650729 -0.000356723327206815 -0.00011014629268441
"147" -0.000172133988396268 -0.000227001279556281 -0.00016270530251869 -0.000231270068195205 -0.000132860829074307 -0.000152239822028175 -0.000118769829868709 -0.000151973601664552 -0.000197478032257003 -0.000147528694785328 -0.000113933296538395 -5.05680698855396e-05 -0.000101578139207291 -9.70003561994411e-05 -0.000354780627626268 -0.000108766977787315
"148" -0.000161832917397697 -0.000222716742141521 -0.00015957704241951 -0.000226573263304787 -0.000117781628318293 -0.00014271716555523 -0.000111248528373074 -0.000150707908140999 -0.000190551845871753 -0.000103235004782983 -0.000111518597681915 -4.59512402867707e-05 -0.000100721150895472 -8.90897538675345e-05 -0.000353115953853202 -0.000107440199522959
"149" -0.000150755627972034 -0.000218252738686948 -0.000155344487487817 -0.000221511978202593 -0.000102052283297708 -0.000132881649161663 -0.000103308925118337 -0.000148896707985046 -0.000183752710826918 -6.03430773319752e-05 -0.000109554403984664 -4.14965026486692e-05 -0.000100040413994824 -8.12763763848367e-05 -0.000351679606076382 -0.000106119380904693
"150" -0.000138978491588898 -0.000213612930235763 -0.000150055094677203 -0.00021610752059527 -8.57819183684518e-05 -0.000122792968657879 -9.50213403729947e-05 -0.00014655199076612 -0.000177160824927798 -1.9291202751556e-05 -0.000108056007431577 -3.72000283305768e-05 -9.94918532769088e-05 -7.35849146146741e-05 -0.000350418178054649 -0.00010475568673469
"151" -0.000126562643915808 -0.000208794720178243 -0.000143743768049908 -0.000210367495203527 -6.90828067618927e-05 -0.000112500254858462 -8.64512804336305e-05 -0.000143684659982979 -0.000170854141442856 1.94708485343117e-05 -0.000107027506119554 -3.30445693619875e-05 -9.90347784453567e-05 -6.60438339343434e-05 -0.000349263588324126 -0.000103301502835627
"152" -0.000113594483959324 -0.000203805369267859 -0.000136470595558574 -0.000204312550433223 -5.20771510242167e-05 -0.000102065893333906 -7.76678052982368e-05 -0.000140316646073638 -0.000164906576050134 5.55400123767178e-05 -0.000106466138620215 -2.90222372273674e-05 -9.86297268122749e-05 -5.8672446867119e-05 -0.000348158724079369 -0.000101711818585774
"153" -0.000100149977637224 -0.000198640488324281 -0.000128287136672683 -0.000197950729782074 -3.48719332141371e-05 -9.15415555748752e-05 -6.87344643833012e-05 -0.000136464887996122 -0.000159383743402211 8.85253174050507e-05 -0.000106366094943573 -2.51106796878933e-05 -9.82273723809612e-05 -5.14844730872766e-05 -0.00034702861180589 -9.9933735688122e-05
"154" -8.63114619696184e-05 -0.000193310411664981 -0.000119258344449433 -0.000191294950882625 -1.75919382489932e-05 -8.09829832468817e-05 -5.97197618546223e-05 -0.00013215922900624 -0.000154351287001581 0.000118080429280998 -0.000106717616173474 -2.12997423667357e-05 -9.7788808622896e-05 -4.44978529605237e-05 -0.000345808523200833 -9.7927074187555e-05
"155" -7.21691512852775e-05 -0.000187810198462151 -0.000109444901602653 -0.000184357773107124 -3.42314447904127e-07 -7.04408333271383e-05 -5.06886942210755e-05 -0.000127421997114155 -0.00014986262632724 0.000143883762408281 -0.000107502073469146 -1.75618669958116e-05 -9.72686467479175e-05 -3.77198414681454e-05 -0.000344419307999314 -9.564128857399e-05
"156" -5.78055402292986e-05 -0.000182139418622233 -9.8915470081868e-05 -0.000177144066946304 1.67560600615224e-05 -5.99650112601463e-05 -4.17008886542377e-05 -0.000122283370935357 -0.00014596557028481 0.000165662539279842 -0.000108697035263569 -1.38790599882029e-05 -9.66278537883711e-05 -3.1158891018123e-05 -0.000342790410813803 -9.30405516279301e-05
"157" -4.33134571111425e-05 -0.000176304046298423 -8.77438743819861e-05 -0.000169664220653224 3.35989307994196e-05 -4.96029604523369e-05 -3.28156209482154e-05 -0.000116777580612357 -0.000142698182092216 0.000183194458445391 -0.000110272879102355 -1.0227173729901e-05 -9.58234473773523e-05 -2.48119643359175e-05 -0.000340846139021077 -9.0080338618917e-05
"158" -2.87814776172618e-05 -0.000170300903282099 -7.59997190457113e-05 -0.000161924347027808 5.00803011192035e-05 -3.93973508497945e-05 -2.4091047536725e-05 -0.000110937802900188 -0.000140093288777065 0.00019630313539019 -0.000112202725591106 -6.58087392150573e-06 -9.482589932388e-05 -1.86831095172799e-05 -0.000338518036665185 -8.67296032628546e-05
"159" -1.4295476951437e-05 -0.000164134002288367 -6.37603037124955e-05 -0.000153926477126629 6.61014295287178e-05 -2.93927469348783e-05 -1.55821027580115e-05 -0.000104797029192195 -0.000138170839964703 0.000204872002188159 -0.000114446882245231 -2.91595608329577e-06 -9.35925443177996e-05 -1.27652774571972e-05 -0.000335729269392142 -8.29565844120646e-05
"160" 5.29774692360296e-08 -0.000157799563377303 -5.10959075894039e-05 -0.000145676613748544 8.15653293090044e-05 -1.96254187685473e-05 -7.33716442756005e-06 -9.83930933992991e-05 -0.000136943007333137 0.000208830514617265 -0.000116964987781545 7.96869989488391e-07 -9.20953959735969e-05 -7.04442418745959e-06 -0.000332414065225766 -7.87325907211205e-05
"161" 1.41776186319662e-05 -0.000151303508256205 -3.80822873863953e-05 -0.000137171838833795 9.63871219620815e-05 -1.01284909713302e-05 5.99826250263966e-07 -9.17634912129623e-05 -0.00013641034354294 0.000208177144773944 -0.000119713209942213 4.58225149433851e-06 -9.03027240996603e-05 -1.51286998485418e-06 -0.000328501829793687 -7.40366445469059e-05
"162" 2.79966645996071e-05 -0.000144643845677643 -2.47959968259994e-05 -0.000128418708642918 0.00011048344527426 -9.29695760754121e-07 8.18400524902311e-06 -8.49471580516412e-05 -0.000136569589859368 0.000202961133813538 -0.00012264803985516 8.46681202097065e-06 -8.81916709919845e-05 3.84388764056142e-06 -0.000323940538809526 -6.88549947662266e-05
"163" 4.14298080776146e-05 -0.000137817686275442 -1.13048132166415e-05 -0.000119409504780188 0.000123786436387365 7.94277702378901e-06 1.53854108863517e-05 -7.79793268047473e-05 -0.000137397059100561 0.000193279353257864 -0.000125715919286702 1.24791341497748e-05 -8.57369334326825e-05 9.05084000837917e-06 -0.000318664521276695 -6.31734095551083e-05
"164" 5.43967886582599e-05 -0.000130833869069243 2.31968610455245e-06 -0.000110148816187378 0.000136231079367326 1.64671603792797e-05 2.21618991701416e-05 -7.09021988025752e-05 -0.000138868820460209 0.000179302630529003 -0.000128868691557026 1.6643522654623e-05 -8.29235085883307e-05 1.41294457724632e-05 -0.000312627431541556 -5.69876446663548e-05
"165" 6.68285717588028e-05 -0.000123690491284754 1.60083296067946e-05 -0.000100628017903031 0.000147761597303335 2.46304221485443e-05 2.84897343092452e-05 -6.37489835458956e-05 -0.000140947763369816 0.000161237907641026 -0.000132052703290343 2.09839820253533e-05 -7.97416153789682e-05 1.90993624783318e-05 -0.000305785710295988 -5.02995313433945e-05
"166" 7.86550685235307e-05 -0.000116389559729635 2.96982847536457e-05 -9.08453786234057e-05 0.000158331375618986 3.24138735974134e-05 3.43481305879136e-05 -5.65601847481867e-05 -0.000143591279297846 0.000139347785361988 -0.000135215015353548 2.55261071542203e-05 -7.61757052022294e-05 2.39873564035313e-05 -0.00029810190985729 -4.31153767318254e-05
"167" 8.98110985056237e-05 -0.000108934840535134 4.33225207020881e-05 -8.07968610119694e-05 0.000167903612474982 3.98127932076946e-05 3.9712210958338e-05 -4.93726950604657e-05 -0.000146740146262057 0.000113938611522863 -0.000138302068340207 3.02879032661772e-05 -7.2227622449583e-05 2.88232363460818e-05 -0.000289547850333638 -3.54513703037181e-05
"168" 0.00010024478382263 -0.000101330869010988 5.68318029846449e-05 -7.04785035191297e-05 0.000176453113474525 4.68212927833004e-05 4.45712585411097e-05 -4.22183270846653e-05 -0.000150332684534683 8.53487465737124e-05 -0.000141260635172938 3.52949896758708e-05 -6.78935209912499e-05 3.36356844662649e-05 -0.000280101764963634 -2.73241268741796e-05
"169" 0.000109900467112944 -9.35834501002435e-05 7.01610931111273e-05 -5.98869019690505e-05 0.000183963384554604 5.34358778449421e-05 4.89118957880682e-05 -3.51357665948488e-05 -0.000154303491679712 5.39717743394399e-05 -0.000144037621620231 4.05537819085993e-05 -6.31834999030368e-05 3.84508021306494e-05 -0.000269757483040882 -1.87622874993919e-05
"170" 0.000118734881581067 -8.56943094484549e-05 8.32650293844024e-05 -4.90175380474712e-05 0.000190421988378934 5.96638007643031e-05 5.27300438285402e-05 -2.81523841071441e-05 -0.000158574111195857 2.02117136418073e-05 -0.00014658219766269 4.60859684874399e-05 -5.81061276487703e-05 4.33001606333875e-05 -0.00025850866745245 -9.79512025213311e-06
"171" 0.000126708965108451 -7.76726707805636e-05 9.60955654350422e-05 -3.78684809736899e-05 0.000195832618165442 6.55091220876645e-05 5.6022519579868e-05 -2.1301793836016e-05 -0.000163060477092244 -1.55015052241169e-05 -0.000148843452086898 5.18990375173385e-05 -5.2675375116777e-05 4.8215433727144e-05 -0.000246362710346528 -4.62055885431264e-07
"172" 0.000133793540292788 -6.95260684319951e-05 0.000108609522233332 -2.64359283707487e-05 0.000200208443051414 7.09801879086517e-05 5.87930527552577e-05 -1.46132105067241e-05 -0.000167677828621144 -5.27019609411783e-05 -0.000150780927340092 5.80012654897818e-05 -4.69132649247085e-05 5.32197836893974e-05 -0.000233338214907463 9.19564274409964e-06
"173" 0.000139965329077633 -6.125781031537e-05 0.000120774072355057 -1.47162161313711e-05 0.000203563408193998 7.60898365851882e-05 6.10419152585585e-05 -8.11013572273135e-06 -0.000172334518601086 -9.09300089676744e-05 -0.000152342154888256 6.43928695050774e-05 -4.08395399043366e-05 5.83424931905388e-05 -0.000219463003802696 1.91291618775658e-05
"174" 0.000145208588660007 -5.28839743829868e-05 0.000132550855077615 -2.71320907933609e-06 0.000205926443457379 8.08544289324885e-05 6.27812821976164e-05 -1.81631981763828e-06 -0.000176938287759169 -0.000129706166186887 -0.000153490354651893 7.10739709033218e-05 -3.44838340027772e-05 6.3612319002978e-05 -0.000204771542840124 2.92860811080198e-05
"175" 0.000149511005368714 -4.44104716356888e-05 0.000143911465703379 9.57684678894701e-06 0.00020733496099699 8.528954957502e-05 6.40255680307352e-05 4.24484309272199e-06 -0.00018138849838142 -0.0001685569103718 -0.000154190637141931 7.80430537536216e-05 -2.78803249044667e-05 6.90520408843889e-05 -0.00018931108621897 3.96123930700717e-05
"176" 0.000152874258385305 -3.58492435323018e-05 0.000154834107275846 2.21481053066401e-05 0.000207825184064129 8.94158721777313e-05 6.47808619348305e-05 1.00551364276028e-05 -0.000185594060103984 -0.000206998590599498 -0.000154407333640464 8.52842576773192e-05 -2.10662581409495e-05 7.46785862307469e-05 -0.000173135982734182 5.00436371545381e-05
"177" 0.000155305345321458 -2.72092128127797e-05 0.000165298000094985 3.49976597377524e-05 0.000207450576948585 9.32561703121108e-05 6.5071019570409e-05 1.56017245811518e-05 -0.000189450215857271 -0.000244566834981895 -0.000154112627605053 9.27902659222443e-05 -1.40722224455833e-05 8.0516633715002e-05 -0.000156309934099253 6.05194306879661e-05
"178" 0.000156815687369112 -1.85056459163335e-05 0.000175286397709953 4.8125107799946e-05 0.000206264498932469 9.68289826532646e-05 6.4917066404915e-05 2.08692813779949e-05 -0.000192865576469326 -0.000280805126459466 -0.000153282659154761 0.00010054147614676 -6.93768133532323e-06 8.65832808027607e-05 -0.000138902042797148 7.09779232272382e-05
"179" 0.000157427027371678 -9.75130814845855e-06 0.000184787892783989 6.15160952101781e-05 0.000204327398695556 0.000100162645898174 6.43353274580673e-05 2.5849221004096e-05 -0.000195744711931087 -0.000315263884801851 -0.000151901257688307 0.000108512421080524 2.82673404221822e-07 9.28844777157851e-05 -0.000120995482517875 8.13475691642872e-05
"180" 0.000157166113794131 -9.57981966266207e-07 0.000193795270654418 7.51708691339365e-05 0.000201699510682822 0.000103278982793469 6.33557229291774e-05 3.05348919129372e-05 -0.000197997452579398 -0.00034752584350587 -0.000149952594471187 0.000116679491255575 7.55706425340724e-06 9.94331987614097e-05 -0.000102670446358536 9.15622311132123e-05
"181" 0.00015606672931829 7.85922281218427e-06 0.00020230076339287 8.90720925516669e-05 0.000198452630629904 0.000106202547553815 6.19978390562834e-05 3.49214098482229e-05 -0.000199533135382354 -0.000377184870682877 -0.000147429268607112 0.00012501069063231 1.48358205134143e-05 0.000106235641162349 -8.40212912681706e-05 0.000101558177620229
"182" 0.000154168830779552 1.66872993811623e-05 0.000210306856904253 0.000103210859305141 0.000194654750465651 0.000108958758109424 6.02911722860418e-05 3.90081285241101e-05 -0.000200274532968616 -0.000403865993953337 -0.000144326982132187 0.000133472774201762 2.2071710884187e-05 0.000113291168371081 -6.51394871260522e-05 0.000111264495241806
"183" 0.000151522940320417 2.55125391536521e-05 0.000217813686130672 0.000117574251107428 0.000190378822464554 0.00011157367856679 5.82659899271808e-05 4.27993513137338e-05 -0.000200135842112535 -0.000427215439739695 -0.000140649733267898 0.000142025613410593 2.92258507679008e-05 0.000120599646781999 -4.61229866240848e-05 0.000120621965740339
"184" 0.000148171624813989 3.43148080053231e-05 0.000224824281696692 0.000132145508446111 0.00018569981655892 0.00011406980057141 5.59462320657385e-05 4.62978876342471e-05 -0.000199061176267631 -0.000446910855312998 -0.000136410558467652 0.000150627577682193 3.62444737785638e-05 0.000128147577951383 -2.70799015306673e-05 0.000129560300738455
"185" 0.000144180172090381 4.30873496768129e-05 0.000231345551930652 0.000146909580229117 0.000180688906306738 0.000116474760861672 5.33673738755938e-05 4.9514502408864e-05 -0.000196979258028259 -0.000462674349909796 -0.00013161570582362 0.000159235328721449 4.3094531960029e-05 0.000135930257594702 -8.10290894151104e-06 0.000138027796684078
"186" 0.000139604699010513 5.18106575291081e-05 0.000237384550398195 0.000161844506952579 0.000175421094339685 0.000118806206761241 5.05517933526017e-05 5.24578455188003e-05 -0.000193836041882722 -0.000474233097832666 -0.000126289672229111 0.000167797838084234 4.97271031827837e-05 0.000143930518179297 1.07008860872885e-05 0.000145963198935523
"187" 0.000134509317865524 6.04733544666955e-05 0.000242953660006192 0.000176936649363968 0.000169971151933516 0.000121090199345652 4.7536929077895e-05 5.51403731951347e-05 -0.000189591823251002 -0.000481377490945851 -0.000120455597300942 0.000176269284887785 5.61059750211839e-05 0.000152122547448743 2.92343341025755e-05 0.000153318421695336
"188" 0.000128964573952289 6.90589074915822e-05 0.000248062079298419 0.00019215927332727 0.000164404652290928 0.000123346361874187 4.43505610845288e-05 5.75788570605834e-05 -0.000184208541558579 -0.000483921087721452 -0.000114143210619255 0.000184593507171335 6.21931979599365e-05 0.000160485605710525 4.73949490196096e-05 0.000160044953479112
"189" 0.000123035740320544 7.75563086860357e-05 0.000252720223987959 0.000207492697135501 0.000158791161347638 0.000125591129472279 4.10192441229889e-05 5.9789135064163e-05 -0.000177664523995625 -0.000481706804335984 -0.000107389900627294 0.000192716867048981 6.79528393534256e-05 0.000168986841582451 6.50876221348688e-05 0.000166100622552849
"190" 0.000116801213627711 8.59489047414176e-05 0.000256944028237445 0.000222915894482708 0.000153196589273664 0.000127843426728457 3.75809716215403e-05 6.17930338541865e-05 -0.000169937930519984 -0.000474639084483128 -0.000100227855574318 0.000200588790901182 7.33623010907358e-05 0.000177598886639532 8.22284376133207e-05 0.000171453350806523
"191" 0.000110330712082677 9.42314091376805e-05 0.00026074487620239 0.00023840721569139 0.000147679167911348 0.000130119566949268 3.40591417860962e-05 6.36102904194607e-05 -0.000161034119060085 -0.000462648474076794 -9.27040827600626e-05 0.000208151609659511 7.8392296222487e-05 0.000186280187969963 9.87308143574714e-05 0.000176071623977069
"192" 0.000103702963436638 0.000102385627845144 0.000264136476479928 0.000253937995308066 0.000142300658926486 0.000132433367056533 3.04863064380934e-05 6.5265528920399e-05 -0.000150950612294511 -0.000445703534955716 -8.48630527468971e-05 0.000215353624604669 8.30224637285015e-05 0.00019499347187717 0.000114518535446018 0.000179939348958133
"193" 9.69877462002443e-05 0.000110407591731399 0.000267133658862134 0.00026948814548402 0.000137107712951293 0.000134793659272878 2.68869229445946e-05 6.67824095735851e-05 -0.000139715107422442 -0.000423825239457682 -7.67551626022626e-05 0.000222139549055045 8.72334163072561e-05 0.000203690770819615 0.000129525340222663 0.00018303697922794
"194" 9.02663553241934e-05 0.000118283950414175 0.00026974938288864 0.000285034352656165 0.000132147066510804 0.000137212298512962 2.32958275836696e-05 6.81864002696574e-05 -0.000127348215106412 -0.000397070442877153 -6.84322444252765e-05 0.000228458454858177 9.10181375424953e-05 0.000212329746996501 0.000143691435709147 0.000185360339675595
"195" 8.36067234429252e-05 0.000126009767571044 0.000271992012570535 0.00030055312560699 0.000127459533168005 0.00013969577362091 1.97384301037342e-05 6.95026235796241e-05 -0.000113895168439319 -0.000365550662565843 -5.99479647854745e-05 0.00023426292418565 9.43694013960485e-05 0.000220865412462348 0.000156968689611428 0.000186907717554327
"196" 7.7090989012192e-05 0.000133581116946564 0.000273885045670266 0.000316021384858807 0.000123086428543298 0.000142252648997497 1.62460044494871e-05 7.07648513056704e-05 -9.94009599115994e-05 -0.000329416128631541 -5.1355531104705e-05 0.00023950765000694 9.72854505378073e-05 0.000229245155389979 0.000169324852804984 0.000187692459720772
"197" 7.07830089666776e-05 0.000140985521401777 0.000275428718469602 0.000331416000979528 0.000119048925827558 0.000144881597542219 1.28350415625811e-05 7.19926762866213e-05 -8.39324260440532e-05 -0.000288847825356972 -4.27139206265752e-05 0.000244144633798645 9.97704567197935e-05 0.000237414675109835 0.000180724645422726 0.000187724123612367
"198" 6.47529744739976e-05 0.000148225942782485 0.000276642262938801 0.000346719228843861 0.000115370710115636 0.000147584501434711 9.53916563231593e-06 7.32191082244389e-05 -6.75588727314157e-05 -0.000244100979636975 -3.40806122215835e-05 0.000248138039200896 0.00010183493133304 0.000245326783362407 0.000191160572902512 0.00018702618163489
"199" 5.9072382266777e-05 0.000155299402006148 0.000277535213515033 0.00036190814456634 0.000112074058903124 0.00015036382896239 6.38551478202859e-06 7.44724111145795e-05 -5.03539265316362e-05 -0.000195459364781513 -2.55050452707828e-05 0.000251457334930404 0.000103497369151072 0.00025293001188185 0.000200629005979554 0.000185634426090824
"200" 5.3800408575556e-05 0.000162204450146872 0.000278115784185127 0.000376962952879922 0.000109163185393971 0.000153212268837991 3.39292105990814e-06 7.57796809606108e-05 -3.24095712194689e-05 -0.000143242821361153 -1.70502524846477e-05 0.000254066232396192 0.000104775842224939 0.000260173133931435 0.000209135284554092 0.000183578460373065
"201" 4.8995166947583e-05 0.00016893957499572 0.000278395764787308 0.000391867266497042 0.000106640654844908 0.000156125767351201 5.8450027197572e-07 7.71673556379618e-05 -1.38213535228084e-05 -8.7830610014132e-05 -8.76289408732408e-06 0.000255944330241387 0.000105691001383614 0.00026700464671188 0.000216700707413009 0.000180902140200283
"202" 4.47153496303603e-05 0.000175509504822704 0.000278383076761242 0.000406599200460878 0.000104507396245968 0.00015909665792006 -2.01799507870213e-06 7.86614693942283e-05 5.30876127817557e-06 -2.96318184850963e-05 -6.99218450539792e-07 0.000257072200926756 0.000106274835769477 0.000273377222305903 0.000223359433435245 0.000177653001091941
"203" 4.10110704853289e-05 0.00018191449802951 0.000278085117917791 0.000421147034325822 0.000102752723368457 0.000162116100195623 -4.39216647700108e-06 8.02890731178354e-05 2.48685447830284e-05 3.09045357393508e-05 7.09156035529879e-06 0.000257434456329694 0.000106558867393883 0.000279237881231351 0.000229149177508401 0.000173884460210205
"204" 3.7923887249404e-05 0.00018816069977594 0.000277508821321194 0.000435489558018235 0.000101357094943097 0.000165167727308116 -6.52285706408597e-06 8.20725433838883e-05 4.47444895336994e-05 9.32793175036578e-05 1.45654695774399e-05 0.000257025078908462 0.000106579864123778 0.000284547472918337 0.000234124802347475 0.00016965141473766
"205" 3.55001001464603e-05 0.000194253444404492 0.000276659594751861 0.000449614059645296 0.000100305030177024 0.000168242499973586 -8.39201871371691e-06 8.40345655615241e-05 6.48248355831061e-05 0.000156981291627267 2.16799587553409e-05 0.000255844476164715 0.000106377365981665 0.000289265768953956 0.000238350421367847 0.000165014999165655
"206" 3.37686033144292e-05 0.00020019346746559 0.000275543472006157 0.000463501916831977 9.95604449566502e-05 0.000171318899596738 -9.98348533176739e-06 8.61928731779209e-05 8.49829722257626e-05 0.000221459205639833 2.83939393506582e-05 0.000253893009342743 0.000105990094575518 0.000293348154021828 0.00024188812899051 0.000160037466896104
"207" 3.27623252525986e-05 0.00020598773486679 0.000274164205307042 0.000477139085409814 9.90988401987338e-05 0.000174381157080058 -1.1287620160815e-05 8.85675372933229e-05 0.000105095381542076 0.000286135578521246 3.46756000643303e-05 0.000251185863583559 0.000105464678779184 0.000296762223438744 0.000244819008303887 0.000154784247365078
"208" 3.25018923551024e-05 0.000211642298680346 0.000272525558089286 0.000490509088886481 9.88784704906715e-05 0.000177407932188187 -1.22906843692652e-05 9.11702379927259e-05 0.000125040807299997 0.000350431775613468 4.04874042959027e-05 0.000247734653842363 0.000104838188354439 0.000299477504347288 0.000247223016642352 0.0001493171527199
"209" 3.300293990771e-05 0.000217163495877833 0.000270628930426643 0.000503590612650729 9.88529995817161e-05 0.000180375500556696 -1.29907505149217e-05 9.4013176185902e-05 0.000144690816706428 0.000413737723461181 4.5808904947187e-05 0.000243560716036908 0.000104157523922265 0.000301459859421274 0.00024918202236281 0.000143700935896838
"210" 3.42706491968139e-05 0.000222552994062663 0.000268479795945542 0.00051636884952043 9.89799654124158e-05 0.000183257461114099 -1.33801490411725e-05 9.71064011067273e-05 0.000163929081799187 0.000475450865235055 5.0616728280338e-05 0.000238693694199209 0.000103466014244987 0.000302692513591766 0.000250794560424076 0.000138003636914933
"211" 3.63127566490879e-05 0.000227815312310079 0.000266072917540998 0.000528821914037899 9.92027196738574e-05 0.000186027752683905 -1.34579861996375e-05 0.000100451479033677 0.000182631967055368 0.000534973226419279 5.48910211982759e-05 0.000233159418214898 0.000102803782672595 0.000303151950232294 0.000252139871314863 0.000132282366439576
"212" 3.9117640631325e-05 0.000232952728491819 0.000263409834382771 0.000540925822709136 9.94654041544159e-05 0.000188654391188928 -1.32299178704342e-05 0.000104046421842692 0.000200682975439771 0.000591718335361394 5.86199142081343e-05 0.000226993670025685 0.000102204709320172 0.000302821631086106 0.00025331146035539 0.000126593906623196
"213" 4.26742288845903e-05 0.0002379675691907 0.000260489436907648 0.000552658199971467 9.97138985222666e-05 0.00019110804643384 -1.27017904004946e-05 0.000107890426920669 0.000217967951991903 0.000645106886858379 6.17926614966912e-05 0.000220234877139323 0.000101710155463825 0.000301692642039448 0.000254397702988265 0.000120994417804469
"214" 4.6962952505582e-05 0.000242853585004315 0.000257305945157533 0.000563985396407261 9.98803444420948e-05 0.000193351511552573 -1.18849709671249e-05 0.000111972678348715 0.000234381772545708 0.000694615413774852 6.44038073308094e-05 0.000212919163840338 0.000101342235694305 0.000299748883933548 0.000255478615005625 0.000115531939441151
"215" 5.19567643255349e-05 0.000247615512315741 0.000253863285466177 0.00057488232487727 9.99056849994441e-05 0.000195352957902718 -1.07945556338281e-05 0.000116279690594801 0.000249824026883907 0.000739728220037697 6.6455044303099e-05 0.000205096021785159 0.00010113616334612 0.000296997306336308 0.000256637010678424 0.000110252267241346
"216" 5.7618993910572e-05 0.00025224003484928 0.0002501500346053 0.000585312380543553 9.97198740563289e-05 0.000197069374117196 -9.45270549407499e-06 0.000120793462206918 0.000264201987755739 0.000779994074053787 6.79460475962554e-05 0.000196802505963266 0.000101107446013058 0.000293428706911975 0.000257942073299429 0.000105190204545736
"217" 6.39056518516451e-05 0.000256727008187353 0.000246164685669595 0.000595236718209872 9.92599456305767e-05 0.000198462362748895 -7.88333065303837e-06 0.000125489471738332 0.000277428294640292 0.000815004107969273 6.88827776244884e-05 0.000188088740268321 0.000101271442169665 0.000289051001051292 0.000259461874411911 0.000100379752216662
"218" 7.07725679294719e-05 0.000261062684383046 0.000241902598430421 0.000604612977479174 9.8456573360977e-05 0.00019949528545466 -6.11139702398718e-06 0.000130342407800795 0.000289427097941993 0.000844419107691948 6.9274744309993e-05 0.000178998859222488 0.000101635168882655 0.00028386574530838 0.000261244861671914 9.58450698658015e-05
"219" 7.81610827138063e-05 0.000265235988498822 0.000237354930960817 0.000613401607445612 9.72453381787884e-05 0.000200119407134013 -4.17816931108285e-06 0.000135316037890402 0.000300133283807305 0.000867954423845943 6.91356167166051e-05 0.000169578132784623 0.000102204806009125 0.000277887285853098 0.000263346223097552 9.15982351249783e-05
"220" 8.60097436524653e-05 0.00026923282601064 0.000232517151908002 0.000621546980799149 9.55590332396267e-05 0.000200295724924716 -2.11602744249185e-06 0.000140375098318621 0.000309485793564613 0.000885412124951851 6.84745562822724e-05 0.000159871084699373 0.000102968924339746 0.000271123456017877 0.000265788009919027 8.76496110611194e-05
"221" 9.4252958527455e-05 0.000273037244199679 0.000227383001632088 0.000629003612184591 9.33329139022563e-05 0.000199977014467356 2.69324898990219e-08 0.000145477898344869 0.000317436575089392 0.000896655253964824 6.73108856637438e-05 0.000149921892733205 0.000103917896429055 0.000263590776774753 0.000268602449066958 8.3996587215614e-05
"222" 0.000102817999286761 0.000276627546047514 0.000221943888017318 0.000635711647091864 9.05017865641044e-05 0.000199119041616023 2.2030804409022e-06 0.000150575556035816 0.000323948513794968 0.000901637613111261 6.56612639538086e-05 0.000139770182341145 0.00010503024800823 0.000255303747157128 0.000271789849282063 8.0630313592705e-05
"223" 0.000111626503555527 0.000279983553858777 0.000216193168950869 0.000641612549233914 8.7012671834139e-05 0.000197676952656562 4.36009325237078e-06 0.000155617900005742 0.000328997636953439 0.000900388937913522 6.35439261077897e-05 0.000129457256485651 0.000106277989683951 0.000246282587150667 0.000275346533125346 7.75337155990891e-05
"224" 0.000120598195928426 0.000283082651421095 0.000210127860479223 0.000646654781531123 8.2802693214081e-05 0.000195605153000196 6.44402995457932e-06 0.000160556157237905 0.000332568747792297 0.000893010320383483 6.09811406725666e-05 0.000119019389530676 0.000107627663961604 0.000236551025234709 0.000279260771877489 7.46806609237687e-05
"225" 0.000129650240786055 0.000285901023477076 0.000203735033794118 0.0006507658895792 7.78229409369858e-05 0.000192856622193366 8.39589125734761e-06 0.000165326479099412 0.000334650071980945 0.000879694941534339 5.79926142588465e-05 0.000108487018392882 0.000109035154951378 0.000226122236913552 0.000283490927922856 7.2033456303139e-05
"226" 0.000138693336024812 0.000288410253202112 0.000197015198103923 0.00065389086032311 7.20246380293617e-05 0.00018939245843187 1.01477926183524e-05 0.000169874635952944 0.000335245752504777 0.000860702188794453 5.45982082221647e-05 9.78941398728401e-05 0.000110451888517087 0.000215022435871716 0.000287994193578432 6.95511414307354e-05
"227" 0.000147642520880557 0.000290587767264152 0.000189963570344583 0.000655962174309754 6.53646968418967e-05 0.000185165894102923 1.16399408793409e-05 0.000174139560723239 0.00033437706927778 0.00083635842591338 5.08219519665011e-05 8.72684895982066e-05 0.000111827761225315 0.000203280507471697 0.000292712336293497 6.71881095385214e-05
"228" 0.000156408269059577 0.000292402982134664 0.000182573139874933 0.000656918816273021 5.78084923711727e-05 0.000180140882996393 1.28021436689429e-05 0.000178057157311045 0.000332060544469571 0.000807075453246361 4.66824353977988e-05 7.6628838880172e-05 0.000113096102115902 0.000190914912660253 0.000297567014063928 6.48806053575144e-05
"229" 0.000164902504616981 0.000293832818669401 0.000174842011516807 0.000656698355968259 4.93217668831752e-05 0.000174274749154369 1.35711762215915e-05 0.000181565180532125 0.000328331899524758 0.000773298208838263 4.22037492026678e-05 6.59983047331731e-05 0.000114200179314834 0.000177954377900946 0.000302478175381198 6.25691645958227e-05
"230" 0.000173035104419624 0.000294849517146867 0.000166774473012435 0.000655242697674172 3.98846668758384e-05 0.000167536212713285 1.3871273426099e-05 0.000184601213572567 0.000323233473821748 0.00073554188119664 3.74033107271982e-05 5.53932197390877e-05 0.000115069972961893 0.000164421410890337 0.000307341570688674 6.0182915772411e-05
"231" 0.00018072213103934 0.000295430760178945 0.000158370811574612 0.000652492846411955 2.94784008679086e-05 0.000159893121597276 1.36399893895372e-05 0.000187103755255468 0.000316814697121493 0.000694360834851393 3.23027500060717e-05 4.48233225318006e-05 0.000115628941507187 0.000150344394852754 0.000312054264798329 5.76510056113713e-05
"232" 0.000187880860529901 0.000295546586381065 0.000149630276524583 0.000648395145288966 1.80937489080403e-05 0.000151318056440385 1.28085105016116e-05 0.000189009709176873 0.000309133584021711 0.000650351584262218 2.69194325535242e-05 3.42984955411132e-05 0.000115811557994537 0.000135748882815473 0.000316493367186044 5.48974597092616e-05
"233" 0.000194430795544559 0.000295181957088075 0.000140561719628034 0.000642902292739008 5.72787090558584e-06 0.000141785919321483 1.13062360308326e-05 0.000190262414238657 0.00030025285966486 0.000604125109039777 2.12749454944508e-05 2.38238714424794e-05 0.000115534660658492 0.000120662478427452 0.000320534499257011 5.18379687115307e-05
"234" 0.00020029905561132 0.000294315242352555 0.000131172243029364 0.000635969494613414 -7.61166762130754e-06 0.000131281058210623 9.07564535069456e-06 0.000190804137260913 0.000290242093304506 0.000556327261439575 1.53820538182002e-05 1.33960052592267e-05 0.000114730322892873 0.000105109041516539 0.00032404101188818 4.83903692288725e-05
"235" 0.000205414483834398 0.000292932024254713 0.000121475476022248 0.000627565682438334 -2.19122396566322e-05 0.00011978796082156 6.05646512674888e-06 0.000190586437496751 0.000279175930128726 0.000507599504027284 9.2619186211384e-06 3.02047046845282e-06 0.000113322568757426 8.91195109348809e-05 0.000326876806586819 4.44758740655245e-05
"236" 0.000209713541185713 0.000291011824387857 0.000111478733105837 0.000617650384306526 -3.71485144822896e-05 0.000107301873927938 2.19078510197869e-06 0.000189554396264858 0.000267133758979407 0.000458606582265696 2.92176691216948e-06 -7.3154388584238e-06 0.000111235047249155 7.27182200117984e-05 0.000328893845307822 4.0007474245153e-05
"237" 0.000213142879753457 0.000288552394878968 0.000101201492566734 0.000606211868452499 -5.32913658274713e-05 9.38191649588035e-05 -2.57289785270211e-06 0.000187669494778845 0.000254196152681704 0.000409990837468202 -3.62149463702876e-06 -1.76183445769361e-05 0.000108397802718954 5.5930166646172e-05 0.00032994819151089 3.49031676318954e-05
"238" 0.000215648700163499 0.000285546156418802 9.06631505014421e-05 0.000593228819953932 -7.03064686431077e-05 7.93464730130994e-05 -8.28062808685532e-06 0.00018488939379527 0.000240456052263868 0.000362396014306651 -1.03566649757602e-05 -2.78999483353681e-05 0.000104746461423441 3.87876608832125e-05 0.000329891188624962 2.90869409023706e-05
"239" 0.00021719072428202 0.000281986747906062 7.98853940637498e-05 0.000578703440730207 -8.81401219050389e-05 6.38960865164853e-05 -1.49726904067653e-05 0.000181181868912109 0.000225994108099278 0.000316430102060475 -1.72707867614328e-05 -3.81731295694032e-05 0.000100215252371517 2.13155301186437e-05 0.000328580227781123 2.24776223328797e-05
"240" 0.000217736606117294 0.000277880774519202 6.88917792486404e-05 0.000562636654578052 -0.000106747110840922 4.74837885875121e-05 -2.26803211950794e-05 0.000176517332238384 0.000210896435628447 0.000272703113294235 -2.43613503681574e-05 -4.84593583868032e-05 9.47442623423903e-05 3.53838997346079e-06 0.000325867172957637 1.50057813014938e-05
"241" 0.000217260819136381 0.000273230261826208 5.77103262124266e-05 0.000545045571490698 -0.000126060167259867 3.01349966940873e-05 -3.14295204885169e-05 0.000170876541744137 0.000195257084934186 0.00023177421954188 -3.16171234711755e-05 -5.87761865975142e-05 8.82832574040194e-05 -1.45119074198319e-05 0.000321619190380449 6.60295532656766e-06
"242" 0.000215747717872875 0.000268048127436246 4.63742012218892e-05 0.000525956306872933 -0.000146016662304797 1.18852031558788e-05 -4.12422933937509e-05 0.000164242727802185 0.000179163194763923 0.00019417490169872 -3.90338611456285e-05 -6.91431878006234e-05 8.07848924609911e-05 -3.28100705038122e-05 0.000315702621476519 -2.79304060190356e-06
"243" 0.000213192824451441 0.00026234828696646 3.49158128120244e-05 0.000505404544897357 -0.000166539524832645 -7.22864234242856e-06 -5.21238584544581e-05 0.000156606346567962 0.000162700442603526 0.000160404689607708 -4.66086079630825e-05 -7.95869342384079e-05 7.22047296506307e-05 -5.13297460783808e-05 0.00030799270945498 -1.32356877977953e-05
"244" 0.00020959426758927 0.000256146546493923 2.33741616901597e-05 0.000483439660796731 -0.000187551630711257 -2.7160505023784e-05 -6.40780302015617e-05 0.000147966897073274 0.000145953350760745 0.00013090599202165 -5.43362520813283e-05 -9.01283558023014e-05 6.25190047241099e-05 -7.00404985974708e-05 0.00029838136231357 -2.47695718514037e-05
"245" 0.000204972142794009 0.000249473026774592 1.17878129025319e-05 0.000460122798411139 -0.000208965089323852 -4.78551697315951e-05 -7.70972034881756e-05 0.000138332928758085 0.000129007596271614 0.0001060885248252 -6.2213804616139e-05 -0.000100793493277343 5.1699003411646e-05 -8.89067187198336e-05 0.000286766587091193 -3.7431197136073e-05
"246" 0.000199339461059991 0.0002423488874276 1.99243936862749e-07 0.000435522827221733 -0.000230691116868771 -6.92527877376332e-05 -9.11651957205839e-05 0.000127711634729539 0.000111940151546753 8.63096166006371e-05 -7.02448320362513e-05 -0.000111607629594109 3.97301501677665e-05 -0.000107911572795561 0.000273060276144452 -5.12546264404638e-05
"247" 0.000192731526074024 0.000234810919953108 -1.13451516427542e-05 0.000409720939648199 -0.000252635738535375 -9.12881174527234e-05 -0.000106256938428133 0.000116127489381128 9.48255235092714e-05 7.18709893048679e-05 -7.84269369690369e-05 -0.000122594173553942 2.66065830725667e-05 -0.000127015037142 0.000257192179005728 -6.62576350602935e-05
"248" 0.000185186926633301 0.000226892038472032 -2.27954516062979e-05 0.000382813178803225 -0.000274699815308952 -0.000113886155013261 -0.00012233192776278 0.000103607531403104 7.77400276437071e-05 6.30272177723004e-05 -8.67585026700701e-05 -0.000133776656290866 1.23372093051101e-05 -0.000146188167535399 0.000239107357818751 -8.24419254506808e-05
"249" 0.000176752511690991 0.000218629934979088 -3.41109881742102e-05 0.000354899396621995 -0.000296785213263694 -0.000136969117160301 -0.000139356662679803 9.01835700679425e-05 6.07485137394746e-05 5.99766208930715e-05 -9.52471047543314e-05 -0.000145178571430911 -3.07542788675423e-06 -0.000165403236100213 0.000218769757854141 -9.98152852047895e-05
"250" 0.000167485316781496 0.000210070817434526 -4.52321544924351e-05 0.000326096105578837 -0.00031878332493936 -0.000160449108843384 -0.000157266681163067 7.58988409993475e-05 4.39167101701046e-05 6.28580863695476e-05 -0.000103887585164448 -0.000156817502537541 -1.95957763890996e-05 -0.000184621478435028 0.000196162348161067 -0.000118357186778447
"251" 0.000157449963910275 0.000201261439052751 -5.61103478234335e-05 0.000296526186384676 -0.000340592987906406 -0.000184239144469528 -0.000176004610519657 6.08003816478661e-05 2.73037771773294e-05 7.1755017981351e-05 -0.000112683829327707 -0.000168708695964985 -3.7195269745944e-05 -0.000203809060958008 0.000171289018380973 -0.000138044941266877
"252" 0.000146718316447069 0.000192248018481337 -6.66894026019588e-05 0.000266323856061369 -0.000362105224114213 -0.000208240056522944 -0.000195496887516331 4.49481242371465e-05 1.09605206741131e-05 8.66953176094492e-05 -0.000121635895353691 -0.000180863964081174 -5.58284182284384e-05 -0.000222934159725659 0.000144173664619431 -0.000158841742441381
"253" 0.000135362980388421 0.00018308626678582 -7.69203597393859e-05 0.000235630968418797 -0.000383214041818218 -0.000232353194027713 -0.000215664046267479 2.84005025721751e-05 -5.0675144715047e-06 0.000107640062721093 -0.000130743863555582 -0.000193291888030985 -7.54381005397762e-05 -0.00024195979928287 0.000114861431210943 -0.000180700941572853
"254" 0.000123471750887132 0.00017383008851161 -8.67507055960545e-05 0.000204592851472382 -0.000403810694175963 -0.000256474127026296 -0.000236418807344211 1.1226175722914e-05 -2.07335031708276e-05 0.000134501767941666 -0.000140003500850298 -0.000205993331591189 -9.59564809113273e-05 -0.000260849649348689 8.34208645385245e-05 -0.000203563302157154
"255" 0.000111129562431542 0.000164533853431376 -9.61251981274017e-05 0.000173370679497704 -0.000423790356714449 -0.000280495179494765 -0.000257659383567629 -6.4978155697147e-06 -3.60013342308722e-05 0.000167123951601489 -0.000149414294700229 -0.000218961522765916 -0.000117310515289986 -0.000279561362050109 4.9945136593916e-05 -0.000227355964359424
"256" 9.84301299452395e-05 0.000155261122541266 -0.000104990402325448 0.000142126877708762 -0.000443050075173134 -0.000304307277037421 -0.00027928782246567 -2.46914770079855e-05 -5.08407141117822e-05 0.000205299820073614 -0.000158968643395762 -0.000232186542437136 -0.000139404397244158 -0.000298057079870681 1.4545057970009e-05 -0.000252000352358858
"257" 8.5470784558169e-05 0.000146066062976885 -0.000113305443542754 0.000111025448445762 -0.000461480481212492 -0.000327795955660802 -0.000301189654127534 -4.32683121855056e-05 -6.52214759250705e-05 0.000248755322567353 -0.000168658428940606 -0.000245648369862389 -0.00016215058596264 -0.000316294631016332 -2.26410488801025e-05 -0.00027740439912671
"258" 7.23451735634733e-05 0.000137011484309168 -0.000121019901367394 8.02365602023251e-05 -0.000478991924685549 -0.000350849618490227 -0.000323254959834707 -6.21396096598334e-05 -7.91260762534981e-05 0.000297177826607986 -0.000178475076325119 -0.000259323285974358 -0.000185434713120024 -0.000334232430592764 -6.14621271120674e-05 -0.000303467579627521
"259" 5.91584865006319e-05 0.000128163374679407 -0.000128087574709865 4.99402873368329e-05 -0.000495478108319335 -0.00037335133818061 -0.000345354296021445 -8.12062052819662e-05 -9.25335610282019e-05 0.000350175725917352 -0.000188404600237064 -0.000273167909943853 -0.000209137215844736 -0.000351824542162121 -0.000101731857755957 -0.000330073865090107
"260" 4.60056881850335e-05 0.000119574562876513 -0.000134474747910627 2.02996693038375e-05 -0.000510857054913785 -0.000395188211022449 -0.00036737062297124 -0.000100374211807624 -0.000105435893872151 0.000407337956039935 -0.000198429933550416 -0.00028714557817908 -0.000233140077405249 -0.000369027766693894 -0.000143260671103542 -0.000357109096863556
"261" 3.29904411060462e-05 0.000111310849436848 -0.000140145231339842 -8.50433723359826e-06 -0.000525035233702235 -0.000416248809687008 -0.000389175331331473 -0.000119539518707254 -0.000117822620310764 0.000468177303164325 -0.000208531175097099 -0.00030120013583922 -0.000257306917146364 -0.000385793587328768 -0.000185829711220311 -0.000384445701332638
"262" 2.02125847786989e-05 0.00010343277398678 -0.00014506494884788 -3.6300399594946e-05 -0.000537936324563705 -0.000436416085607708 -0.00041063115622238 -0.000138594538616519 -0.00012968628089051 0.000532164949246002 -0.000218684334583406 -0.000315268398548775 -0.00028149115221511 -0.000402070733510263 -0.000229199422654099 -0.000411943477153723
"263" 7.76813455608677e-06 9.59960088818047e-05 -0.000149214856258482 -6.29240564001674e-05 -0.000549484075344276 -0.00045558749526422 -0.000431616948935234 -0.000157437207299137 -0.000141031403352517 0.000598755470394024 -0.000228863241345691 -0.000329284042258904 -0.000305551549441516 -0.000417815466599314 -0.000273127687252037 -0.000439469072606695
"264" -4.25272816977383e-06 8.90561007577224e-05 -0.000152581983036641 -8.82097448030886e-05 -0.000559616982250929 -0.000473658345439494 -0.000452002363755295 -0.00017596239861394 -0.000151859884884091 0.0006673408215303 -0.000239036626583758 -0.000343168346963669 -0.000329338753861804 -0.000432979287189096 -0.000317351344437383 -0.000466877658365745
"265" -1.5757839334475e-05 8.26641552140889e-05 -0.00015514913649977 -0.000112002426727294 -0.000568272857568752 -0.000490525514152767 -0.000471657828377768 -0.000194064374903185 -0.00016217610226599 0.00073730435245938 -0.000249171538746798 -0.000356838340139378 -0.000352695349907593 -0.000447506440651795 -0.000361599541234451 -0.000494020055505767
"266" -2.66604393789662e-05 7.68748943391021e-05 -0.000156911470366463 -0.000134148679316784 -0.000575405179807205 -0.000506096238628221 -0.000490458432839321 -0.000211634567266932 -0.000171987964884327 0.000807983701742144 -0.00025922764032254 -0.000370201037122817 -0.00037546402854477 -0.000461349403983527 -0.000405585545407678 -0.000520746709979419
"267" -3.68871770996866e-05 7.17271552620277e-05 -0.000157880648376724 -0.000154517218053246 -0.000580975032920737 -0.00052028602932696 -0.000508285866786161 -0.000228575299501136 -0.000181306585236247 0.00087871981417054 -0.000269168632693742 -0.000383162710000115 -0.000397487889096939 -0.000474457607397864 -0.000449025442602633 -0.000546910109587784
"268" -4.63618815037349e-05 6.72635995116768e-05 -0.0001580661262477 -0.000172980261444629 -0.000584958656392122 -0.00053301624195025 -0.000525026693564526 -0.000244790267406719 -0.000190147078033106 0.000948841911849782 -0.000278950322681428 -0.000395627536122281 -0.000418619306679297 -0.00048678307427153 -0.000491631019656635 -0.000572364180042911
"269" -5.50210073859712e-05 6.35150338982074e-05 -0.000157489453458341 -0.000189420711577713 -0.000587336593010783 -0.000544215498237063 -0.000540575480414874 -0.000260183543589654 -0.000198521870713465 0.00101765860663306 -0.000288529059495673 -0.000407488543367807 -0.000438696677000534 -0.000498276088807215 -0.000533107186465702 -0.000596958310632308
"270" -6.28133869874503e-05 6.05146814807707e-05 -0.000156181458614382 -0.000203744961495883 -0.000588105857635843 -0.000553826319535247 -0.000554833881446453 -0.000274668850749249 -0.000206443845475894 0.001084501078745 -0.000297857070760158 -0.000418647131915783 -0.000457579389342991 -0.000508888506950562 -0.000573164481882025 -0.000620549550999041
"271" -6.96853460863363e-05 5.82782152632669e-05 -0.000154175496374215 -0.000215865473806903 -0.000587273171021494 -0.000561795574627928 -0.000567716050115325 -0.000288169298043322 -0.000213935763173466 0.00114870897043079 -0.00030688867010311 -0.000429001302651991 -0.000475123310954693 -0.000518576700427737 -0.000611524507189374 -0.00064300338189093
"272" -7.56031589169352e-05 5.68178913626011e-05 -0.000151522758749032 -0.000225719393736288 -0.000584861771525268 -0.000568090112981887 -0.000579144803206554 -0.0003006113370497 -0.000221013191389639 0.0012096402916867 -0.000315576858826058 -0.000438453025171222 -0.000491199445044827 -0.000527302126523918 -0.000647909569431582 -0.00066418994584335
"273" -8.05383577652692e-05 5.61418906619694e-05 -0.000148273945084114 -0.000233260108904765 -0.000580904920524016 -0.000572681367546631 -0.000589056303442322 -0.000311931199302729 -0.000227692805115067 0.0012666832033888 -0.00032387799891888 -0.000446906534783692 -0.000505690788295769 -0.000535022138942838 -0.000682056515376402 -0.000683984940471662
"274" -8.44783280442901e-05 5.624035122784e-05 -0.000144497622100565 -0.000238464365194281 -0.000575456195911114 -0.000575563118874807 -0.000597409033569976 -0.000322085781889333 -0.00023399905124259 0.00131926899070392 -0.000331743475008038 -0.00045427652841971 -0.000518488926179496 -0.000541704419845344 -0.000713722669646139 -0.000702280992512721
"275" -8.74155334761787e-05 5.71037278908247e-05 -0.000140258498261402 -0.000241322385996327 -0.000568569590189199 -0.000576733344105877 -0.000604156345749275 -0.000331025759785239 -0.000239950137243675 0.00136685504726967 -0.000339134015829885 -0.000460479918396606 -0.000529496536781296 -0.000547318388395389 -0.000742672044212695 -0.000718969159571986
"276" -8.93508807191717e-05 5.87098386933172e-05 -0.00013563607757287 -0.00024185281088268 -0.000560324818938157 -0.000576209563328544 -0.000609288759735857 -0.000338726179371884 -0.000245569805480311 0.00140896363995835 -0.000346008162880074 -0.00046544955621635 -0.000538643568793877 -0.000551841755588915 -0.000768696870107143 -0.000733963308837109
"277" -9.03070204961068e-05 6.10176292269427e-05 -0.000130713658121395 -0.00024009552285657 -0.00055081077017617 -0.000574021979113342 -0.000612796054667121 -0.000345174567088552 -0.000250880661906227 0.00144517731276179 -0.00035233274523102 -0.000469126063422808 -0.000545870233901027 -0.000555255525726735 -0.000791612307785517 -0.000747189209892269
"278" -9.03082837396479e-05 6.39883950721065e-05 -0.000125581776513768 -0.000236105557930143 -0.000540126740637697 -0.000570217264051386 -0.000614695035501388 -0.000350368984736692 -0.000255906459562321 0.00147511661262004 -0.000358078645862142 -0.000471460329161803 -0.000551133854309331 -0.000557553071440751 -0.000811254397243308 -0.000758581529304497
"279" -8.93941765967421e-05 6.75703112058631e-05 -0.000120331840867681 -0.000229970033836011 -0.000528387459329907 -0.000564852201566376 -0.000615012842648882 -0.000354315387006494 -0.000260667278450031 0.00149849378520638 -0.000363214489706639 -0.000472421158469431 -0.000554416353114347 -0.000558722717291345 -0.00082748902770944 -0.000768093117508844
"280" -8.76152274272805e-05 7.16984517809589e-05 -0.00011506391883526 -0.000221790026001561 -0.000515720966966848 -0.000558004182416982 -0.000613798744471106 -0.000357048048661163 -0.00026519617756683 0.00151507881989553 -0.000367727882415465 -0.00047199556034121 -0.000555718446938412 -0.000558774282236998 -0.000840211053985336 -0.000775692450338095
"281" -8.50266888989104e-05 7.63000590088539e-05 -0.000109882748774424 -0.000211692981276431 -0.000502260262306524 -0.000549761365691892 -0.000611109277635584 -0.000358599977828175 -0.000269516978893575 0.00152471088015541 -0.000371602634238747 -0.000470175677344445 -0.000555062972354477 -0.000557717938584129 -0.000849346545172365 -0.000781363512134983
"282" -8.16974711916453e-05 8.12973320788588e-05 -0.00010488730802203 -0.000199820534267359 -0.00048815454237875 -0.000540223068667481 -0.000607032161739702 -0.000359026716370531 -0.000273653187949616 0.00152730401113514 -0.000374831636273529 -0.000466980153736844 -0.00055249239962696 -0.000555569406309719 -0.000854848908740946 -0.000785108228652776
"283" -7.77055718051459e-05 8.6599275700093e-05 -0.000100180774387959 -0.000186340527229564 -0.000473554117693425 -0.000529505297540998 -0.000601654396859645 -0.000358393177717974 -0.000277640864084284 0.00152284966824462 -0.000377418088028961 -0.000462438847372447 -0.000548070822126113 -0.000552362206234229 -0.000856708684008763 -0.000786938370071819
"284" -7.31408414928263e-05 9.21107758103824e-05 -9.58742901594249e-05 -0.000171433560420835 -0.000458621989032351 -0.000517736030805778 -0.000595088586770229 -0.000356777470984823 -0.00028150035557873 0.00151141449096264 -0.000379368307595885 -0.000456601279527919 -0.000541885570958461 -0.000548132557334149 -0.000854947096814964 -0.000786890655166361
"285" -6.80874043691091e-05 9.77292429941346e-05 -9.20651799818443e-05 -0.000155296767262214 -0.000443527313160671 -0.000505048887156661 -0.000587454025042124 -0.000354270310208507 -0.000285274839692624 0.00149311724320764 -0.000380698398454812 -0.000449529529861752 -0.000534042739944307 -0.000542926004954864 -0.000849616594307307 -0.000785014228773338
"286" -6.26465501459629e-05 0.00010335490120249 -8.88537811482578e-05 -0.000138134733442413 -0.000428442804333792 -0.000491594409421758 -0.000578885833721089 -0.000350966112330872 -0.000288979608230202 0.00146815989343231 -0.000381425270823696 -0.000441304426802311 -0.000524658402881465 -0.000536791024021039 -0.000840795124664175 -0.000781369321864994
"287" -5.6920174456999e-05 0.000108876856056125 -8.63416650995847e-05 -0.000120173897829739 -0.000413538372114893 -0.000477527360324345 -0.000569529548041963 -0.00034697974057866 -0.000292655365337766 0.00143681233026596 -0.000381582832470884 -0.000432023048335831 -0.000513881062467152 -0.000529791561787794 -0.000828606533664377 -0.000776038289225804
"288" -5.10149517340316e-05 0.000114183425715909 -8.46192988892068e-05 -0.00010164540283971 -0.000398990559541373 -0.000463006176689152 -0.000559539245613592 -0.000342424810343374 -0.000296330252282248 0.00139938774986645 -0.000381203050384794 -0.000421789144625043 -0.000501864636188412 -0.000521995129371954 -0.000813188859771834 -0.00076911378389286
"289" -4.50355713796948e-05 0.000119165443662863 -8.37744460865661e-05 -8.27782471626503e-05 -0.000384971899355176 -0.000448198951986556 -0.000549075041345847 -0.000337421198720561 -0.000300035926649081 0.00135625885482895 -0.000380325438815274 -0.000410725845481469 -0.000488778265840893 -0.000513475386622529 -0.000794715200103631 -0.000760701355729005
"290" -3.9094546624938e-05 0.000123715076793933 -8.38885427896391e-05 -6.38195233827185e-05 -0.000371651615664884 -0.000433277255823059 -0.000538305488339387 -0.000332098542290542 -0.000303803628140232 0.00130784921470786 -0.000378995706128979 -0.000398964823163484 -0.000474803165435805 -0.000504312997179716 -0.000773383072878343 -0.000750920702788196
"291" -3.32981379803976e-05 0.000127726926183134 -8.50362849288114e-05 -4.50054326668987e-05 -0.000359198293494586 -0.000418410324609129 -0.000527400635424007 -0.000326587683054416 -0.000307660975039162 0.0012546263686946 -0.000377260192666517 -0.000386647359084056 -0.000460136047514446 -0.000494595174844155 -0.000749414498098715 -0.000739898291656194
"292" -2.77537015866469e-05 0.00013110030527671 -8.7281650568978e-05 -2.65724072045277e-05 -0.000347767113000553 -0.000403769035420955 -0.000516528737630694 -0.000321017870127676 -0.00031163943787495 0.00119707467752134 -0.000375168526920793 -0.000373915847962612 -0.000444963694546805 -0.000484408133678788 -0.00072304445658977 -0.000727772773119654
"293" -2.25593007912202e-05 0.000133739088561825 -9.06804554764526e-05 -8.75494708102146e-06 -0.000337503777598047 -0.00038952069507538 -0.000505860396446578 -0.000315517231782991 -0.000315764737313517 0.00113572650548829 -0.000372780395556627 -0.000360928335581334 -0.000429493846929577 -0.000473847574550615 -0.000694534668823798 -0.000714691156866483
"294" -1.78207921043541e-05 0.000135557369484314 -9.52794533243906e-05 8.2235186593361e-06 -0.000328552611929992 -0.000375831182922132 -0.000495566924878559 -0.00031021738605591 -0.000320061526112017 0.00107112712060281 -0.000370150364110437 -0.000347841467632117 -0.000413930721879197 -0.000463010158470963 -0.000664163207813835 -0.000700804029466576
"295" -1.36214360584969e-05 0.000136481585872774 -0.000101112917409965 2.4149651882894e-05 -0.000321034449765577 -0.000362857558812314 -0.000485804261193759 -0.000305235000247064 -0.00032455376086242 0.00100381526735852 -0.000367332224366093 -0.00033480407461802 -0.000398471489164043 -0.000451988634335962 -0.000632207406454772 -0.000686264037170886
"296" -1.00518086103311e-05 0.000136436233203645 -0.000108209885484341 3.88201892129457e-05 -0.00031506486148659 -0.000350746704136358 -0.000476732551673779 -0.000300693445228291 -0.000329264318000174 0.000934363369111445 -0.000364384968014924 -0.000321978829518357 -0.0003833210533511 -0.000440883814195914 -0.000598967458981929 -0.000671233965004734
"297" -7.18823970762862e-06 0.000135367953570733 -0.000116583263364717 5.20461691326996e-05 -0.000310741510953614 -0.000339640118669768 -0.000468493718227281 -0.000296703255708337 -0.000334209002188817 0.000863329654786003 -0.000361362363351283 -0.000309516398737939 -0.000368669658944762 -0.000429792987350473 -0.000564743962989212 -0.000655874244580284
"298" -5.10056011565619e-06 0.000133227934669417 -0.000126239268753778 6.36541947033163e-05 -0.000308145323514169 -0.000329669126939649 -0.000461230278832223 -0.000293366735636449 -0.000339403244490886 0.000791276643044717 -0.000358320586848754 -0.000297568409855525 -0.000354708119405399 -0.00041880994478644 -0.000529836990460983 -0.00064034440991273
"299" -3.84641870846319e-06 0.000129985365917734 -0.000137164579375897 7.34952703807941e-05 -0.000307339976889102 -0.000320944236584875 -0.000455061043573155 -0.000290778134502216 -0.000344862278747909 0.00071874554890083 -0.000355314559327033 -0.000286278223413782 -0.000341614518179191 -0.000408030991000041 -0.000494552565530981 -0.000624803896619574
"300" -3.46962720604551e-06 0.000125620338642425 -0.000149340767700473 8.14378872210498e-05 -0.000308370392593279 -0.000313570572246076 -0.000450094110220213 -0.000289015594072298 -0.00035058990793144 0.000646259018881916 -0.000352387289892156 -0.000275776018294388 -0.000329551648257208 -0.000397543554267949 -0.000459187277091888 -0.000609405249515247
"301" -4.0116162083635e-06 0.000120118256205844 -0.000162735901786573 8.73683305029376e-05 -0.000311263507069124 -0.000307633373817954 -0.000446429304511614 -0.000288155343611993 -0.000356591489104382 0.000574334716209389 -0.000349589009852155 -0.000266194139402195 -0.000318678138909014 -0.000387431765031534 -0.000424037460139394 -0.000594301048679091
"302" -5.49670076891347e-06 0.000113491315289234 -0.0001773089515671 9.11955459454424e-05 -0.000316032217249153 -0.000303204280967828 -0.000444142698250645 -0.000288255694522689 -0.000362874637648571 0.000503457529814359 -0.00034696413308739 -0.000257650891744579 -0.000309139168119939 -0.000377783189968884 -0.000389387474008467 -0.000579636382488175
"303" -7.93822979155063e-06 0.000105749988008585 -0.000192999939307706 9.28536942727878e-05 -0.000322664496561706 -0.000300338611039138 -0.000443295250312786 -0.000289363077917153 -0.000369421608546755 0.000434090267936768 -0.000344546473397016 -0.000250250262726322 -0.000301047785760759 -0.000368664866232097 -0.000355508464305011 -0.00056554550465737
"304" -1.13381605236965e-05 9.69290902228309e-05 -0.000209744800322239 9.230495811263e-05 -0.000331128670930151 -0.00029906783815435 -0.000443933868074146 -0.000291508828959567 -0.000376236953396444 0.000366656608510311 -0.000342370283937602 -0.000244086731180862 -0.000294525736491803 -0.000360153404679189 -0.000322662026928037 -0.000552160182829805
"305" -1.5683200757725e-05 8.70698881879574e-05 -0.000227463329671707 8.95248234219705e-05 -0.000341380919419481 -0.000299415648255722 -0.00044607872223491 -0.000294716733821651 -0.000383303609282324 0.000301556958682162 -0.000340465273506713 -0.000239243280426449 -0.000289660188495857 -0.000352303647630018 -0.000291089708651733 -0.000539600035933204
"306" -2.09507000966315e-05 7.6226883967034e-05 -0.00024606849460102 8.4520543976535e-05 -0.000353353714924741 -0.000301382975332129 -0.000449744290998373 -0.000298992680940405 -0.000390600685978421 0.000239170887869721 -0.000338857342694375 -0.000235792331671849 -0.000286531079750722 -0.000345170179787102 -0.000261018504524856 -0.000527972110836537
"307" -2.71072710228113e-05 6.4463034817309e-05 -0.000265460431023567 7.73188308205408e-05 -0.000366965257320073 -0.000304951427241264 -0.000454915839509255 -0.000304331332855055 -0.000398111888108651 0.000179827353637615 -0.000337562446169673 -0.000233790335599036 -0.00028519580397395 -0.000338803278629835 -0.000232653724404643 -0.000517374600434881
"308" -3.41038026704537e-05 5.1855747780116e-05 -0.000285524229787263 6.79816868161403e-05 -0.000382111441970674 -0.000310088766983902 -0.000461560474452816 -0.000310707662238727 -0.000405808237978923 0.000123815951053005 -0.000336594825408709 -0.000233278796922286 -0.000285691759593228 -0.000333235763438904 -0.000206172012264145 -0.000507891453218931
"309" -4.18818359166514e-05 3.84875593603676e-05 -0.000306146648544777 5.65743111854362e-05 -0.000398685241576757 -0.000316743297143877 -0.000469635415020986 -0.000318095579345091 -0.000413659537467443 7.14217135504629e-05 -0.000335966085730911 -0.000234289265387682 -0.000288047859429227 -0.0003284957956863 -0.000181744135104652 -0.000499595021736199
"310" -5.03720208828235e-05 2.44551038792902e-05 -0.000327194143627439 4.32044990431374e-05 -0.000416550024008978 -0.000324849440141916 -0.000479072832813841 -0.00032644538243851 -0.000421626089671239 2.28633952650185e-05 -0.000335675437220841 -0.000236837937272984 -0.000292264640389997 -0.000324602203686454 -0.000159500216226278 -0.00049254579480992
"311" -5.9497258278814e-05 9.85398681199125e-06 -0.000348531741776452 2.79847996961037e-05 -0.000435565036199317 -0.000334326060672231 -0.00048978782897034 -0.000335702810519152 -0.000429671465673138 -2.16554192876323e-05 -0.000335722571286347 -0.00024092991147035 -0.000298333026748566 -0.000321565322358848 -0.000139552557445724 -0.000486789593577831
"312" -6.91685068035529e-05 -5.20049526240357e-06 -0.000370011671923369 1.10597424117986e-05 -0.000455575606336396 -0.00034507470520302 -0.000501679087633485 -0.000345796331931256 -0.000437750758626759 -6.19756599827742e-05 -0.000336102628681895 -0.000246552385934737 -0.000306223585320521 -0.000319380418109878 -0.000121986800769328 -0.000482355904621227
"313" -7.92907503769106e-05 -2.05998353755563e-05 -0.000391486146045781 -7.41422665276695e-06 -0.000476415985061686 -0.000356986381405699 -0.000514637954416005 -0.000356649323117411 -0.000445813227131187 -9.79676135568369e-05 -0.000336801150041068 -0.000253682393561983 -0.000315890353979045 -0.000318043643817322 -0.00010686481918965 -0.000479266593632686
"314" -8.97552931636659e-05 -3.62251241692815e-05 -0.000412793638424017 -2.72617575138983e-05 -0.000497908357966933 -0.000369938473211491 -0.000528530136044395 -0.000368171479496131 -0.000453812345994052 -0.000129536460330941 -0.00033780247115941 -0.00026228397786565 -0.000327272638472641 -0.000317537137892441 -9.42195505358133e-05 -0.000477525912031207
"315" -0.000100457948507924 -5.19571279616729e-05 -0.000433776888172062 -4.8292076671165e-05 -0.000519873009452805 -0.000383796617159044 -0.000543214501889581 -0.000380261224331357 -0.000461685246016138 -0.000156623831855143 -0.000339084690190118 -0.000272304570259567 -0.000340289635639028 -0.000317830234441509 -8.40575707538018e-05 -0.000477122527998676
"316" -0.00011128302346626 -6.76698121023001e-05 -0.000454271370610738 -7.02975148160974e-05 -0.00054211873779304 -0.000398418957669074 -0.000558536261838632 -0.000392813837285338 -0.00046938069515994 -0.000179195738848357 -0.000340623173046776 -0.000283685108967953 -0.000354857316034712 -0.000318890341861751 -7.63658231410446e-05 -0.000478037823834921
"317" -0.000122106393389995 -8.32397843497864e-05 -0.000474108108329034 -9.30644101814067e-05 -0.000564452248505357 -0.000413651632307933 -0.000574329806056875 -0.000405713654399244 -0.000476831808035313 -0.000197260687013035 -0.000342386955268811 -0.000296344319099707 -0.000370870298428668 -0.000320670848961776 -7.1096394630941e-05 -0.000480237142860642
"318" -0.000132815667083418 -9.85437039386061e-05 -0.000493122012776801 -0.000116369100525895 -0.000586677158210923 -0.000429337259503385 -0.000590425097581135 -0.000418843641562012 -0.000483982561528292 -0.000210845409035457 -0.000344345975206845 -0.000310201168393591 -0.000388211477799863 -0.000323127542937669 -6.81908612175613e-05 -0.00048367593988491
"319" -0.000143279846900507 -0.000113456301186081 -0.000511144294614327 -0.000139973938098658 -0.000608594851141678 -0.00044531296799874 -0.0006066422996736 -0.000432072644858219 -0.000490763372622492 -0.000220019798990843 -0.00034645681036552 -0.000325152272061307 -0.000406751973321443 -0.000326197779578606 -6.75556655861994e-05 -0.000488294025333497
"320" -0.000153382567566668 -0.000127857711715958 -0.000528014421111337 -0.000163645949477797 -0.000630003479449356 -0.000461405349841064 -0.000622791571713832 -0.000445272673567155 -0.000497110708938645 -0.000224880454236715 -0.000348683517903047 -0.000341087808258886 -0.00042635812277368 -0.000329816503791903 -6.90826705370592e-05 -0.000494023117364282
"321" -0.000162997129237061 -0.000141626918167527 -0.00054357245685947 -0.000187140950698611 -0.000650707285575472 -0.000477448281534493 -0.000638682638170839 -0.000458311375174671 -0.000502959180322654 -0.00022554701352587 -0.000350979051554444 -0.000357885582407821 -0.000446880098244285 -0.000333920526490322 -7.26400421554249e-05 -0.000500786726649313
"322" -0.000172012054561514 -0.000154652975537326 -0.000557659517811806 -0.000210220426941964 -0.000670509827502943 -0.000493269423001319 -0.000654132339184188 -0.000471054758989126 -0.000508244210030766 -0.000222163957340959 -0.000353299196832319 -0.000375416642011229 -0.000468166408815528 -0.000338434697753968 -7.80834406858947e-05 -0.000508495028163866
"323" -0.000180304746476111 -0.000166825960910743 -0.00057013192678381 -0.000232644569470586 -0.000689222875726287 -0.000508696401081663 -0.000668939901068578 -0.000483364753981851 -0.000512901086632205 -0.000214909122551055 -0.000355594395667885 -0.000393539880477654 -0.000490057610005931 -0.000343282812025235 -8.52477812291136e-05 -0.000517058002792277
"324" -0.000187772922546364 -0.000178042082687222 -0.000580844958336976 -0.000254177004876735 -0.000706654842784154 -0.000523559272611 -0.000682920831822015 -0.000495106031282421 -0.00051686327541878 -0.000203988936746471 -0.000357813231579305 -0.00041210259235538 -0.000512384593472866 -0.000348378767979138 -9.39496116435708e-05 -0.000526367214957077
"325" -0.000194309097563139 -0.000188207068887323 -0.000589673279334084 -0.000274590731208468 -0.000722637393424496 -0.000537693391418214 -0.000695890495498682 -0.000506150953400105 -0.000520077536304221 -0.000189607550800675 -0.000359906297826578 -0.00043095835527913 -0.000534988890072617 -0.000353649644816813 -0.00010400688137571 -0.000536318028119114
"326" -0.000199820918565539 -0.000197234552130219 -0.000596494378181603 -0.000293665691560378 -0.000736994899619135 -0.000550938453741459 -0.000707665174080681 -0.000516365630300031 -0.000522475878513521 -0.000172007795423122 -0.000361816993026005 -0.000449940778202429 -0.00055769057550742 -0.00035900341608899 -0.000115211043205739 -0.000546800435234338
"327" -0.00020421790451791 -0.000205040946232734 -0.000601201313024501 -0.000311194943480349 -0.000749570469362324 -0.000563141896550202 -0.000718073357086881 -0.000525627057790362 -0.000524006131181016 -0.000151451951204806 -0.000363495548739146 -0.000468887279905246 -0.000580327319107265 -0.000364360243044512 -0.000127357791983727 -0.000557692589142521
"328" -0.000207428389271952 -0.000211557513725327 -0.000603700624338892 -0.000326978235576829 -0.000760214736274005 -0.000574155917337822 -0.000726949428729511 -0.000533814609994082 -0.000524618082509679 -0.000128206332094817 -0.000364886425177134 -0.000487628161355555 -0.000602722819495322 -0.000369633330092283 -0.000140232936222028 -0.000568878212231656
"329" -0.000209378357149393 -0.000216726044387376 -0.000603911378859815 -0.00034083667715783 -0.0007687975773894 -0.000583844317372519 -0.000734141767767769 -0.000540821000841865 -0.000524262232401012 -0.000102543631483639 -0.000365939537768527 -0.000505999068561537 -0.000624719566329893 -0.00037474497114586 -0.000153621664287081 -0.000580241546048821
"330" -0.000210014704478822 -0.00022049568338198 -0.000601770537386327 -0.000352603184711627 -0.000775190816775646 -0.000592081286055646 -0.000739507703623294 -0.000546536042235549 -0.000522892689023127 -7.47610000280087e-05 -0.000366601192593421 -0.000523828796315566 -0.000646145386867535 -0.000379607175389282 -0.000167304846300462 -0.000591657225360451
"331" -0.000209293980575594 -0.000222823927605681 -0.000597227688353858 -0.000362131345905693 -0.000779293374945276 -0.000598753508384987 -0.000742918309697607 -0.000550869415370413 -0.000520476390569405 -4.51531941998415e-05 -0.000366828342536501 -0.000540949448599533 -0.000666852709194799 -0.000384145065818336 -0.000181067681792007 -0.000603006228194129
"332" -0.00020718136410773 -0.00022368728475312 -0.00059025129007071 -0.000369293511910526 -0.000781013946560584 -0.000603758997272512 -0.00074426577332794 -0.000553735173486787 -0.000516975461328922 -1.4014453442776e-05 -0.000366568262538663 -0.000557203415638731 -0.000686685288165659 -0.00038827998740622 -0.000194704055685408 -0.000614175044555149
"333" -0.000203660093417633 -0.000223067205678808 -0.000580826607476521 -0.000373980994770018 -0.000780279167594238 -0.000607010786056177 -0.000743446822923797 -0.000555058929923843 -0.000512364399072352 1.83578640977295e-05 -0.000365781778485153 -0.000572433057658221 -0.000705503755831181 -0.00039194319943792 -0.00020800369197159 -0.00062504722181359
"334" -0.000198725860086148 -0.000220962508007241 -0.0005689576211859 -0.000376108581699766 -0.000777030049432656 -0.000608434599248515 -0.000740389083885641 -0.000554781451574534 -0.000506625262739204 5.16708155001374e-05 -0.000364431174264824 -0.000586486377083757 -0.000723175615003302 -0.000395069023230511 -0.000220777738447953 -0.000635513676039285
"335" -0.000192380310692835 -0.000217371572404957 -0.000554664516761976 -0.000375609579252551 -0.000771234404513796 -0.0006079744805577 -0.00073502687347236 -0.000552852748049628 -0.000499740699523382 8.56283535163258e-05 -0.000362476810940178 -0.000599224837156955 -0.000739576904931064 -0.000397587855567558 -0.000232835080126849 -0.000645468017234192
"336" -0.0001846435720054 -0.000212320647510077 -0.000537983684950591 -0.000372447197001475 -0.000762866339736486 -0.000605588802788268 -0.000727318150265482 -0.000549237510066701 -0.000491705972995046 0.00011996637799491 -0.00035989319753118 -0.000610522099366513 -0.000754600722062546 -0.000399452397049493 -0.000244011278374401 -0.000654810283706922
"337" -0.000175553049199362 -0.000205836016364906 -0.000518973328714609 -0.00036660286747284 -0.000751929257159223 -0.000601252914907171 -0.000717243258937841 -0.000543914073867917 -0.000482520683716266 0.000154399509573827 -0.000356652419145519 -0.000620252756725606 -0.000768144833712343 -0.000400606992566739 -0.000254139430824036 -0.00066344625304803
"338" -0.0001651506423167 -0.000197960746029715 -0.0004977066683815 -0.000358082787966889 -0.000738440481688795 -0.00059495605268503 -0.000704799222270892 -0.000536877909209099 -0.000472194799360412 0.000188687150284803 -0.000352737895930236 -0.000628319071430959 -0.000780129284091883 -0.000401010208296078 -0.00026308344903861 -0.000671293777925373
"339" -0.000153494693999719 -0.00018874747368202 -0.000474269846283977 -0.000346916538958277 -0.000722440751698216 -0.000586710867210414 -0.000690002199606402 -0.000528132289326829 -0.000460744654684301 0.000222581418293975 -0.000348137216389481 -0.000634629770052251 -0.00079047888537996 -0.000400626313647492 -0.000270717373862553 -0.000678271471694492
"340" -0.000140655298060174 -0.000178256070048899 -0.000448773821272711 -0.000333160609695201 -0.000703983452057579 -0.000576542380880197 -0.000672892967636336 -0.000517702889790254 -0.000448198967436842 0.000255860283139553 -0.000342842885960273 -0.0006391110500945 -0.000799142207418727 -0.000399428018983915 -0.000276934316360572 -0.000684312865586405
"341" -0.000126712129652902 -0.000166561117823368 -0.000421339211706707 -0.000316888275676009 -0.000683143714023012 -0.00056449056419274 -0.000653525961050579 -0.000505623147695167 -0.000434583774063547 0.000288321751050383 -0.000336858235034088 -0.000641704590139429 -0.000806072983990275 -0.000397390509798915 -0.000281646891220306 -0.000689354434199962
"342" -0.000111762382610143 -0.000153743777217038 -0.000392105698261801 -0.000298202129865677 -0.000660018296869513 -0.000550615065088736 -0.000631983663258318 -0.000491944264123948 -0.000419949898775855 0.000319778758332186 -0.000330191288139065 -0.000642370802545078 -0.000811253877457016 -0.000394510238201281 -0.000284790041013073 -0.00069334730356548
"343" -9.59033631222469e-05 -0.000139895167950358 -0.000361219862251714 -0.00027721867791318 -0.000634718111495994 -0.000534992290763162 -0.000608357508881707 -0.000476731192746689 -0.000404342641267506 0.000350063952126684 -0.000322857489435289 -0.000641086995880649 -0.00081466462722475 -0.000390773267834511 -0.000286313398330483 -0.000696249774255572
