"V1" "V2" "V4" "V5" "V7" "V8" "V10" "V11" "V13" "V14" "V15" "V17" "V18" "V20" "V21" "V23"
"1" -1.14565555915148e-06 -6.76477432734928e-05 -3.17092882411514e-05 -2.24771220062132e-06 1.17193276008508e-05 1.4044838084329e-05 1.89014559860618e-05 1.85993283982488e-05 2.5702669327561e-05 1.52032620494817e-05 2.15454928730943e-05 3.27022246060856e-05 3.58272116058281e-05 2.49280966868512e-05 2.63526225785776e-05 1.41552683335672e-05
"2" -1.53468316562291e-05 -0.000107691854499203 -5.51454489595269e-05 -3.15612305610831e-05 2.7790395226982e-06 9.75174234544205e-06 2.76214351100532e-05 -1.52605498946964e-06 -1.44098236258801e-05 6.65565610375256e-06 1.07163301315437e-05 1.57582952330563e-05 2.3384296372802e-05 1.14233441708944e-05 2.20644280409469e-05 -0.000124527480522764
"3" -2.9293928902422e-05 -0.000147492636817608 -7.82681160327663e-05 -6.04874134567906e-05 -6.01830746468053e-06 5.56468492714055e-06 3.62570321220925e-05 -2.13283448514481e-05 -5.42439571391353e-05 -1.88112974840925e-06 8.28079934123691e-08 -9.32754318242468e-07 1.13096682567146e-05 -1.87691093092592e-06 1.78465951044987e-05 -0.000262394748795039
"4" -4.29061472972066e-05 -0.000186605245783318 -0.000100829139364863 -8.87133786189767e-05 -1.45697091030179e-05 1.52296202808992e-06 4.47089764048917e-05 -4.05790680330098e-05 -9.36552288112824e-05 -1.03511632290209e-05 -1.02588355757631e-05 -1.72034533910892e-05 -2.5957238743717e-07 -1.49906084845253e-05 1.36950664500883e-05 -0.000398383562175239
"5" -5.61253778575055e-05 -0.000224588124234051 -0.000122583011549376 -0.000115938240821816 -2.27675175780044e-05 -2.33230884323865e-06 5.28677425619948e-05 -5.90578660503718e-05 -0.000132490755906256 -1.86977988565415e-05 -2.02169836838763e-05 -3.28887657989798e-05 -1.11912070107982e-05 -2.79380558384588e-05 9.59463708616351e-06 -0.000531441418750368
"6" -6.88859206438291e-05 -0.000261000432188454 -0.000143303023999326 -0.000141872806531741 -3.05077300391771e-05 -5.96838141607511e-06 6.06408178532529e-05 -7.6546013367556e-05 -0.000170611781273775 -2.6862891759932e-05 -2.97127617237608e-05 -4.78292507184271e-05 -2.13590131333793e-05 -4.0744033546241e-05 5.52915631192744e-06 -0.000660529133656039
"7" -8.11413923756916e-05 -0.000295410038910606 -0.000162766910588916 -0.00016624123869747 -3.77027670424554e-05 -9.35400815898534e-06 6.79212247002306e-05 -9.28408023034489e-05 -0.000207880871417465 -3.47871649948632e-05 -3.86641034877347e-05 -6.18740331292017e-05 -3.06518500006694e-05 -5.34473884678638e-05 1.48560574223505e-06 -0.000784628669352113
"8" -9.2850123360959e-05 -0.000327395972442887 -0.000180761260168113 -0.000188783094422174 -4.42620846170084e-05 -1.2459096688827e-05 7.46227949122431e-05 -0.000107748909353811 -0.000244166104645757 -4.24174691879103e-05 -4.70035024444706e-05 -7.48833854339216e-05 -3.89674204312939e-05 -6.60817621793974e-05 -2.55549648104964e-06 -0.000902756205620494
"9" -0.00010397835750263 -0.000356551574527447 -0.00019709946006962 -0.000209258915039079 -5.01015249528476e-05 -1.52625388002468e-05 8.0649690097996e-05 -0.000121081400472141 -0.000279346923060022 -4.9691935203431e-05 -5.46650794553195e-05 -8.67245050351686e-05 -4.62086815709894e-05 -7.8686857357295e-05 -6.61242450854997e-06 -0.00101397341706333
"10" -0.000114499354625784 -0.000382491215028346 -0.000211593372213557 -0.000227447545016609 -5.51449576575921e-05 -1.77403924065441e-05 8.59210510557892e-05 -0.000132674166445728 -0.000313308691092308 -5.65591541815245e-05 -6.15888707934415e-05 -9.72791896478412e-05 -5.22868701351058e-05 -9.13083605370074e-05 -1.07042496646504e-05 -0.00111739943494182
"11" -0.000124383628121408 -0.000404842429203651 -0.000224089351910302 -0.000243150986076378 -5.93266846230554e-05 -1.98763087905382e-05 9.03610907098458e-05 -0.000142363168420235 -0.000345945669472291 -6.29700204054303e-05 -6.77237427059528e-05 -0.000106439454307742 -5.71230061014539e-05 -0.000103988133303489 -1.48475297041605e-05 -0.00121220797507009
"12" -0.000133606730225767 -0.00042326818548918 -0.00023443660472717 -0.000256192805428024 -6.25882455087118e-05 -2.16570057241939e-05 9.38927715147115e-05 -0.000150004710089029 -0.000377165419133115 -6.88751727133898e-05 -7.30250562281738e-05 -0.000114111065964782 -6.06365523064764e-05 -0.000116772640000154 -1.90646252719193e-05 -0.00129765407382239
"13" -0.000142144973040466 -0.000437456933330385 -0.000242507885304399 -0.000266421529964328 -6.48748850666184e-05 -2.30650053416062e-05 9.64554286632974e-05 -0.000155466070204579 -0.000406882889282643 -7.42338165489581e-05 -7.74524236209562e-05 -0.000120215973805165 -6.27572406077231e-05 -0.000129702104353076 -2.33694495037165e-05 -0.00137307387307101
"14" -0.000149961073334102 -0.000447121588866016 -0.00024819367813392 -0.000273713649843908 -6.61457520771015e-05 -2.40929612171567e-05 9.79960410087021e-05 -0.00015863001002006 -0.000435025445424611 -7.9007969955504e-05 -8.09683587988665e-05 -0.000124689205279246 -6.34131429300261e-05 -0.000142819137902043 -2.77807371396903e-05 -0.00143790019838455
"15" -0.000157020025700392 -0.000452017111724427 -0.000251401376527139 -0.000277966329133094 -6.63630832198968e-05 -2.47326366295652e-05 9.84682565518405e-05 -0.000159390642934429 -0.0004615362806534 -8.31681834014377e-05 -8.35465367408523e-05 -0.000127480480599192 -6.25372953937211e-05 -0.000156161100522996 -3.23139623807696e-05 -0.00149166286803263
"16" -0.000163274509604959 -0.000451923912013102 -0.00025206146741297 -0.000279106908857849 -6.55041484797205e-05 -2.49730049856936e-05 9.78337657848024e-05 -0.00015766151117044 -0.000486367000353749 -8.66932597330521e-05 -8.51623282518911e-05 -0.00012855901872251 -6.00604201488617e-05 -0.000169762743076828 -3.69814818009067e-05 -0.00153400685547376
"17" -0.000168664927083313 -0.00044666577690356 -0.000250114634052264 -0.000277088374471198 -6.3547550784392e-05 -2.48080170546253e-05 9.6065915784985e-05 -0.000153364276767503 -0.000509483728270048 -8.95629380657676e-05 -8.57952058544172e-05 -0.000127909177670957 -5.59159225666057e-05 -0.000183653803427706 -4.17966829874255e-05 -0.00156468326455365
"18" -0.000173123262695048 -0.000436107706616731 -0.000245524422028127 -0.000271890731468796 -6.04898090453268e-05 -2.42316660473798e-05 9.3150757453728e-05 -0.000146440184593479 -0.000530863705695109 -9.17746043884539e-05 -8.54306516216678e-05 -0.000125534374276128 -5.0033925113859e-05 -0.000197859131500699 -4.67679427313731e-05 -0.00158356882483608
"19" -0.000176568051892534 -0.000420152740241396 -0.000238274244620197 -0.000263519239390487 -5.63241097743335e-05 -2.32398216730969e-05 8.90781926800464e-05 -0.00013684668435827 -0.000550505751431806 -9.33245091598528e-05 -8.40602182494459e-05 -0.000121451817953456 -4.23498775366412e-05 -0.000212394466319592 -5.19029992218077e-05 -0.0015906590601337
"20" -0.000178910940904613 -0.000398751272921937 -0.000228365475304142 -0.000252006867962344 -5.10595519176275e-05 -2.18232854292399e-05 8.38572358834076e-05 -0.000124549143422594 -0.000568408717595812 -9.42280826280021e-05 -8.16761440777301e-05 -0.000115698275345404 -3.27927829077166e-05 -0.000227276171227103 -5.72086483037234e-05 -0.00158607052374799
"21" -0.00018005056984387 -0.000371890551318865 -0.000215815621106131 -0.000237412690351906 -4.47123880793364e-05 -1.99801563082597e-05 7.7498508737833e-05 -0.000109535606875866 -0.000584593475302344 -9.44990039226544e-05 -7.82800608740126e-05 -0.000108330692514976 -2.12991230019554e-05 -0.000242509000299843 -6.26851587699093e-05 -0.00157003788453739
"22" -0.000179883452106666 -0.000339611753478893 -0.000200661852039512 -0.000219821036440194 -3.73053213348164e-05 -1.77026218503271e-05 7.00272868956337e-05 -9.18111101016937e-05 -0.000599088238954921 -9.41677070769764e-05 -7.38775424769329e-05 -9.94141098242696e-05 -7.8061702370856e-06 -0.000258085086801424 -6.83331497694901e-05 -0.00154290882416473
"23" -0.000178287852729882 -0.000301995631307854 -0.00018296301915038 -0.000199339957384883 -2.88667701088166e-05 -1.49883896472961e-05 6.14882339762443e-05 -7.13895512370937e-05 -0.000611933340105906 -9.32669602725348e-05 -6.84784155621531e-05 -8.90347641581496e-05 7.74936309874889e-06 -0.000273995227112527 -7.41508679692049e-05 -0.00150514766603981
"24" -0.000175159589574987 -0.000259178435374951 -0.000162787248585683 -0.000176106070809256 -1.94357441674114e-05 -1.18321896490357e-05 5.19198653649383e-05 -4.83050743268593e-05 -0.000623176090948508 -9.18471012364015e-05 -6.20982092718847e-05 -7.72915274902554e-05 2.54180407604437e-05 -0.000290217529659669 -8.01304718803134e-05 -0.00145731307588858
"25" -0.00017038426457102 -0.000211331931845769 -0.000140228729859122 -0.000150273177715148 -9.0597042902321e-06 -8.23241497843172e-06 4.13817645039258e-05 -2.2612332870676e-05 -0.000632872780366019 -8.99535391486498e-05 -5.47630089875956e-05 -6.42954563015315e-05 4.5251660633505e-05 -0.000306723704240902 -8.62637255301003e-05 -0.00140005652990419
"26" -0.000163869000404802 -0.00015869555288078 -0.000115397005239662 -0.000122023209232518 2.21435371664021e-06 -4.18662372505233e-06 2.99467995670148e-05 5.6187787928532e-06 -0.000641087115606671 -8.76496713806851e-05 -4.65012904118427e-05 -5.01705530715309e-05 6.72853594847495e-05 -0.000323470681813018 -9.25406438712771e-05 -0.00133411049456863
"27" -0.000155526270839026 -0.000101536337086766 -8.84197386805858e-05 -9.15532729618391e-05 1.43275630743904e-05 3.05885282390948e-07 1.7686932400793e-05 3.63078698626015e-05 -0.000647890719113288 -8.50003465855655e-05 -3.73497902555114e-05 -3.50486543625565e-05 9.15445265632011e-05 -0.000340414021951579 -9.89441264299613e-05 -0.00126028041709206
"28" -0.000145283814173334 -4.01842849208306e-05 -5.94410184675491e-05 -5.90871431910984e-05 2.72187629536735e-05 5.24368979475616e-06 4.69284032316424e-06 6.93455478022544e-05 -0.00065335076813623 -8.20757297575554e-05 -2.73555941760458e-05 -1.90688258302748e-05 0.000118042743930021 -0.0003574870295084 -0.000105456269873418 -0.00117942172125863
"29" -0.000133100104208614 2.49883201708429e-05 -2.86213006144663e-05 -2.48598047844961e-05 4.08218169549742e-05 1.06214542154263e-05 -8.9405421727467e-06 0.000104613984961238 -0.000657543978980571 -7.89556705006944e-05 -1.65702505944861e-05 -2.37789898490359e-06 0.000146771690179095 -0.000374623876018821 -0.000112052801600399 -0.00109244049153317
"30" -0.000118965296964206 9.35612495368138e-05 3.86258860418193e-06 1.08746131592822e-05 5.50624883611706e-05 1.64358281909786e-05 -2.3110896177434e-05 0.000141971289047057 -0.000660546807989365 -7.57191509568851e-05 -5.0553287941255e-06 1.4875127819753e-05 0.000177705044870697 -0.000391742214920348 -0.000118711603377451 -0.00100026763514261
"31" -0.000102891926325741 0.00016507171127115 3.78140245815751e-05 4.78470670823738e-05 6.9868239984919e-05 2.26755511687945e-05 -3.77046833995547e-05 0.000181261490855035 -0.000662429856006539 -7.24513808919969e-05 7.12025101043035e-06 3.25359361558133e-05 0.0002108020921003 -0.000408748153512501 -0.000125401870321259 -0.000903854489639367
"32" -8.49420715109564e-05 0.000239005931600512 7.30273785162121e-05 8.57782860079452e-05 8.51527849662246e-05 2.93311371107991e-05 -5.26045098663389e-05 0.000222316638041833 -0.000663265607929656 -6.92383197774887e-05 1.98761996387896e-05 5.04576677516209e-05 0.000245990362192429 -0.000425538252618101 -0.000132091371894756 -0.000804158020829386
"33" -6.52094517037023e-05 0.000314815741757169 0.000109283809412489 0.000124376784079633 0.000100839537583501 3.6388545870783e-05 -6.76844504410585e-05 0.000264940100550884 -0.000663120920880344 -6.61678641972064e-05 3.31276666475241e-05 6.8488703204976e-05 0.000283179936444543 -0.000442000093590332 -0.000138743391822094 -0.000702128471108132
"34" -4.38300112621502e-05 0.000391922290075941 0.000146350665426948 0.00016334429441985 0.000116844424602931 4.38275971797502e-05 -8.28103608228262e-05 0.000308933993046274 -0.000662058732929978 -6.33315401740459e-05 4.6784487114205e-05 8.64834121913769e-05 0.000322250735843466 -0.000458008859195942 -0.000145316977749553 -0.000598695687540363
"35" -2.0991000758366e-05 0.000469698110349951 0.000183984989068364 0.000202381180362849 0.000133077207449557 5.16313365052248e-05 -9.78544368532903e-05 0.000354070967642009 -0.000660137335333373 -6.08128171706966e-05 6.07453811790356e-05 0.000104302895743077 0.000363057028235877 -0.000473429082308441 -0.000151770484604493 -0.000494768143308507
"36" 3.08930282588001e-06 0.000547504548781067 0.000221936741589013 0.000241185106291397 0.000149454858773898 5.97735193819222e-05 -0.00011267226256253 0.000400122224883432 -0.000657409786483173 -5.87033651885414e-05 7.49058413369954e-05 0.000121814627564965 0.00040542562725977 -0.000488124778575127 -0.000158058179972624 -0.000391211510335593
"37" 2.81489029748614e-05 0.000624677507615882 0.000259951308081154 0.000279451464177593 0.000165889436566466 6.82292278693933e-05 -0.000127129553785198 0.000446842130577865 -0.000653921850535993 -5.7086194789078e-05 8.9150385160616e-05 0.000138892629905987 0.000449159546789925 -0.000501946549645156 -0.000164132841518252 -0.000288852675819072
"38" 5.38854730310284e-05 0.000700537398756344 0.000297765814677746 0.000316885633563791 0.000182289971293143 7.69675565657169e-05 -0.000141083590911179 0.00049397455056113 -0.00064971469816357 -5.60401348143772e-05 0.000103371992690765 0.000155420782429735 0.000494028399097916 -0.000514743522231122 -0.00016994572659385 -0.000188462325796292
"39" 7.99669994133788e-05 0.000774411207324502 0.000335120634855252 0.000353196142317277 0.000198571196437438 8.59554242559443e-05 -0.000154399476470268 0.000541253883859322 -0.000644827494650774 -5.56482336039758e-05 0.000117446336315352 0.00017129204861784 0.000539777642578795 -0.000526373732991885 -0.000175447246281356 -9.07574785894811e-05
"40" 0.000106042886228439 0.000845627535459359 0.000371756330526605 0.000388110226606481 0.00021464951662265 9.51576840208023e-05 -0.000166931777985591 0.000588409043686987 -0.000639291080179534 -5.59769292488362e-05 0.000131254360224114 0.000186406760247255 0.00058612879705263 -0.000536684072733033 -0.000180594920683016 3.60436870802469e-06
"41" 0.000131730910499088 0.000913536338112462 0.000407421528709011 0.000421362578252448 0.00023043985078263 0.000104530773304113 -0.000178556721551122 0.000635159345040801 -0.000633138718142829 -5.70960302441368e-05 0.000144677578230502 0.000200673624835839 0.000632776686784646 -0.000545539447613751 -0.000185344880148217 9.40342237459453e-05
"42" 0.000156657094933754 0.000977520859294293 0.000441863227469079 0.000452711140136447 0.000245855401059884 0.000114035086092237 -0.000189146042300734 0.000681230618673441 -0.000626401581150397 -5.90657069863748e-05 0.000157591995456014 0.000214010923453199 0.000679393449653073 -0.000552814045640147 -0.000189659736342017 0.000180006438162609
"43" 0.000180439881778762 0.0010370154037675 0.00047485327924813 0.000481933809799004 0.000260819864872079 0.000123622651634905 -0.000198584792880547 0.000726336073020236 -0.000619116637416055 -6.19321691160982e-05 0.000169877931962432 0.000226339894303817 0.000725631265883737 -0.000558402301993792 -0.000193514633576204 0.00026106495134437
"44" 0.000202713546292036 0.00109150443129194 0.000506162055004961 0.000508834759044861 0.000275253016487122 0.000133242357760612 -0.000206770615309061 0.000770200852781979 -0.000611318502231444 -6.57407664869259e-05 0.000181420050225857 0.000237585312187887 0.000771120382343205 -0.000562221461496012 -0.000196890068619952 0.0003368184931931
"45" 0.000223142021265307 0.00114055903728179 0.000535593646928225 0.000533246035303429 0.000289081152363389 0.000142838394518194 -0.000213607569760726 0.000812547448530464 -0.000603055887917288 -7.05264521589781e-05 0.000192099314191746 0.000247675587454396 0.000815480106355243 -0.000564219851163075 -0.000199786629394036 0.000406941618920341
"46" 0.000241427112407426 0.00118383072545597 0.000562957033156308 0.000555027708084136 0.00030222494258927 0.000152353537708067 -0.000219022940461436 0.000853109972615618 -0.000594380086551353 -7.63120534485129e-05 0.000201810285275662 0.000256537684559987 0.000858311822592468 -0.000564377465699334 -0.000202214434693924 0.000471177095762652
"47" 0.000257315366465312 0.00122106987787952 0.000588095302879695 0.00057407708843709 0.000314619620782959 0.000161724690873347 -0.000222956758346307 0.000891627614745361 -0.000585364659915149 -8.31097372503416e-05 0.000210447142460876 0.000264098716871905 0.000899214108571224 -0.000562718155226586 -0.000204205208200764 0.000529326419102231
"48" 0.000270614118166536 0.0012521347620666 0.000610870067473917 0.000590322262290177 0.000326197137579146 0.000170886322968366 -0.000225365069261927 0.000927853085360411 -0.000576082009699326 -9.09248788654668e-05 0.000217907601332513 0.000270280179351474 0.000937777742462827 -0.000559308483882205 -0.0002058079747329 0.000581252054354278
"49" 0.00028120112638304 0.00127699759255948 0.000631172768770854 0.000603730132636134 0.000336892600181132 0.000179768815592544 -0.000226226661216174 0.000961551322707266 -0.000566629432262135 -9.97454713187245e-05 0.00022410544320581 0.000274998194929835 0.000973593444432611 -0.000554257205365197 -0.000207095336032428 0.000626871948842329
"50" 0.000289014908106851 0.00129574106034647 0.000648922327761599 0.000614299263495097 0.000346652796817236 0.000188300491421647 -0.000225544351616535 0.00099250454736357 -0.00055711223857805 -0.000109558069566593 0.000228950995310577 0.000278170737958708 0.00100625749178947 -0.000547718784647815 -0.000208154535590145 0.000666158235426124
"51" 0.000294079223654579 0.00130856579787658 0.00066407398100485 0.000622068106875166 0.000355421979882734 0.000196409474998702 -0.000223334404948756 0.00102051572244228 -0.00054764649009717 -0.000120333998531713 0.000232376726288361 0.00027970666060721 0.00103537997730293 -0.000539895539920968 -0.000209094553896896 0.000699134905392037
"52" 0.000296479680376024 0.00131576638145583 0.000676599553764419 0.000627104310868791 0.000363153997293233 0.00020402285443834 -0.000219638220134716 0.00104540426465904 -0.000538364382780839 -0.00013203669938408 0.000234314864277141 0.000279517362291842 0.0010605896686821 -0.000531014179219733 -0.000210040540727872 0.000725868525746363
"53" 0.000296364412824536 0.00131773080005184 0.00068650694197737 0.000629510375454547 0.000369812400560279 0.000211071012088211 -0.000214505838517937 0.00106701779361716 -0.000529398011350577 -0.000144621728565413 0.000234720683024564 0.000277518441332928 0.00108153995467972 -0.000521338258186648 -0.000211122563756014 0.000746473195938114
"54" 0.000293943131823785 0.00131491546152636 0.000693831883097394 0.000629417149222836 0.000375365480780755 0.000217486132435159 -0.000208013657181956 0.00108522596647217 -0.000520882367735854 -0.000158040282981811 0.000233553346922728 0.000273632011388893 0.00109791593860658 -0.00051115182469989 -0.000212486126835341 0.000761109035556648
"55" 0.000289456363598032 0.00130781338752607 0.000698628656334632 0.000626976183846189 0.00037979566987952 0.000223209724362043 -0.000200244935464079 0.00109992596513734 -0.000512948036090352 -0.000172235233865303 0.000230795621608114 0.000267798401478317 0.00110944190988757 -0.000500733939193241 -0.00021426662190238 0.000769975840573516
"56" 0.000283173099670617 0.00129694896211636 0.000700981791000025 0.000622362596725663 0.000383090765956671 0.000228191177939072 -0.000191294225674723 0.00111104654069118 -0.000505711263144407 -0.000187148296376705 0.000226446772689192 0.000259979212717004 0.00111589722255126 -0.000490356123041035 -0.000216593953197763 0.000773311461426182
"57" 0.000275367301578985 0.0012828307296225 0.000700986183143957 0.000615769403191775 0.000385263090107822 0.000232389078261511 -0.000181262714177252 0.00111853964736443 -0.000499272875961543 -0.000202719523559893 0.000220522212662279 0.00025015964713708 0.00111710437244693 -0.000480270157297943 -0.000219584954527497 0.000771394347909433
"58" 0.000266308525852423 0.00126593555116369 0.000698757524670328 0.000607395976932453 0.000386328939307447 0.000235778938309475 -0.00017025716806671 0.00112240004158226 -0.00049370296415203 -0.000218887668781432 0.00021306143263334 0.000238364579563176 0.00111295869838649 -0.000470678013871016 -0.000223329060354167 0.000764544916014711
"59" 0.000256223250098514 0.00124667766363409 0.000694421864995337 0.000597448893220607 0.000386318759915139 0.000238347583653976 -0.000158378317311743 0.00112264442750705 -0.000489048875327833 -0.000235594406544695 0.000204122624638983 0.000224658709223513 0.00110340378149195 -0.000461741661944962 -0.000227889083914284 0.000753115669731704
"60" 0.000245320330935817 0.00122540340331441 0.000688113009994324 0.000586139520647762 0.000385289325690665 0.00024009906718793 -0.000145725572483162 0.00111932498489121 -0.000485317795703355 -0.000252779697050795 0.000193786774878603 0.000209149355013505 0.00108847091094292 -0.000453553134187624 -0.000233293314002711 0.000737494120308442
"61" 0.000233744326297377 0.00120235965153232 0.000679971515013606 0.000573674912456137 0.000383296458883255 0.00024105925425242 -0.00013239626396639 0.00111252191611852 -0.000482475977900849 -0.000270392218500505 0.000182161612844759 0.000191989165542499 0.00106824171884125 -0.000446143122047219 -0.00023953428781016 0.000718101735033217
"62" 0.000221583264753152 0.00117770156479692 0.000670139662827931 0.00056025676750909 0.000380421076974827 0.000241262648351686 -0.000118480114083253 0.00110235023329835 -0.000480457377982165 -0.000288374267907777 0.000169366774110764 0.000173374521453734 0.00104287833678454 -0.000439465125028325 -0.000246564106094229 0.000695387864570558
"63" 0.000208875621736882 0.00115148662622295 0.000658766447431833 0.00054607814227392 0.000376754785517089 0.000240765217751788 -0.00010405768190076 0.00108894946537732 -0.000479156063653922 -0.000306679181343609 0.000155549259242715 0.00015354753549174 0.00101260306053965 -0.000433413277461697 -0.000254297593197802 0.000669827224057779
"64" 0.000195601206400945 0.00112368381473705 0.000645994276539202 0.000531325791466642 0.000372399263426983 0.000239636244819425 -8.91988422111925e-05 0.00107249300938423 -0.000478428116292675 -0.000325258905588367 0.000140866822768618 0.00013278742827485 0.000977707341861592 -0.000427807936535088 -0.000262611929269347 0.000641916064882724
"65" 0.000181697213627234 0.00109418489437185 0.000631971677063533 0.000516170610475797 0.000367459983279556 0.000237957961659094 -7.39742624745977e-05 0.00105317449382941 -0.000478100012750415 -0.000344068782810309 0.00012549802510481 0.000111400626696017 0.000938528501920737 -0.000422426922089009 -0.000271358102450542 0.000612159010836672
"66" 0.000167047273133901 0.00106281111635367 0.000616836326858236 0.000500773858698888 0.000362062254428972 0.000235822350761437 -5.84476357886222e-05 0.00103120629895176 -0.000477973920547145 -0.000363058692398556 0.000109626544730852 8.972649109416e-05 0.000895464288068152 -0.00041699143960415 -0.000280358006019251 0.000581078280899542
"67" 0.000151515394181241 0.00102934422899855 0.000600729045502871 0.000485280960955199 0.00035632666422686 0.00023333204589152 -4.26679553333429e-05 0.00100682453717073 -0.000477827760625484 -0.000382183620423943 9.3453657633173e-05 6.81176154409868e-05 0.000848951254353536 -0.000411197134692284 -0.000289413751382084 0.000549193281884781
"68" 0.000134925381460781 0.00099352442362828 0.000583787180689038 0.000469827309298326 0.000350376475219751 0.000230592238475448 -2.66897183903144e-05 0.00098028623407933 -0.000477428080678134 -0.000401397412471639 7.71792503515157e-05 4.69352858851857e-05 0.000799462617568124 -0.000404707611034426 -0.000298307044044326 0.000517027242655841
"69" 0.000117102179594819 0.000955083381324945 0.000566142608517237 0.000454532794828665 0.000344341239317897 0.000227713194219666 -1.05577536019984e-05 0.000951854017651455 -0.000476524520952024 -0.000420644560319751 6.10117645183532e-05 2.65484152301309e-05 0.000747503878762099 -0.000397179427861154 -0.000306815023393288 0.000485090551024497
"70" 9.78455399902261e-05 0.000913741391614643 0.000547923709313018 0.000439499383342106 0.000338341389704689 0.00022480801161857 5.68011326599336e-06 0.000921806909370073 -0.000474869588697313 -0.00043987315718783 4.51562963361791e-05 7.32067413613229e-06 0.000693601529855273 -0.000388262632322242 -0.000314705243067209 0.000453884264285597
"71" 7.69588745023845e-05 0.000869222803731243 0.000529246547392189 0.000424820965664345 0.000332496815932416 0.000221988869809842 2.19856170016771e-05 0.000890432970468419 -0.000472207645569007 -0.000459024197849324 2.98196569065797e-05 -1.03935731220345e-05 0.000638300856746 -0.00037760986893524 -0.000321745275600548 0.000423892719329424
"72" 5.42284153057832e-05 0.000821265434324937 0.000510225131419281 0.000410566993063438 0.000326924795108166 0.000219363197027554 3.83227457121827e-05 0.000858022311614019 -0.000468287165851457 -0.000478035240960847 1.52049965763912e-05 -2.62454012935096e-05 0.000582148666319435 -0.000364877369836236 -0.000327699266934964 0.000395582729491448
"73" 2.94508124618714e-05 0.000769612026592691 0.000490966042982518 0.000396797904632588 0.000321732877561759 0.000217038970579569 5.46525376106626e-05 0.00082486712840397 -0.000462856463764406 -0.000496839588775964 1.50844990607322e-06 -3.99065771570992e-05 0.000525708530612774 -0.000349736377712548 -0.000332337960295132 0.000369390663280751
"74" 2.4013129057247e-06 0.000714019174211485 0.000471562122677919 0.000383552681717549 0.000317018892184776 0.00021511898663709 7.09454520374154e-05 0.000791265882065403 -0.000455673436666001 -0.000515366362703346 -1.1081959281629e-05 -5.10604364274921e-05 0.000469541215966517 -0.000331869248424626 -0.000335433819687128 0.000345730827647197
"75" -2.71453023921812e-05 0.000654252831411808 0.000452095850619347 0.000370852585527664 0.000312881556688101 0.000213702242657918 8.71825482633163e-05 0.000757513633009699 -0.000446497502763604 -0.000533542916057226 -2.23849452595135e-05 -5.94086575441576e-05 0.000414205516397247 -0.000310966761313025 -0.000336761987544892 0.000324981079361515
"76" -5.94295470412765e-05 0.000590077653351021 0.000432636645936479 0.000358704781390451 0.000309403877856128 0.000212882086252504 0.000103341208725088 0.000723896113025707 -0.000435093635305517 -0.000551291364495922 -3.22242502564869e-05 -6.46713479417667e-05 0.000360248224176512 -0.000286736075169503 -0.00033610321082692 0.000307491762274313
"77" -9.47092673160031e-05 0.00052125765933202 0.000413241537045587 0.000347091684383258 0.000306658428816672 0.000212746482456732 0.000119417762323291 0.000690700364310146 -0.000421238946807086 -0.000568537523724071 -4.0444446964236e-05 -6.65857638687989e-05 0.000308210193807105 -0.000258888459886176 -0.000333241452081916 0.000293572366284527
"78" -0.00013326419739464 0.000447547444323312 0.000393944385195712 0.000335980421839779 0.000304716989083664 0.000213378513114982 0.00013540302186603 0.00065820316993284 -0.000404713634697382 -0.00058519897160266 -4.68920937307126e-05 -6.49061697879729e-05 0.000258622364739347 -0.000227151596673445 -0.000327966892874682 0.000283491806478401
"79" -0.000175393853830323 0.000368692819982046 0.000374776811779876 0.000325318923676281 0.000303632589602392 0.000214857058687679 0.000151312557557426 0.000626664383452365 -0.000385304284126349 -0.000601197508481527 -5.1432144476705e-05 -5.94050025719991e-05 0.000211996843965935 -0.00019125515509504 -0.000320069983903735 0.000277485350098934
"80" -0.000221422111101827 0.000284419979073356 0.000355744860257595 0.000315035781658417 0.000303458629634 0.000217252025477869 0.000167162232682863 0.000596340420960992 -0.000362806969218468 -0.000616459377895375 -5.3941325611217e-05 -4.98759972682185e-05 0.000168827849066728 -0.00015093971114465 -0.000309355310618943 0.000275728993230188
"81" -0.000271703258197138 0.000194435807425692 0.000336841185151792 0.000305042836473703 0.000304229250090912 0.000220628309750207 0.000182981368968026 0.000567470569247286 -0.000337034283224809 -0.00063090667141005 -5.43110390602208e-05 -3.61322258777251e-05 0.000129584046008482 -0.00010596454570543 -0.000295626535144849 0.000278361652798796
"82" -0.000326591972334062 9.84521481056403e-05 0.000318043028317947 0.000295237539145453 0.000305976443241617 0.000225045970592462 0.000198803309016146 0.000540280008922414 -0.000307802401654567 -0.000644469337374824 -5.24496423256199e-05 -1.80129274076536e-05 9.47128365661742e-05 -5.60908756993859e-05 -0.000278697160971994 0.000285467956972072
"83" -0.000386464181103041 -3.82475206290497e-06 0.00029931928783953 0.000285501743778644 0.000308714986088508 0.000230554962865186 0.000214676218589826 0.000514971412444823 -0.0002749604472872 -0.00065707939805992 -4.82855615022856e-05 4.61419359610282e-06 6.46275474071356e-05 -1.11767632688818e-06 -0.000258408423941157 0.000297072537923087
"84" -0.000451675782800178 -0.00011266359646457 0.00028062661113807 0.000275711147198277 0.000312457249357002 0.000237192283750392 0.000230646368014137 0.000491729022949873 -0.000238371614938382 -0.000668665687296619 -4.17660564070126e-05 3.18433565505102e-05 3.97034540449438e-05 5.91214808632932e-05 -0.000234612066794012 0.000313144616494573
"85" -0.000522547702877247 -0.000228272066493565 0.000261909969684068 0.000265734070012841 0.000317195813427819 0.000244984928792602 0.000246761161145047 0.000470718482045361 -0.00019793898000253 -0.000679166479158209 -3.2864372849122e-05 6.3719356978806e-05 2.02729745219835e-05 0.000124738481195347 -0.000207196709183463 0.00033358825246629
"86" -0.000599340752384159 -0.000350758913722463 0.000243120366921864 0.000255439966873968 0.000322905280132999 0.000253941987645733 0.000263060493600799 0.000452075343003935 -0.000153619261794651 -0.00068851840370362 -2.15782249190055e-05 0.000100223131554377 6.61801815842866e-06 0.000195762419815437 -0.000176098874638876 0.000358235679976951
"87" -0.000682198453393783 -0.000480074560451025 0.000224214539114375 0.000244707357703533 0.000329549284071512 0.000264049284869837 0.000279581398768109 0.000435912093751627 -0.000105424783333012 -0.000696655036355288 -7.94287486620121e-06 0.000141259931584149 -1.05124319598066e-06 0.000272099390882949 -0.000141317057246904 0.000386844166603908
"88" -0.000771103630245078 -0.000615926601951908 0.000205158188937428 0.0002334314427864 0.000337066574454529 0.000275266085447272 0.000296318355768156 0.000422308345630454 -5.34627604138903e-05 -0.000703503923095759 7.9698290116111e-06 0.000186621245598026 -2.60035353499884e-06 0.000353496913349104 -0.000102937003173896 0.000419073918643579
"89" -0.000865792479848035 -0.000757686472715327 0.000185945790797165 0.00022154009465035 0.000345363297290553 0.000287512074427501 0.000313248708797091 0.000411307783363262 2.0509997881836e-06 -0.000708986245729166 2.60441580622511e-05 0.000235961637453406 2.00680716505549e-06 0.000439478351980606 -6.1160134237483e-05 0.000454497288035486
"90" -0.000965683838525276 -0.000904267951715295 0.000166607807024951 0.000209000742712977 0.000354326406374925 0.00030066280898017 0.00033028783514535 0.000402918898068291 6.07522048378025e-05 -0.000713003470086481 4.61065090867638e-05 0.000288764139729463 1.26892578196148e-05 0.000529290831536036 -1.63372674282046e-05 0.000492575475749465
"91" -0.00106977730007419 -0.00105399592783222 0.000147225269672595 0.000195835798890116 0.000363785685089133 0.00031453616932144 0.000347285810838353 0.000397107592553221 0.000122099578441369 -0.000715440319278451 6.79166614588382e-05 0.000344293479206855 2.9220205731582e-05 0.000621809643301992 3.09958792025624e-05 0.000532635145990993
"92" -0.00117655481846468 -0.00120445918111033 0.000127945743423712 0.000182145146165332 0.00037353403321823 0.000328880882677077 0.000364009128042206 0.00039379467941112 0.000185336446499207 -0.000716149250379573 9.11599753213297e-05 0.00040155876976903 5.12160795427039e-05 0.000715468923469769 8.0077366634724e-05 0.000573878682125893
"93" -0.00128387632771879 -0.0013523789397938 0.000108999204892065 0.000168113581916677 0.000383306639594493 0.00034336275253761 0.00038011721247798 0.000392842865022394 0.000249450090767083 -0.000714950743875056 0.000115442176807567 0.000459263782204725 7.80966381239491e-05 0.000808191026741216 0.000129879882235873 0.000615343409139285
"94" -0.00138891954639222 -0.00149350309575971 9.07015312870456e-05 0.000154025003398101 0.000392785041791259 0.000357562255323534 0.000395159370761397 0.000394072598271835 0.000313153836919924 -0.000711622428283359 0.000140268361268257 0.000515786858103618 0.000109083117060086 0.00089731577677421 0.000179086753638105 0.000655917719317207
"95" -0.00148815835644637 -0.00162259705879055 7.3468385648194e-05 0.000140266114506024 0.000401585829985193 0.000370973772789345 0.000408559320747877 0.000397244145864602 0.0003748766303182 -0.000705898947728816 0.000165061813009394 0.000569174249500266 0.00014318911501455 0.000979612466620467 0.000226087502177256 0.000694332179451055
"96" -0.00157743029759942 -0.001733534781407 5.77926433165868e-05 0.000127320829972625 0.000409274976642973 0.000383004859596653 0.000419644745818412 0.000402072456837359 0.000432797995522526 -0.000697482002476116 0.000189158939335178 0.0006171763715105 0.000179245841962082 0.00105131912425443 0.000269003554216218 0.000729193029129138
"97" -0.00165213246872192 -0.00181957703860769 4.42321636769553e-05 0.000115738465292527 0.000415382021667776 0.000393013059080516 0.000427658593651505 0.000408235320201859 0.000484921872890666 -0.000686045922379171 0.000211841479587196 0.000657340497897549 0.000215930529461555 0.0011083238620603 0.000305773195289555 0.000759019186397167
"98" -0.00170756201879104 -0.00187386430020825 3.33519117083232e-05 0.000106096994999225 0.000419427153984135 0.00040033978348388 0.000431846665791376 0.000415393109749668 0.000529210587752028 -0.000671262170160755 0.000232383949474781 0.000687174600415252 0.000251884862598996 0.00114643979544386 0.000334299041831624 0.000782332186910051
"99" -0.00173939152967011 -0.00189010935817809 2.56633682825291e-05 9.89364278867167e-05 0.000420962146442845 0.000404371704809275 0.00043151606684958 0.000423205228741671 0.000563763547903303 -0.000652833366665526 0.000250095817470766 0.000704372248760492 0.00028580733032369 0.00116180636702012 0.000352629306089434 0.000797760047242641
"100" -0.00174424374936638 -0.00186339855230385 2.15439012771541e-05 9.46780405319433e-05 0.000419615109476208 0.000404611835293932 0.000426153542094476 0.000431362526907833 0.000587049244157574 -0.000630532203944404 0.000264408155829055 0.000707082273621807 0.000316603779635481 0.00115136578496285 0.000359211643689567 0.000804169965981664
"101" -0.00172024214569786 -0.00179100521342275 2.11618494764725e-05 9.35550737058758e-05 0.000415134878406871 0.000400746108299873 0.000415513350681967 0.000439627606259341 0.000598112924301838 -0.00060423553905094 0.000274926079642867 0.000694165896695639 0.000343528526725256 0.00111332644182485 0.000353112033915221 0.000800773265791541
"102" -0.0016674411048367 -0.00167299347025338 2.44103623607112e-05 9.55547228968877e-05 0.000407426080538578 0.000392692675194247 0.000399697343806013 0.000447829565951944 0.000596740874818802 -0.000573961012576268 0.000281489220489085 0.00066539767371296 0.000366281740088328 0.00104750952736212 0.000334190989474092 0.000787233197374997
"103" -0.00158797470686699 -0.00151243923785915 3.09053014230447e-05 0.000100394312701438 0.000396567744255305 0.000380627911450951 0.000379183076329695 0.000455897845919555 0.000583524958063401 -0.000539870373316692 0.000284188964937073 0.000621543266363958 0.00038505739667821 0.000955482752809839 0.000303165857296733 0.000763704712738429
"104" -0.00148590295583763 -0.00131522265052162 3.99859930363755e-05 0.000107541947059142 0.000382798624268228 0.000364970957902069 0.000354782052961248 0.000463847682804969 0.000559808139253739 -0.000502264034729075 0.000283344313644424 0.000564290325358812 0.000400501712023538 0.000840447842994586 0.000261563535851115 0.000730788910600908
"105" -0.00136680469375804 -0.00108942813704814 5.07941698807342e-05 0.000116279571741361 0.000366485489849472 0.000346323607812835 0.000327585063577022 0.000471755305277664 0.000527517844937255 -0.000461559175599799 0.00027946736622811 0.000496048070266775 0.00041361110159081 0.00070687856422228 0.000211527445038021 0.000689460369474014
"106" -0.00123713890460864 -0.000844463446136597 6.23554444351727e-05 0.000125778737104758 0.000348078821923424 0.000325406834925107 0.000298826796394846 0.000479733585215329 0.000488942930642717 -0.000418241925751212 0.000273172038025866 0.000419681455985387 0.000425577505358332 0.000560030636137416 0.000155588940759828 0.000640931345343652
"107" -0.00110362912329024 -0.00059015951714523 7.366605543304e-05 0.000135187677905021 0.000328069926766748 0.000302986291158837 0.000269793865870405 0.000487916217003539 0.000446478944419759 -0.000372833596502779 0.000265121453975224 0.000338201458107014 0.000437649825999697 0.000405415425575291 9.63917316624458e-05 0.000586523313746806
"108" -0.000972677592453689 -0.000335941232891308 8.37900605209939e-05 0.000143715868364319 0.000306936186656153 0.000279797309414146 0.000241701031398312 0.000496406593419719 0.00040242501357905 -0.000325851470345869 0.000255935909483117 0.000254504445450625 0.000450968662674359 0.000248317115932747 3.646347359551e-05 0.000527529884830805
"109" -0.000849941661426576 -9.02408586768772e-05 9.19010637773496e-05 0.000150676149738699 0.00028512720971826 0.00025650147837449 0.000215628121562043 0.000505286350043572 0.000358813039958563 -0.000277785002443045 0.000246166105366562 0.000171182897039711 0.000466487073573127 9.34677899340517e-05 -2.19550941282975e-05 0.000465145014113395
"110" -0.000740087121371862 0.000139877577465634 9.73420146528096e-05 0.000155533279705928 0.000263024445461614 0.00023365706955622 0.000192467534095435 0.000514579962212888 0.000317312654187702 -0.000229072114478563 0.00023624664178967 9.04033695125367e-05 0.000484892026592462 -5.51880553734671e-05 -7.70131540167256e-05 0.000400397486574857
"111" -0.000646675145367819 0.000348871525534549 9.96134581593172e-05 0.000157904595177361 0.000240952472944311 0.000211699306231013 0.000172904204932796 0.000524268093185502 0.000279189536697212 -0.000180106274622346 0.000226487238244755 1.38492532576256e-05 0.000506589289246346 -0.000194563109426455 -0.000127302679471483 0.00033411702288403
"112" -0.00057218005327982 0.000532694244164289 9.84054819789433e-05 0.000157562950048696 0.000219169824131099 0.000190952899008561 0.000157411952326721 0.00053427991423976 0.000245316426934491 -0.000131226132228934 0.00021708055268005 -5.72654804008821e-05 0.000531709185194545 -0.000322434052207285 -0.000171842963733758 0.000266948843747658
"113" -0.000518071489071977 0.000688690332330644 9.35541938158974e-05 0.000154424738103947 0.000197881970393356 0.000171630697788646 0.000146281748408548 0.000544500230983396 0.000216197741039071 -8.27286556620291e-05 0.00020810042441844 -0.000122162866930016 0.000560129238792391 -0.000437359894103483 -0.000210059166443072 0.000199353457440051
"114" -0.000484935268969185 0.000815414471292923 8.50510177314195e-05 0.000148526032297054 0.000177239441361058 0.00015385545469462 0.000139622651078565 0.000554777871432281 0.000192024559251987 -3.48741420330607e-05 0.000199528342531011 -0.000180442334362949 0.000591499112269574 -0.000538589626838576 -0.000241711017883864 0.000131638534996319
"115" -0.00047263320544788 0.000912419061780774 7.29970026149171e-05 0.000140002766050628 0.000157359802694724 0.000137680733067806 0.000137404376926729 0.000564937181579848 0.000172726161861236 1.21005718291241e-05 0.000191262444543156 -0.000232020827986965 0.000625299485188523 -0.000625933355600202 -0.000266853048888065 6.39762069111218e-05
"116" -0.000480438664112645 0.0009800717920982 5.75978634543352e-05 0.000129072143148933 0.000138333926862231 0.000123096355878374 0.000139472324870209 0.00057477148636166 0.000158019973496765 5.79877460853232e-05 0.0001831435053286 -0.000277061010867681 0.000660871767121285 -0.000699659581541483 -0.000285763132260232 -3.55354073994074e-06
"117" -0.000507174520896828 0.00101936010151257 3.91452004454508e-05 0.000116009841937087 0.000120226256331288 0.000110051857896292 0.000145580044630287 0.000584070673652738 0.000147479250022486 0.000102581749573874 0.000174966097369335 -0.000315909722593631 0.00069745704102776 -0.00076037594779902 -0.000298891482760884 -7.09498895168532e-05
"118" -0.000551340403818067 0.00103171662589062 1.79716931854427e-05 0.000101130016873296 0.000103093478786135 9.84646373876988e-05 0.000155412169890439 0.000592613122027251 0.000140563539905834 0.000145691643310946 0.000166498897371558 -0.000349050294629266 0.000734238264804409 -0.000808937112290309 -0.00030680908918143 -0.000138262284509889
"119" -0.000611202225640997 0.00101891381666579 -5.53169325680433e-06 8.47757507325409e-05 8.69790874019188e-05 8.82373500741689e-05 0.000168591831766678 0.000600179756278387 0.000136662248033794 0.000187133390140301 0.000157496944275212 -0.000377047965351473 0.000770368976041548 -0.000846353000362312 -0.000310163980864535 -0.000205568009518396
"120" -0.000684886543846857 0.000982919679018875 -3.09601250619329e-05 6.72980685927953e-05 7.19227521517403e-05 7.9257623059477e-05 0.000184710689153092 0.000606550682465987 0.000135130789235456 0.000226720727063507 0.000147717168307673 -0.000400519578603209 0.000804994940065768 -0.0008737383688627 -0.000309648194651138 -0.000272958880157015
"121" -0.000770456912062175 0.000925817428955782 -5.78849165730879e-05 4.90543299366717e-05 5.7959214554086e-05 7.14119741492783e-05 0.000203342239728333 0.000611530134684618 0.000135314639920936 0.000264276523339347 0.000136921146552189 -0.000420097985421017 0.000837288190096551 -0.000892247170437278 -0.000305966120402497 -0.000340528787268138
"122" -0.000865954925935527 0.000849746328086735 -8.58842395239092e-05 3.03904806024171e-05 4.5126217160624e-05 6.45851580398179e-05 0.000224038132980873 0.000614922107298655 0.000136571387378719 0.000299619507494313 0.000124891441771906 -0.000436409319555142 0.000866463069752611 -0.000903029006364645 -0.000299813581932115 -0.000408349093659013
"123" -0.000969459470415843 0.000756836934588945 -0.000114538888116471 1.16409125076701e-05 3.34527982448779e-05 5.86711167816321e-05 0.000246361623584246 0.000616554783606855 0.000138278909064318 0.00033258337656367 0.000111431098078645 -0.000450048578115387 0.000891787946374162 -0.000907202097988981 -0.000291860721070763 -0.000476474904394745
"124" -0.00107909980275458 0.000649178708674263 -0.000143443606780682 -6.88040567521616e-06 2.29657692005476e-05 5.35656550362634e-05 0.000269876228681631 0.00061627829287035 0.00013986498913051 0.000363001338752451 9.63797509974476e-05 -0.000461577433890309 0.000912601293420547 -0.000905829431398676 -0.000282734200589838 -0.000544930217630342
"125" -0.00119310137246931 0.000528789827929251 -0.000172212977467643 -2.48815897258355e-05 1.36916653224636e-05 4.91749925811471e-05 0.000294155195108224 0.000613958725389533 0.000140797371420153 0.000390720022631854 7.96040961493687e-05 -0.00047150623662123 0.000928327614737505 -0.000899894060790786 -0.000273006727762235 -0.000613709613804391
"126" -0.00130978062122251 0.000397604867735426 -0.000200494229043458 -4.20971241313511e-05 5.65047127795365e-06 4.54110601289326e-05 0.000318796334282311 0.000609489721738528 0.000140600545936548 0.000415594449737399 6.10065142434193e-05 -0.000480290030473056 0.000938464192118639 -0.000890297709161809 -0.000263202477743588 -0.000682760576495666
"127" -0.0014275807826336 0.000257458637082891 -0.000227950461239159 -5.8292068805801e-05 -1.13964675636338e-06 4.22006300165455e-05 0.000343420454833505 0.000602794401975561 0.000138861975283119 0.00043749885025357 4.05297452243176e-05 -0.000488321758716888 0.000942614877209452 -0.000877856118224206 -0.000253775670257401 -0.000752001149934692
"128" -0.00154505243983379 0.000110090594022777 -0.000254287090118809 -7.32592577901827e-05 -6.67306405306635e-06 3.94717024629699e-05 0.000367662746344004 0.000593817504319364 0.000135220264414929 0.000456317188335312 1.81523570469252e-05 -0.000495938307420352 0.000940464568543856 -0.000863285430055756 -0.000245125605448933 -0.000821303838031086
"129" -0.00166087409059457 -4.28687182564089e-05 -0.000279238466736999 -8.68183290134758e-05 -1.09466707063347e-05 3.71675634416282e-05 0.000391194337843193 0.000582527200414431 0.000129383608163722 0.000471956900390341 -6.11238587285932e-06 -0.00050341583635489 0.000931800126773847 -0.000847213694402254 -0.000237582365766966 -0.000890508119701847
"130" -0.00177384718305575 -0.00019989247397321 -0.000302573440289965 -9.88241240477206e-05 -1.39674948737041e-05 3.52334855603135e-05 0.000413714285061137 0.00056892548840989 0.000121120550381478 0.00048434336562422 -3.22117250564897e-05 -0.000510966017481849 0.000916499626632727 -0.000830173188910909 -0.000231415131775125 -0.000959409869923766
"131" -0.00188289363460089 -0.000359538809628838 -0.000324097662090953 -0.000109155138190473 -1.57507207988722e-05 3.3625226863769e-05 0.000434946745320349 0.000553040866441212 0.000110254975090873 0.000493426194247868 -6.00633629456211e-05 -0.000518752211107644 0.00089453012181039 -0.000812612095530212 -0.000226835932273122 -0.00102777399120452
"132" -0.00198705495140862 -0.000520473550829483 -0.000343644122873731 -0.000117721487931126 -1.63125899671677e-05 3.23042984251435e-05 0.000454649105658916 0.000534926917444192 9.66783386295044e-05 0.000499176092670031 -8.95508389175582e-05 -0.000526878253106091 0.000865949274680122 -0.000794899786020605 -0.000223993262488858 -0.0010953282348742
"133" -0.00208547198130742 -0.000681436749093846 -0.000361089228392557 -0.000124458566017495 -1.56869090075201e-05 3.12380990133657e-05 0.000472610959724457 0.000514663529849903 8.03317785938124e-05 0.000501589576206716 -0.000120523310610762 -0.000535401517547987 0.000830902370059564 -0.000777323368655644 -0.000222986953002655 -0.00116177569952452
"134" -0.00217741186780186 -0.000841260128908172 -0.000376333751026707 -0.000129329048168068 -1.39104119849369e-05 3.04008393918947e-05 0.000488652511553341 0.000492361556368298 6.12172126225167e-05 0.000500690720129999 -0.000152811338273641 -0.000544328495138099 0.00078961631629902 -0.000760101543167503 -0.000223859706636834 -0.00122679279627833
"135" -0.00226222594741333 -0.000998842707051288 -0.000389313694919406 -0.000132318688087274 -1.10274993237506e-05 2.97718971415647e-05 0.000502623426668355 0.000468157463993037 3.93809137281644e-05 0.000496523177304609 -0.000186213917808465 -0.000553630260859064 0.000742385991342537 -0.000743389756068207 -0.000226611847822139 -0.00129003579654678
"136" -0.0023393674615447 -0.00115316058301606 -0.000400002121240548 -0.000133437517473091 -7.09168263193142e-06 2.93307821346116e-05 0.000514408450881137 0.000442211355548318 1.49308652759951e-05 0.000489161323100136 -0.000220510199612701 -0.000563235646243713 0.000689581106099531 -0.000727290261968357 -0.000231195673607214 -0.00135114510889918
"137" -0.00240838219470708 -0.00130325745730538 -0.000408387697717798 -0.000132714654508779 -2.15822980951576e-06 2.9068648031343e-05 0.000523926176198015 0.000414706117196715 -1.19881615099712e-05 0.000478707374610435 -0.000255463846220992 -0.000573041240891956 0.000631639480220776 -0.000711838351130669 -0.000237524487298197 -0.00140974437337025
"138" -0.00246888927062537 -0.00144823653361739 -0.000414495164857761 -0.000130200347905391 3.70611198047563e-06 2.8976850480505e-05 0.00053111833773101 0.000385852198719344 -4.11830207935315e-05 0.000465284914229397 -0.000290816939776619 -0.00058291129752577 0.000569050140693967 -0.000697036677362303 -0.000245477766617631 -0.00146546341107895
"139" -0.0025205902112607 -0.00158726049352811 -0.000418368495637226 -0.000125960333775464 1.04385773676832e-05 2.90488540900891e-05 0.000535968202441347 0.000355875202539842 -7.24262702913807e-05 0.000449043446249895 -0.000326302592895815 -0.000592691347219285 0.000502357789232447 -0.000682841373711022 -0.000254900624421272 -0.00151792297739985
"140" -0.00256325807743822 -0.00171955550306041 -0.000420080563202284 -0.000120077893250356 1.79609964542368e-05 2.9285264502092e-05 0.000538477211922964 0.000325025627349136 -0.000105444986670763 0.000430154018119557 -0.000361641278170634 -0.000602204056389281 0.000432150977105233 -0.000669178527579481 -0.000265611551464897 -0.00156675185664318
"141" -0.00259672455107223 -0.00184439514850557 -0.000419721745537367 -0.000112648112863324 2.62004193039021e-05 2.96884295157895e-05 0.00053868174179438 0.000293567753847414 -0.000139940450914627 0.000408814317982436 -0.000396554209877248 -0.000611253898705272 0.000359055706368222 -0.000655937920634471 -0.000277405901178533 -0.00161158948768546
"142" -0.0026208960507476 -0.00196111765507527 -0.00041739549451532 -0.000103781242118512 3.50846835274941e-05 3.02621886799462e-05 0.00053665058349907 0.000261781253733679 -0.000175590604608089 0.000385233338040792 -0.000430751266409344 -0.00061963911343976 0.000283724398128961 -0.000642996413603333 -0.000290060166023095 -0.00165210120622543
"143" -0.00263573168683808 -0.00206911276127558 -0.000413231867409479 -9.3595653624123e-05 4.45302052723827e-05 3.10119729364256e-05 0.000532459667671045 0.000229953879223786 -0.000212043124086493 0.000359645234768631 -0.000463947651073805 -0.00062715364502736 0.000206836473069452 -0.000630203657552099 -0.000303337460909802 -0.00168796789798665
"144" -0.00264124437733399 -0.00216782948471749 -0.000407366630161213 -8.22189209970185e-05 5.44591853254843e-05 3.19498301141679e-05 0.000526231446641824 0.000198379820157824 -0.000248934363203913 0.000332294383176225 -0.000495863516613766 -0.000633585365888975 0.000129079397781729 -0.000617402998596131 -0.000316986979014806 -0.00171891190229584
"145" -0.00263749130410461 -0.00225677204255167 -0.000399947736865378 -6.9786504930855e-05 6.47879799699586e-05 3.30810740685421e-05 0.000518086007744137 0.000167360842064169 -0.000285885733932789 0.000303438825153859 -0.000526229542912173 -0.000638730147318707 5.11481606517131e-05 -0.000604429840202922 -0.000330756847617052 -0.00174468854794978
"146" -0.00262460560865159 -0.002335519841238 -0.000391137047201208 -5.64405169478987e-05 7.54377620504305e-05 3.44160718101245e-05 0.000508176682717531 0.000137188629689805 -0.000322518493095132 0.000273338298482803 -0.000554782777536578 -0.000642395233108435 -2.62637037545602e-05 -0.000591119008690825 -0.000344391440582582 -0.00176509905980062
"147" -0.0026027408799897 -0.00240370053078259 -0.000381095943826675 -4.23287706253185e-05 8.63266518328911e-05 3.59651519548836e-05 0.000496662074085161 0.000108154887842434 -0.0003584498560085 0.000242266092043131 -0.000581283491679619 -0.000644402861465575 -0.000102480327391031 -0.000577309706031953 -0.000357645107529057 -0.00177999333937969
"148" -0.00257212289512571 -0.00246102047362114 -0.000369996674176322 -2.76018998985314e-05 9.73764564044311e-05 3.77352915142465e-05 0.000483712343022064 8.05383672742516e-05 -0.000393305232506953 0.000210488652670425 -0.000605508611250709 -0.000644595071676862 -0.000176842808825011 -0.000562847140806626 -0.000370274633910834 -0.00178927882289779
"149" -0.00253300991408723 -0.00250725436810684 -0.000358007288544856 -1.24109850615426e-05 0.000108500881050446 3.97298518563871e-05 0.000469509231456842 5.4601358480288e-05 -0.000426727284656368 0.000178272361702705 -0.000627259488839085 -0.000642838071866831 -0.0002487253308471 -0.000547597026647186 -0.000382054376345795 -0.0017929223482353
"150" -0.00248571968061783 -0.00254225998153257 -0.000345302431157849 3.08832887213934e-06 0.000119626343173842 4.19521538837452e-05 0.000454228477373824 3.05832187499864e-05 -0.000458373844154768 0.000145874719575071 -0.000646367410156081 -0.000639027202711568 -0.00031753885908925 -0.000531430369600061 -0.000392775734227998 -0.00179095482661686
"151" -0.00243061369585009 -0.00256596249389595 -0.000332049956608099 1.87400937781801e-05 0.000130666682925398 4.43999360767004e-05 0.000438056099860461 8.698309543626e-06 -0.000487929392269344 0.000113544735124055 -0.000662692208216431 -0.000633093548780159 -0.000382742355016896 -0.000514258217500291 -0.00040225144160659 -0.00178346771170659
"152" -0.00236810178503949 -0.00257837613925376 -0.000318415770880687 3.43888464602878e-05 0.000141546626042049 4.70645859330869e-05 0.000421168243399523 -1.08660566216745e-05 -0.000515112029049527 8.15139862811409e-05 -0.000676129288103133 -0.000625002416995693 -0.000443847531875074 -0.000496001250748807 -0.000410318597012624 -0.00177062317127848
"153" -0.00229864819441268 -0.00257960273077808 -0.000304561695788565 4.98839014438115e-05 0.000152184336163391 4.99359971438886e-05 0.000403731217372115 -2.79587878544338e-05 -0.000539668243555237 4.99986761325316e-05 -0.000686609982106041 -0.000614760053572018 -0.000500423302360938 -0.000476615849759197 -0.000416844128979495 -0.00175264404110423
"154" -0.00222274995876364 -0.00256981912782715 -0.000290642105380507 6.50712570305456e-05 0.000162501859464929 5.29928134626107e-05 0.000385902975350754 -4.24659286942012e-05 -0.00056139211041929 1.91953794086435e-05 -0.000694102300540047 -0.00060241231972691 -0.000552107404788841 -0.000456087582570266 -0.000421725445166484 -0.0017298200146421
"155" -0.00214097434909242 -0.002549297977533 -0.00027680661581241 7.98043610605238e-05 0.000172416550123548 5.62102965187013e-05 0.000367833982537071 -5.43130708729513e-05 -0.000580116251985573 -1.07215905636183e-05 -0.000698611853649754 -0.000588041494020552 -0.000598600404059064 -0.000434431737501378 -0.000424888237392391 -0.00170249586471688
"156" -0.00205390751311426 -0.00251838646041417 -0.000263189824769654 9.39386659598472e-05 0.000181855807965576 5.9557719744407e-05 0.000349657872791356 -6.34649569947007e-05 -0.000595714548617345 -3.95972447007477e-05 -0.000700182174045371 -0.000571775961906971 -0.000639677159368072 -0.000411702031800088 -0.00042629577801699 -0.00167106953110593
"157" -0.00196219274934266 -0.00247752435714064 -0.000249920567230749 0.000107337150203177 0.000190732016496731 6.29934050007497e-05 0.000331487348911801 -6.99246434868013e-05 -0.000608113265002617 -6.73098607015753e-05 -0.000698897594054483 -0.000553782050164963 -0.000675186100103098 -0.000387973837412524 -0.000425941268423528 -0.00163599088034976
"158" -0.00186650718793378 -0.00242722042993961 -0.00023712132872261 0.000119867830758328 0.000198976449355889 6.64750522671283e-05 0.000313420344657391 -7.37410533938684e-05 -0.000617280559895456 -9.37495891814158e-05 -0.000694871360134188 -0.000534258165438445 -0.000705038110396577 -0.000363362239859898 -0.000423849438402961 -0.00159773764330385
"159" -0.00176756015223787 -0.00236805526809271 -0.000224903392331403 0.000131404900329438 0.000206509327862205 6.99494446328922e-05 0.000295547365029649 -7.49947332940238e-05 -0.000623225707143202 -0.000118837933603529 -0.000688254117273363 -0.000513438428129482 -0.0007292209375658 -0.000338004803552731 -0.000420073027458805 -0.00155682675831171
"160" -0.00166608311365819 -0.00230067788021348 -0.00021336146516079 0.000141834629326527 0.000213250970969084 7.33569842710353e-05 0.000277929665850466 -7.38083874737636e-05 -0.000626007403441127 -0.000142513851675849 -0.000679225834311565 -0.000491583332716782 -0.000747787495247809 -0.000312068344843252 -0.000414695295024349 -0.00151379137670361
"161" -0.00156283956913858 -0.00222579651445231 -0.000202586296588928 0.000151052584358078 0.000219129495767179 7.66378482042485e-05 0.000260619892625721 -7.03368501449574e-05 -0.000625718247537477 -0.000164735003314407 -0.000667986487097744 -0.000468976713225162 -0.000760849029803809 -0.000285746413047142 -0.000407822074931806 -0.0014691703164702
"162" -0.00145859602517967 -0.0021441647177121 -0.00019266022472598 0.000158962071264608 0.000224074605425279 7.97250822903499e-05 0.000243657890383644 -6.47655437436332e-05 -0.00062249471098072 -0.000185482524559061 -0.000654762233395436 -0.000445921194238381 -0.000768567775463881 -0.000259250641037179 -0.000399583528993379 -0.00142350778931796
"163" -0.00135411328339757 -0.00205656752824667 -0.000183648720685841 0.000165482626863176 0.000228018226564121 8.25481045137151e-05 0.000227066208121286 -5.73029077168774e-05 -0.000616498606214433 -0.00020474863193258 -0.000639797589204311 -0.00042273044760733 -0.000771167946503124 -0.000232805165429542 -0.000390126688740574 -0.00137733592079905
"164" -0.00125016297116733 -0.00196382659159985 -0.000175614811170271 0.000170544106370382 0.000230890683095045 8.503427206426e-05 0.000210853474696136 -4.81798214843401e-05 -0.000607926565164979 -0.000222534489823084 -0.000623338874027275 -0.000399724580763899 -0.000768910306196715 -0.0002066562979226 -0.00037960861144812 -0.00133116130732642
"165" -0.00114748738273997 -0.00186677427914015 -0.000168607259660322 0.000174094075268932 0.000232638557181769 8.71156693881204e-05 0.000195034042532612 -3.76428451207457e-05 -0.000596994665328007 -0.00023885788395789 -0.0006056446278659 -0.000377220008271945 -0.000762083470687806 -0.000181052165103403 -0.00036820286013038 -0.00128546645962772
"166" -0.00104681125641144 -0.00176625395295884 -0.000162667729029981 0.000176092920256788 0.000233196805516277 8.87175495497438e-05 0.000179594019283432 -2.5951832816274e-05 -0.000583945189558771 -0.000253741483457202 -0.000586977215380587 -0.000355531260921597 -0.000751021043347437 -0.000156249282667854 -0.000356085359691769 -0.00124069712452909
"167" -0.000948821624985765 -0.00166310437009231 -0.000157825095269571 0.000176515481725055 0.000232526924547488 8.97715444796768e-05 0.00016452940515179 -1.33680761502778e-05 -0.000569026833507917 -0.000267211781409002 -0.000567587921524882 -0.000334960447911635 -0.000736064851647209 -0.000132501434637313 -0.000343431421213303 -0.0011972549493294
"168" -0.000854163101392589 -0.00155815316699665 -0.000154105101215886 0.000175355795505318 0.000230577566905945 9.0210592182114e-05 0.000149827132372856 -1.68477238579959e-07 -0.000552502612320271 -0.000279294705784526 -0.000547727155881878 -0.000315791174721436 -0.000717581597980239 -0.000110059856889028 -0.000330422816535615 -0.00115549176820098
"169" -0.000763437993970789 -0.00145221027632032 -0.000151522599694396 0.000172619118665177 0.000227314774254467 8.99743920838538e-05 0.000135476370086761 1.33922257830283e-05 -0.000534643766604779 -0.000290025218247008 -0.000527627133816623 -0.000298283384165743 -0.00069594184062781 -8.91668875027525e-05 -0.000317227789867459 -0.00111570760492359
"170" -0.000677192569420068 -0.00134607459774252 -0.000150084626437444 0.000168330816470578 0.000222714286310665 8.90069858320952e-05 0.000121457452493152 2.70454959922659e-05 -0.000515714975905463 -0.000299430861922312 -0.000507508810844433 -0.000282670231815596 -0.000671516825779132 -7.00417089400222e-05 -0.000304007792935719 -0.00107814568168433
"171" -0.000595915603268613 -0.00124050980990871 -0.000149792859971267 0.000162526088287658 0.000216762019723557 8.72604207249678e-05 0.000107764203267839 4.05453861641911e-05 -0.000495981474253874 -0.00030754089894581 -0.000487572533653 -0.000269152582102983 -0.000644677019167568 -5.2893555192832e-05 -0.000290906396442716 -0.00104299296884407
"172" -0.000520044360770754 -0.00113627125059738 -0.000150640644586261 0.000155256549832219 0.000209446142619141 8.46971921780157e-05 9.43805985653182e-05 5.36563345376662e-05 -0.00047569529542885 -0.000314381741982389 -0.000467993609674691 -0.000257892229441438 -0.000615784307829873 -3.78917782999054e-05 -0.000278060309209286 -0.0010103771682684
"173" -0.00044995353004914 -0.00103408225094596 -0.000152615131723677 0.000146584221081315 0.000200777051182941 8.12865896238146e-05 8.13090657569424e-05 6.61559305017947e-05 -0.000455095181310875 -0.000319979168496165 -0.000448929455559628 -0.000249015306595703 -0.000585186535619546 -2.51767010937996e-05 -0.000265571800291436 -0.000980370336687223
"174" -0.000385972890516386 -0.000934656433794345 -0.000155701955654098 0.000136582181756323 0.000190767796178714 7.70115349313909e-05 6.85484584732551e-05 7.7838530462642e-05 -0.000434403414914131 -0.000324356493588251 -0.000430511006875472 -0.000242596989945891 -0.000553213242037677 -1.48474754350973e-05 -0.000253527558873499 -0.000952982694053387
"175" -0.000328386028561431 -0.000838699963078258 -0.000159876346919504 0.000125328429788953 0.000179452421966919 7.18691553313317e-05 5.61034259741098e-05 8.85218181070472e-05 -0.000413817844311153 -0.000327539247078764 -0.000412838561142921 -0.000238675071493604 -0.000520179410668767 -6.95744558448969e-06 -0.000241985732515082 -0.000928174514011533
"176" -0.000277419323433126 -0.000746898754417075 -0.000165119866261757 0.000112913966815364 0.000166874069210632 6.58676831017877e-05 4.39937828670961e-05 9.80412497756019e-05 -0.00039351188740897 -0.00032955135539039 -0.000395991060848686 -0.000237230863504907 -0.000486367693912415 -1.5069233206898e-06 -0.000230975372720301 -0.000905850646240924
"177" -0.000233269508517399 -0.000659945148830517 -0.000171399541469112 9.94258431021665e-05 0.000153088607552019 5.90276054336945e-05 3.22398713007755e-05 0.00010625557918333 -0.000373630293796073 -0.000330416057653249 -0.00038002136671779 -0.000238202662017306 -0.000452039600570167 1.55612012960711e-06 -0.000220495136320677 -0.000885872708803609
"178" -0.000196091472050506 -0.000578513279539984 -0.000178687372015676 8.49617358125673e-05 0.000138164982675331 5.13851629067743e-05 2.08657699466288e-05 0.000113043743208869 -0.000354288938328309 -0.000330164440792193 -0.000364954399472018 -0.00024148110983307 -0.000417440110583334 2.33999189691747e-06 -0.000210514275372337 -0.000868052738154739
"179" -0.00016600685647453 -0.000503275822770636 -0.000186948588704511 6.96136252430783e-05 0.000122193795520821 4.29910287393048e-05 9.91295319060026e-06 0.000118308328043926 -0.000335579489616009 -0.000328826844359938 -0.000350794001621321 -0.000246916131091734 -0.000382771730690031 1.00567559821989e-06 -0.000200977702788076 -0.000852170586181631
"180" -0.000143100182352158 -0.000434894791600066 -0.000196146770051146 5.34778416694617e-05 0.000105266754916008 3.39071112941755e-05 -5.80925298019824e-07 0.000121974081497561 -0.000317556701438695 -0.000326439711500725 -0.000337523025141921 -0.000254311934613987 -0.000348231692418954 -2.23841832680764e-06 -0.000191797071562752 -0.000837965737364563
"181" -0.000127425158875029 -0.000374003023958922 -0.000206247175760376 3.66464213019246e-05 8.74898052399251e-05 2.42055610851756e-05 -1.05719271136044e-05 0.000123984844753397 -0.000300256896354441 -0.000323044710269705 -0.000325101248134411 -0.000263441582766213 -0.000313979197570719 -7.13882258894495e-06 -0.000182866902210524 -0.000825159456714054
"182" -0.000118985453046869 -0.000321196429171489 -0.000217201045319871 1.92167816292226e-05 6.89821069801651e-05 1.39729885223368e-05 -2.00191457602516e-05 0.000124307392151781 -0.000283688904035652 -0.000318682836204475 -0.000313478541522334 -0.000274051506225398 -0.000280162670461325 -1.34035049044059e-05 -0.000174061901924414 -0.000813444760145579
"183" -0.000117760405504864 -0.000277033608336249 -0.000228961641809097 1.27519165211396e-06 4.98638102631943e-05 3.29601229388832e-06 -2.88786986807873e-05 0.000122923948967272 -0.000267847548152359 -0.000313407603260129 -0.000302587807816583 -0.00028586377282807 -0.000246911842586589 -2.07171261267263e-05 -0.000165246536991248 -0.000802506961213273
"184" -0.000123668913192862 -0.000242004366121052 -0.000241476571419622 -1.70861628902671e-05 3.02696119798448e-05 -7.72555765151516e-06 -3.71100518781005e-05 0.000119836153519764 -0.000252708611774049 -0.000307272229964227 -0.000292348583236773 -0.00029859034671845 -0.000214335303499599 -2.87462154513969e-05 -0.00015627464985553 -0.000792017808985055
"185" -0.000136583671537775 -0.000216516386304408 -0.000254685012407529 -3.57792231794406e-05 1.03267482679233e-05 -1.89900707985822e-05 -4.46786619137997e-05 0.000115062190227404 -0.000238244170880681 -0.000300336239889748 -0.000282681578411259 -0.000311935800045198 -0.000182536477168465 -3.71560727505912e-05 -0.000147001747280265 -0.000781650045544528
"186" -0.00015631843322584 -0.000200891776470459 -0.000268520735098983 -5.47157392333254e-05 -9.82191244089737e-06 -3.03962171904835e-05 -5.15571089472232e-05 0.000108639187615009 -0.00022440844866447 -0.000292661523079671 -0.000273492150740301 -0.00032560853544444 -0.000151604631232124 -4.56172277869574e-05 -0.000137286060233821 -0.000771083831280179
"187" -0.000182641212417046 -0.000195349133831128 -0.000282911528087714 -7.38133526766939e-05 -3.00425749418928e-05 -4.18417585209373e-05 -5.77278091622559e-05 0.0001006120353971 -0.000211167393000038 -0.000284308825702477 -0.000264691001453552 -0.000339327438514585 -0.000121628516995573 -5.38104733904507e-05 -0.000126994019385179 -0.000760001790452154
"188" -0.000215249590249971 -0.000199992959999516 -0.000297779944439385 -9.2984857193331e-05 -5.02078668444755e-05 -5.32263002764677e-05 -6.31750589129676e-05 9.104021434437e-05 -0.000198478214986484 -0.000275348470045717 -0.000256183549637051 -0.000352817244204045 -9.26844036701252e-05 -6.14391366114557e-05 -0.000116005061336942 -0.000748101809768583
"189" -0.000253796265965961 -0.000214809555531117 -0.000313041342792655 -0.000112145067228401 -7.0182993980881e-05 -6.44545781446429e-05 -6.7906974125812e-05 8.00007020138673e-05 -0.00018630490423863 -0.000265841481310411 -0.000247881811095119 -0.000365833175638256 -6.48436908003744e-05 -6.82432053610032e-05 -0.000104215791888682 -0.000735099374349447
"190" -0.000297869704927854 -0.000239670313858231 -0.000328601706203414 -0.000131211200219277 -8.9847062139197e-05 -7.5435337329446e-05 -7.19316997258483e-05 6.75724097419458e-05 -0.000174613588759897 -0.000255855742259186 -0.000239692944493955 -0.000378142069554162 -3.81763950398317e-05 -7.39844126730966e-05 -9.153434884318e-05 -0.000720729414441748
"191" -0.000347014456043706 -0.000274316363453458 -0.000344371048619974 -0.000150102983175574 -0.000109082128489696 -8.60828235964472e-05 -7.52673151850718e-05 5.38520086818132e-05 -0.00016338291559543 -0.0002454532638496 -0.000231534172100845 -0.000389541561004761 -1.27451442136219e-05 -7.84697831270295e-05 -7.78948244790915e-05 -0.000704746763511881
"192" -0.000400739462753403 -0.000318390554897384 -0.000360246395099561 -0.000168738696677477 -0.000127777210444319 -9.6318416776017e-05 -7.79479485206561e-05 3.89421468993721e-05 -0.000152583485360894 -0.000234700884360313 -0.000223324638773094 -0.000399847138377741 1.1394274556714e-05 -8.15350012100521e-05 -6.32466427592996e-05 -0.000686932704317077
"193" -0.000458502344520072 -0.000371414757257782 -0.000376130223894051 -0.000187040677340949 -0.000145839371953002 -0.000106073389982357 -8.00066787807812e-05 2.29519175159625e-05 -0.000142203207859508 -0.000223651831914437 -0.00021498603573873 -0.000408907180013451 3.41900646705702e-05 -8.30579282188105e-05 -4.75570657333072e-05 -0.000667089380954821
"194" -0.000519754891372696 -0.00043282419405323 -0.000391924768926231 -0.000204933903570045 -0.000163167608625971 -0.000115280023954325 -8.14895047943074e-05 6.00535344080898e-06 -0.000132224148612223 -0.000212363730637637 -0.00020644696321998 -0.000416586243365791 5.55999351280674e-05 -8.29396785551991e-05 -3.08086684179775e-05 -0.00064504577417844
"195" -0.000583912870994132 -0.000501957377053107 -0.000407527539797581 -0.000222347188055783 -0.000179683941943142 -0.000123883567294767 -8.24472291878032e-05 -1.17770940281422e-05 -0.000122638543254109 -0.000200889334284006 -0.000197639546934285 -0.000422777471861394 7.55920984553334e-05 -8.11249128668014e-05 -1.30028318940789e-05 -0.000620659238218495
"196" -0.000650398496860948 -0.000578093378600191 -0.000422845265064691 -0.000239210708693512 -0.000195312136950291 -0.000131832841862667 -8.29229773702062e-05 -3.02584615883796e-05 -0.000113431600376412 -0.000189275153909583 -0.000188502388144871 -0.000427389527963621 9.41441791655039e-05 -7.75749504256909e-05 5.84733251567344e-06 -0.000593812722767492
"197" -0.000718623777281352 -0.000660439124399269 -0.000437785873424092 -0.00025546408315722 -0.000209995344636801 -0.00013908345703927 -8.29790107927459e-05 -4.93031005587176e-05 -0.000104592434002414 -0.00017756566959566 -0.000178977407983067 -0.000430360840648489 0.00011124214879638 -7.2283638911018e-05 2.57156018651931e-05 -0.00056441407601372
"198" -0.000788015142787586 -0.000748154697825747 -0.000452260075158844 -0.000271046291784308 -0.000223671978273976 -0.000145602188681641 -8.26647839947512e-05 -6.87641515691921e-05 -9.61042879110485e-05 -0.000165798920593868 -0.000169009485506105 -0.000431632574594078 0.000126889269077806 -6.52580091137126e-05 4.65676831108151e-05 -0.000532400069311169
"199" -0.000858016662802952 -0.000840377015693142 -0.000466186925610195 -0.000285903157947248 -0.000236298465699285 -0.00015135484606442 -8.20360621260169e-05 -8.85022906178076e-05 -8.79509766882926e-05 -0.000154008021150391 -0.000158554239812675 -0.000431176521124668 0.000141100732034212 -5.65297771169703e-05 6.83590767620798e-05 -0.00049773862546878
"200" -0.000928082946235832 -0.000936212333588312 -0.000479494501565612 -0.000299988769658201 -0.000247837341768965 -0.000156314491287078 -8.11407541087033e-05 -0.000108361174911336 -8.01038689925165e-05 -0.000142223450410074 -0.000147566033886208 -0.000428971081865478 0.000153904292091571 -4.61405750840418e-05 9.10394539569799e-05 -0.000460418971902266
"201" -0.000997713874635487 -0.00103475839409519 -0.000492109229524961 -0.00031325867696508 -0.00025825928097311 -0.000160464834703895 -8.00247465695761e-05 -0.000128193632076127 -7.25400495297139e-05 -0.000130470890621289 -0.000136009743344785 -0.00042500739704606 0.000165344231714015 -3.41431392591109e-05 0.000114553799843756 -0.000420466446943052
"202" -0.00106642696216341 -0.00113512064464777 -0.000503975211886074 -0.000325676693548193 -0.000267544622518541 -0.000163789489164556 -7.87317508631996e-05 -0.000147842172976461 -6.52220713700746e-05 -0.000118770531296468 -0.000123851544388251 -0.000419293563666746 0.000175467437913484 -2.05989585745115e-05 0.000138841210639366 -0.000377931973206625
"203" -0.00113379393354501 -0.00123641476431419 -0.000515039291190315 -0.000337211825824973 -0.000275674412760724 -0.000166275677474608 -7.73015598700274e-05 -0.000167165682561718 -5.81093116357788e-05 -0.000107141487442725 -0.000111065561942194 -0.00041184529525781 0.000184342493601861 -5.58264101159573e-06 0.000163835634671494 -0.000332893027995844
"204" -0.00119940487254776 -0.00133778028013006 -0.000525259277181967 -0.000347836991309276 -0.00028264653008131 -0.000167918607185596 -7.57639398989779e-05 -0.000186008743829647 -5.11584952769123e-05 -9.55924132235614e-05 -9.76326392255688e-05 -0.00040268931572388 0.000192047090987772 1.08334826374525e-05 0.000189474063980855 -0.000285463323635433
"205" -0.0012629024031347 -0.00143838177698879 -0.000534597244660962 -0.000357534063059423 -0.000288453845582496 -0.000168715048190831 -7.41504850935368e-05 -0.000204228495176823 -4.4318950947531e-05 -8.41380290205707e-05 -8.35408258441169e-05 -0.000391862608281084 0.000198668520209488 2.85685340256912e-05 0.000215684982094835 -0.000235780391021018
"206" -0.00132397957887862 -0.0015374323758562 -0.000543023091823768 -0.000366285965033167 -0.000293101581066002 -0.000168669006484995 -7.248184425634e-05 -0.000221683372627157 -3.75407594704812e-05 -7.27841612978237e-05 -6.87819919227586e-05 -0.000379415775853002 0.000204298949430494 4.75356417660685e-05 0.000242395680818338 -0.000184011242572151
"207" -0.00138236186845638 -0.0016341824305213 -0.000550517072765679 -0.00037408392381574 -0.000296605308636738 -0.000167783774740107 -7.07754305972167e-05 -0.000238244236510164 -3.07625182433928e-05 -6.15349096968284e-05 -5.33604560623895e-05 -0.000365405645371031 0.000209043654861653 6.76465735417728e-05 0.000269533615357921 -0.000130348875824534
"208" -0.00143781769419423 -0.00172793514951248 -0.000557064008840805 -0.000380920976792164 -0.0002989728439107 -0.000166068356377718 -6.90443506933532e-05 -0.00025378132119664 -2.39305797452182e-05 -5.03925361588981e-05 -3.72808035915055e-05 -0.000349897427785654 0.000213006346778836 8.88139037041731e-05 0.000297023938599815 -7.50202627559447e-05
"209" -0.00149016909467056 -0.00181805594790343 -0.000562653475380196 -0.000386798838200955 -0.000300228562729692 -0.000163537764906105 -6.72953432240427e-05 -0.000268177399845422 -1.69845992200232e-05 -3.9360467106233e-05 -2.05651494982819e-05 -0.000332971467379695 0.000216297938026162 0.000110939141127394 0.000324787839623983 -1.82737208635774e-05
"210" -0.00153926056846985 -0.00190396039345967 -0.000567286114091275 -0.000391721122442918 -0.00030039633587695 -0.000160206849130875 -6.55368122504907e-05 -0.000281328561134683 -9.87341438306279e-06 -2.84370402169961e-05 -3.23658534587748e-06 -0.000314713706989113 0.000219028398099653 0.000133926111458508 0.000352743130515141 3.96210686381892e-05
"211" -0.00158500334559474 -0.00198513882792809 -0.00057096291037097 -0.00039569410736224 -0.00029950168095574 -0.000156097535569009 -6.37620949561969e-05 -0.000293137895840026 -2.53715265063944e-06 -1.76193303010995e-05 1.46719375853318e-05 -0.000295218542813759 0.000221308791339644 0.000157677197800906 0.000380811949206272 9.83730989440799e-05
"212" -0.00162732624568158 -0.00206113778625872 -0.000573691666538053 -0.000398730621854416 -0.000297579326457839 -0.000151231530773126 -6.19764479800437e-05 -0.000303521557529023 5.07075714454776e-06 -6.90933137378747e-06 3.31166799862239e-05 -0.000274593227948129 0.000223247699214416 0.000182087805048548 0.000408906165596622 0.0001576669461903
"213" -0.00166619864777577 -0.00213156885710122 -0.000575484024323678 -0.000400843754279564 -0.000294661652037855 -0.000145637108257387 -6.01692458117493e-05 -0.000312413399334842 1.29961206472359e-05 3.69771527007158e-06 5.20522586374749e-05 -0.000252954410711306 0.000224953147442367 0.000207052105846466 0.000436942643761305 0.000217182788253842
"214" -0.00170163051631291 -0.0021961250909797 -0.000576354905957761 -0.000402054741148783 -0.000290793839458628 -0.000139345351808075 -5.8331618117369e-05 -0.000319753704646359 2.12779410235592e-05 1.42060390312661e-05 7.1420316206744e-05 -0.000230420855669267 0.00022652304607277 0.000232463629377416 0.000464832182801531 0.000276584145897092
"215" -0.00173365976967628 -0.00225455293917199 -0.000576323980521216 -0.000402382968727314 -0.000286012751148018 -0.000132389310584144 -5.64618872792165e-05 -0.000325503459370592 2.99476355295071e-05 2.46175013442331e-05 9.11564965356753e-05 -0.000207125047364916 0.000228054697480669 0.000258207076617006 0.000492488927458265 0.000335529099358798
"216" -0.00176234677579173 -0.00230667391424942 -0.000575410820525439 -0.0004018509234048 -0.000280366791483934 -0.000124806114387503 -5.45406586582194e-05 -0.000329632430578821 3.90304212132978e-05 3.49339340706708e-05 0.000111195283205248 -0.000183200728024376 0.000229638490838573 0.000284175946570667 0.000519822511379799 0.000393676314367213
"217" -0.0017877917287089 -0.00235237600733643 -0.000573642758464733 -0.00040048850498461 -0.000273902890335347 -0.000116638450605073 -5.25605944367823e-05 -0.0003321340177805 4.85425787469245e-05 4.51596508818646e-05 0.000131458036534969 -0.00015879544548402 0.000231346594271453 0.000310248742789277 0.00054674000080048 0.000450688968337019
"218" -0.00181010679396271 -0.00239160654736584 -0.00057104298092631 -0.000398322888333595 -0.00026667347308414 -0.000107927928641268 -5.05089673266468e-05 -0.000333006990697017 5.8491298019993e-05 5.52984114610911e-05 0.000151869028617937 -0.000134048800945554 0.000233259834596197 0.000336311348361083 0.000573160339981485 0.000506236018483418
"219" -0.00182942432240349 -0.00242438152172752 -0.00056764040046516 -0.000395383389451519 -0.000258727899729123 -9.87219516101861e-05 -4.83752438436798e-05 -0.000332270183536874 6.88789810754223e-05 6.53517614109982e-05 0.000172347398885758 -0.000109115092439306 0.000235438459488593 0.000362247891474068 0.000598990087751729 0.000560003005403372
"220" -0.00184590239960526 -0.00245077081480408 -0.000563468594368234 -0.000391703865803274 -0.000250122474367328 -8.90675493926769e-05 -4.6139527904292e-05 -0.000329952750142605 7.96916936438453e-05 7.53258125510225e-05 0.000192806974424417 -8.41413723071089e-05 0.000237940639970057 0.000387944841199078 0.000624147253247962 0.000611687571380499
"221" -0.00185970284311995 -0.00247089829789769 -0.000558550620370141 -0.000387317746358689 -0.000240913713392529 -7.90190506622058e-05 -4.37957231698247e-05 -0.000326101119044578 9.09122747762844e-05 8.52241562789453e-05 0.000213164690275466 -5.92779195387658e-05 0.000240810652419757 0.000413285388663559 0.000648550372796471 0.000661020012509049
"222" -0.00187100918093678 -0.00248494314747775 -0.000552925326393199 -0.000382261924066053 -0.000231161350516558 -6.86278027118598e-05 -4.1328412371674e-05 -0.000320774493449763 0.000102517566167318 9.50509549180224e-05 0.000233334109787477 -3.46724393563455e-05 0.0002440856608527 0.000438154841408 0.000672118200932627 0.00070774820580418
"223" -0.00188000221354575 -0.00249313544127951 -0.000546624692441774 -0.000376570019308606 -0.000220922148369125 -5.79508295022782e-05 -3.87238420761053e-05 -0.000314036221409738 0.000114471531554322 0.000104813570977658 0.000253234928597013 -1.04699324338606e-05 0.00024779710512948 0.000462447420328922 0.000694780009776967 0.00075165455962299
"224" -0.00188687529992912 -0.00249573869619975 -0.000539679001121252 -0.000370283694319577 -0.000210251546381222 -4.70437449485028e-05 -3.59650155333141e-05 -0.000305970763086892 0.000126735939103659 0.00011451602929707 0.000272782426932552 1.31948312398208e-05 0.000251967177632289 0.000486058279568955 0.000716467064209524 0.000792556500908437
"225" -0.00189181705159084 -0.00249306182059657 -0.000532126026727768 -0.000363437615683696 -0.00019921545565537 -3.59638336165592e-05 -3.30437135968522e-05 -0.000296662922803531 0.000139264883126727 0.00012416507426449 0.000291903718713386 3.61868865799925e-05 0.000256610640592139 0.000508887621848756 0.000737122412700171 0.000830305262018383
"226" -0.00189501950944608 -0.00248544532068535 -0.000523992538939903 -0.000356073208966631 -0.000187869967288195 -2.4769896593599e-05 -2.99487359616007e-05 -0.000286211904842461 0.00015200821141164 0.000133768225910332 0.000310525068370123 5.83851563792209e-05 0.00026173236140695 0.000530845677659758 0.000756687701531651 0.00086479286329284
"227" -0.00189667244883452 -0.00247325714052011 -0.000515319433177983 -0.000348229168910521 -0.000176272684052701 -1.35190570250123e-05 -2.66578489541841e-05 -0.000274723233538114 0.000164909038891983 0.000143333299445332 0.000328577799759677 7.96746739330302e-05 0.000267335881014523 0.000551842349388035 0.000775121004767307 0.000895942031461584
"228" -0.00189695286202787 -0.00245689005925735 -0.000506137348376452 -0.000339946372296864 -0.000164479691105197 -2.27026819552083e-06 -2.31677523667583e-05 -0.000262307259658386 0.000177911925194999 0.000152868280755484 0.000346003390350101 9.99567368059738e-05 0.000273410679520598 0.000571806572550443 0.000792382010219427 0.0009237281576567
"229" -0.00189603374013753 -0.00243675417652933 -0.000496477557052855 -0.000331264048934819 -0.000152550203846641 8.92036358665676e-06 -1.94600959023637e-05 -0.000249080365933429 0.000190953326598934 0.000162380415134087 0.000362745042589872 0.000119136668872696 0.000279942949073818 0.00059067119462302 0.000808445690038121 0.000948151245166918
"230" -0.00189406855391546 -0.00241327523365295 -0.000486370913978632 -0.000322223001968027 -0.000140535414532583 1.99971662440026e-05 -1.55216635643698e-05 -0.000235157232469574 0.000203975943188134 0.000171872852599074 0.000378755221808654 0.000137141736736852 0.000286920295421929 0.000608380630343121 0.000823289571817546 0.000969254780052877
"231" -0.00189121657140111 -0.00238688521340727 -0.000475853188608625 -0.000312863415605137 -0.000128485126953451 3.09052443351105e-05 -1.13435019222963e-05 -0.00022066309143473 0.000216912578807836 0.000181352846323444 0.000393997288796856 0.000153902852186452 0.00029431450833219 0.000624888987062325 0.000836908197764495 0.000987121777578469
"232" -0.00188760400217048 -0.00235802443546168 -0.000464946010623693 -0.00030322570889659 -0.000116449546363366 4.15966842653022e-05 -6.9109293981074e-06 -0.00020571688588782 0.000229704847007501 0.000190826739344819 0.000408435495597093 0.000169373108540049 0.00030209558796802 0.000640165197446498 0.000849293977771236 0.00100185822133181
"233" -0.0018833438561404 -0.00232712694358878 -0.00045368089686311 -0.000293350170200156 -0.000104469219533836 5.20201702439912e-05 -2.21321488909961e-06 -0.00019044236143651 0.000242291636288544 0.000200293858815905 0.000422044757657903 0.000183515300147683 0.000310231555361352 0.000654188840386788 0.000860461072952785 0.0010136091084064
"234" -0.00187853922673973 -0.00229462422609592 -0.000442083352893798 -0.000283278231556933 -9.25920124142803e-05 6.21305534935227e-05 2.75410171020356e-06 -0.000174962359277899 0.000254614161577115 0.000209752417321051 0.000434806951868972 0.000196302691804754 0.000318681910963726 0.000666946659374144 0.000870420222709203 0.0010225407952415
"235" -0.00187326545883452 -0.00226094128800174 -0.000430174849699901 -0.000273048014673405 -8.08475900451603e-05 7.18884724499552e-05 8.00854042058409e-06 -0.000159395844702248 0.000266616467285109 0.000219196380607564 0.000446709380373833 0.000207723955074409 0.00032740012344291 0.000678446510335297 0.000879197143088163 0.00102884556274428
"236" -0.0018675789786638 -0.0022264839372264 -0.000417973935159065 -0.000262697967301372 -6.92670876930181e-05 8.12543538057889e-05 1.35524630883634e-05 -0.000143855140771325 0.00027824603521757 0.000228619671581323 0.000457746912964905 0.000217782441580063 0.000336338645564506 0.000688700147744502 0.00088681972961563 0.0010327326806521
"237" -0.00186152270279602 -0.00219164368923914 -0.000405498992585157 -0.000252270387468691 -5.78807760354666e-05 9.01973804908629e-05 1.93928484621375e-05 -0.000128455162197413 0.000289452264144048 0.000238006895228028 0.00046791879085252 0.000226489238709404 0.000345442525201177 0.000697728887204485 0.000893327519034183 0.00103442381465204
"238" -0.0018551062042104 -0.00215678827021678 -0.000392765276273289 -0.000241799438620696 -4.67123645621261e-05 9.86864355659508e-05 2.55312971250702e-05 -0.000113302843226339 0.000300191896089874 0.000247342298787642 0.000477227322041746 0.000233865112610478 0.000354654055031389 0.000705574881723317 0.000898759441337166 0.00103415835638465
"239" -0.00184832670022869 -0.00212225926789252 -0.000379782351215454 -0.000231322195956456 -3.57728483271843e-05 0.000106698446100335 3.19765060111018e-05 -9.8500102777641e-05 0.000310419966540546 0.000256598427092678 0.000485684594727717 0.000239944185618203 0.000363905551600233 0.00071227670620684 0.000903161241366714 0.00103217247634286
"240" -0.0018411511638619 -0.00208836489808603 -0.000366556975270894 -0.000220876621234325 -2.50802799069342e-05 0.000114212769636743 3.87202236550611e-05 -8.41406947735289e-05 0.000320098333713516 0.000265749350453453 0.000493299291287668 0.000244761673572118 0.000373133501990408 0.000717882635438794 0.000906579806596511 0.00102871281642882
"241" -0.00183352910373928 -0.00205538486208799 -0.000353099150079103 -0.00021049443460334 -1.46408701812093e-05 0.00012121736626615 4.57595454938036e-05 -7.03177179583361e-05 0.00032919411363689 0.000274760905715447 0.000500089044294206 0.000248365929513537 0.000382261712625198 0.000722454599840314 0.000909067691137021 0.00102401704451798
"242" -0.00182538985616297 -0.00202356377690654 -0.000339407964905173 -0.000200206601270691 -4.45462690528818e-06 0.000127701329596496 5.30957901979239e-05 -5.71083636897161e-05 0.000337674286225108 0.000283592247321788 0.000506068352504148 0.00025080490814289 0.000391221791557467 0.000726053370724103 0.000910670872882992 0.00101832144619379
"243" -0.00181662900391968 -0.00199309458437303 -0.000325484531187973 -0.000190043962814177 5.47464746151514e-06 0.000133660126042787 6.07149725955563e-05 -4.45868103595457e-05 0.000345514593539608 0.000292197607472938 0.000511255937444979 0.000252132696429442 0.000399929856360621 0.000728745105092353 0.000911441601902776 0.00101185250662495
"244" -0.00180713580725294 -0.00196414036842739 -0.000311319854401732 -0.000180035151995146 1.51564136584756e-05 0.000139091618704651 6.86085875534277e-05 -3.28191224177653e-05 0.00035269299034525 0.000300530733922616 0.000515675721280047 0.000252405763423648 0.000408308146460505 0.000730594391348668 0.000911427667730532 0.00100482165697567
"245" -0.00179676802658918 -0.0019368185534207 -0.00029691780032368 -0.00017020379851529 2.45970855712261e-05 0.000144001555795636 7.67618703319925e-05 -2.1863696092725e-05 0.000359186655353782 0.000308533105796069 0.0005193430727188 0.00025167798206994 0.000416277242858578 0.000731666225268551 0.000910675219647167 0.00099742855610889
"246" -0.00178537319479189 -0.00191119473938059 -0.000282262434348411 -0.000160569341703565 3.38076145620179e-05 0.000148395483052041 8.51595998075477e-05 -1.17627210845545e-05 0.000364980799043206 0.000316149459428885 0.000522278932829605 0.000250007404010654 0.000423751334105254 0.000732031585049227 0.000909225140172731 0.000989849580043316
"247" -0.00177277336733458 -0.0018872954889223 -0.000267350445743446 -0.000151150693972258 4.28049094513058e-05 0.000152288674944107 9.37813157522381e-05 -2.55609894296728e-06 0.000370065903092973 0.000323319695064626 0.000524508843206077 0.000247449892827204 0.000430652670134961 0.000731752972422838 0.000907117912499791 0.000982248901768489
"248" -0.00175878155670843 -0.00186510150752881 -0.00025217239544559 -0.000141963075469573 5.16065677859596e-05 0.000155693312569168 0.000102607403850101 5.72646341818156e-06 0.000374428382520763 0.000329979750397804 0.000526047198204041 0.0002440563777374 0.00043689891586993 0.000730886573164462 0.000904386805406913 0.000974759666454393
"249" -0.001743193569156 -0.00184454289551305 -0.000236715724179242 -0.000133015913500663 6.02296981349242e-05 0.000158630686709766 0.000111615473504148 1.30693470938166e-05 0.000378066123910004 0.000336064388647728 0.000526916669434633 0.000239879852497479 0.000442414395700051 0.000729492725078487 0.000901059064561225 0.000967495536194193
"250" -0.00172580307810896 -0.00182551868070921 -0.00022097654501088 -0.000124315380817583 6.86954693300346e-05 0.000161123295119537 0.000120784307264226 1.94644162080791e-05 0.00038097330807993 0.000341507824823543 0.000527134981784385 0.000234964042035399 0.000447123078215688 0.000727619132750451 0.000897161277847436 0.000960548585736405
"251" -0.00170638508641925 -0.00180787494857222 -0.000204942551267423 -0.000115865116643604 7.70206144151006e-05 0.000163193724822915 0.000130084641602226 2.49126031757887e-05 0.000383151865937611 0.000346248056011542 0.000526721238095812 0.000229355950773029 0.000450960584705667 0.000725313059077196 0.000892712692529269 0.000953982576669107
"252" -0.00168472590990758 -0.00179142736691408 -0.000188608764833199 -0.000107661528847445 8.52316409989819e-05 0.000164870907847033 0.000139495780110611 2.94253662049556e-05 0.000384608185635942 0.0003502164226858 0.000525694893204188 0.000223096914623145 0.000453859239227772 0.000722611682474879 0.000887725059609185 0.000947835447620785
"253" -0.00166060231084329 -0.00177595918576976 -0.000171975248553518 -9.97004830702992e-05 9.33482141844834e-05 0.000166184563917735 0.000148988055817949 3.30217183324878e-05 0.000385344781687305 0.000353355297123843 0.000524070717174055 0.000216218905730978 0.000455766181116686 0.000719548500846088 0.000882211088949664 0.000942123153198517
"254" -0.00163379374484046 -0.00176121833988962 -0.000155033263896491 -9.19700047752675e-05 0.000101387364098681 0.000167167150733392 0.000158540640346062 3.57336425948054e-05 0.000385374628909518 0.000355603027350881 0.000521864126104689 0.000208759813197815 0.000456632272374704 0.000716149747487647 0.000876172272643728 0.000936835252460815
"255" -0.00160408912516008 -0.00174693374443554 -0.000137792375884336 -8.44578602848164e-05 0.000109375107719986 0.000167850497836785 0.000168120080451651 3.76009700705749e-05 0.000384707950838789 0.000356907334532094 0.000519092454746458 0.000200745268595242 0.000456416804552417 0.000712433425162461 0.000869607776925529 0.000931935022607593
"256" -0.00157129942304949 -0.0017328107869874 -0.000120256805470518 -7.71438876735104e-05 0.000117326282449635 0.000168271461959377 0.000177709340388921 3.86654742637906e-05 0.000383368363780975 0.000357216704491084 0.000515769956190402 0.000192205807053869 0.000455089270827465 0.000708420073234155 0.000862518194678712 0.000927366972419549
"257" -0.00153523168359827 -0.00171853830049746 -0.000102436500931269 -7.00100071085724e-05 0.000125260653527032 0.000168462351460801 0.000187281152478551 3.89850753039051e-05 0.00038136832443706 0.000356486116898096 0.00051191076921791 0.00018316120180359 0.000452623624101478 0.000704115484488759 0.000854890790813591 0.00092304797368776
"258" -0.00149572738629747 -0.00170380249826429 -8.4346876556391e-05 -6.30286417417422e-05 0.000133195914455595 0.000168462327665605 0.000196815205582159 3.86186885136702e-05 0.000378731498428474 0.000354677329116733 0.000507529209147653 0.00017363399842578 0.000449014563191748 0.000699524173613235 0.000846717605611279 0.000918879364329835
"259" -0.00145264203673356 -0.00168827804916213 -6.60048509007129e-05 -5.61738900539637e-05 0.000141142659897941 0.00016830926974527 0.000206288324297378 3.76327402350518e-05 0.000375484996273775 0.000351757297498042 0.000502636402205877 0.000163644466235459 0.000444252169365668 0.000694642488928965 0.000837987652756232 0.000914738042554702
"260" -0.00140585723762839 -0.0016716458485342 -4.74397917231995e-05 -4.94155584629712e-05 0.000149115863518556 0.000168036623724728 0.000215679714605526 3.61017674572917e-05 0.000371654869592546 0.000347703412265126 0.000497243780446726 0.000153205522991973 0.000438347949818278 0.000689467504427756 0.000828680512531089 0.000910491093381014
"261" -0.00135528120986835 -0.00165358771870218 -2.86776334606634e-05 -4.27225759690278e-05 0.000157125989717158 0.000167682330141494 0.000224976907485743 3.41025932660019e-05 0.000367268897591985 0.000342493676911995 0.000491365579339577 0.000142337511115071 0.000431316630273327 0.000683988954798739 0.000818783046502443 0.000905984287774697
"262" -0.00130086083393152 -0.00163380696097691 -9.75440014796028e-06 -3.60588982952987e-05 0.000165182710752016 0.000167284294238001 0.000234160478087977 3.1713176384727e-05 0.00036236263198471 0.000336123868815624 0.000485010823958902 0.000131053955023673 0.00042318599337594 0.000678193219270723 0.000808275602944742 0.000901057186896131
"263" -0.00124256961547964 -0.00161201382814309 9.28576253042537e-06 -2.93910252729637e-05 0.000173286911195213 0.00016687617250884 0.000243212758670187 2.90187892524096e-05 0.000356963736888097 0.00032858926886241 0.000478187775700646 0.000119366806204709 0.000413985939655889 0.000672062599961326 0.000797141827014623 0.000895533499576561
"264" -0.00118041036567927 -0.00158794097430254 2.84049624894445e-05 -2.26831410595889e-05 0.000181446129039085 0.00016649167921145 0.000252125612410746 2.61005759575191e-05 0.000351107348787265 0.000319898329925076 0.000470909665206318 0.00010729432773478 0.000403764958487943 0.000665582456847707 0.000785359890016712 0.000889232490100781
"265" -0.00111443498763612 -0.00156135416182784 4.75494789059079e-05 -1.58995277535936e-05 0.000189664758182645 0.000166166334257325 0.000260886904357435 2.30449227889364e-05 0.000344826333906189 0.000310066928102079 0.000463182713037919 9.48469069850597e-05 0.000392567113079223 0.000658732981784875 0.00077291495463907 0.000881970540662384
"266" -0.00104472608514343 -0.00153203546595001 6.66681723224104e-05 -9.00354812647528e-06 0.000197933381040142 0.000165927473468518 0.000269485151941846 1.99401277502291e-05 0.000338158575545824 0.000299120511019746 0.000455017920867928 8.20438333392073e-05 0.000380454385458877 0.000651484323087747 0.000759790176601077 0.000873561647944126
"267" -0.000971400135927809 -0.00149980998961226 8.5700831100681e-05 -1.96128754648165e-06 0.000206252951209088 0.00016580603569427 0.000277910262525216 1.68622117495721e-05 0.000331131892276099 0.000287089943596317 0.000446423081321667 6.8898609352742e-05 0.000367483324461233 0.000643821383246409 0.000745965743235442 0.000863822442235595
"268" -0.000894610182518293 -0.0014645252370106 0.000104591380341998 5.26327108087316e-06 0.000214618403940677 0.000165829434828382 0.000286156357864087 1.38988731402359e-05 0.000323783570609769 0.000274018166902397 0.000437404840439964 5.54290067939166e-05 0.000353725653467333 0.000635712578839304 0.000731434205004603 0.000852566747001813
"269" -0.000814556533102933 -0.00142607968732405 0.00012327036475714 1.26987264106392e-05 0.000223018391824458 0.000166023134030712 0.000294215463026736 1.11262360600617e-05 0.000316144007293504 0.000259954790251299 0.000427971335295271 4.16546527265978e-05 0.000339255109405699 0.000627138093965585 0.000716180924016986 0.000839625674366015
"270" -0.000731466262633009 -0.00138439900068766 0.000141678896680277 2.03778917140799e-05 0.000231441344646732 0.000166405325845981 0.000302082864720819 8.62147739979561e-06 0.00030824681382727 0.000244954926336715 0.000418130784906727 2.75955853645064e-05 0.000324141156168926 0.000618073139221686 0.0007001999588174 0.000824836572930256
"271" -0.000645597192843275 -0.00133944989288238 0.00015974541070841 2.83289970269975e-05 0.000239874950433041 0.000166999153967515 0.000309756988012276 6.44847188205396e-06 0.000300113556068487 0.000229086511693442 0.000407893150911501 1.32769519824394e-05 0.000308464950157143 0.00060849148056666 0.000683483925672115 0.000808045942071691
"272" -0.000557251892015014 -0.0012912415084703 0.000177402364726863 3.65740434878261e-05 0.000248308270591514 0.000167818238104704 0.000317224985053132 4.68284728003455e-06 0.000291779256060793 0.000212416582395359 0.000397267126362157 -1.27855838007298e-06 0.000292307654784327 0.000598374294317687 0.000666031402743293 0.000789122770150056
"273" -0.000466750249639288 -0.00123981897862028 0.000194579424304663 4.51375518523911e-05 0.00025671912238466 0.000168877351118971 0.000324488789597839 3.37515037349567e-06 0.000283266333330259 0.000195027704665857 0.000386258588744762 -1.60397270524278e-05 0.000275744462767047 0.00058769865206922 0.000647847232719459 0.000767947605827938
"274" -0.000374447800080971 -0.00118527047746742 0.000211212128610893 5.40362599105718e-05 0.000265088371344712 0.00017018799439499 0.000331544716141807 2.58683752357025e-06 0.000274594601982159 0.000177001210163579 0.000374883164007462 -3.09781738669514e-05 0.000258860121545259 0.000576444689622533 0.000628938411864258 0.000744427412678679
"275" -0.000280721184255534 -0.00112771431853249 0.000227227716684654 6.32847933076084e-05 0.000273400990483734 0.000171754802982562 0.000338386762381371 2.36411766726395e-06 0.000265788523826321 0.000158425548990308 0.00036315110564231 -4.60576603944402e-05 0.000241733822861584 0.000564594664349718 0.000609313984826009 0.000718485595463093
"276" -0.000185964329217854 -0.00106731605686514 0.000242567658180684 7.28937072757117e-05 0.000281629621142547 0.000173583724321325 0.000345013243776134 2.74806735659617e-06 0.000256864868172794 0.000139396270120813 0.000351074585292866 -6.12432387813463e-05 0.000224445195731716 0.000552137277589826 0.000588993701954356 0.00069006844124931
"277" -9.05940283847031e-05 -0.00100426330733183 0.000257164526835019 8.28715712821123e-05 0.00028975535266115 0.000175675836402456 0.000351421271619419 3.77306045650687e-06 0.000247836711902994 0.000120011617667888 0.000338668586577724 -7.64935229127209e-05 0.000207066694632961 0.000539060990638237 0.000567995492186591 0.000659153346073651
"278" 4.95952565006288e-06 -0.000938786362112006 0.000270963369280066 9.32170120982931e-05 0.000297747326856348 0.000178029722359653 0.000357605355522752 5.46969751221045e-06 0.000238724007415212 0.00010036808528423 0.00032595002297424 -9.17652112811194e-05 0.000189676693571936 0.00052536004202607 0.00054634888202063 0.000625734814919002
"279" 0.000100263777679518 -0.000871135594524369 0.000283901568169348 0.000103932335814051 0.000305591457879865 0.000180641100169623 0.000363568496120599 7.86162259242974e-06 0.0002295322132346 8.05723549111255e-05 0.000312935297714691 -0.00010701111255821 0.000172349529865133 0.000511032652110349 0.000524086890584621 0.000589841420860468
"280" 0.000194869631844036 -0.000801593583278475 0.000295930226404035 0.000115005350107173 0.000313259895568384 0.000183502257821696 0.000369299536123787 1.09579497690113e-05 0.000220273112300609 6.07267071562809e-05 0.000299647881822667 -0.000122182481706969 0.000155147697079538 0.000496077978455155 0.000501245990295907 0.00055152041214081
"281" 0.000288339259307644 -0.000730461779370257 0.000307005986943973 0.000126429933090371 0.000320722178440324 0.000186605155389689 0.000374803542361867 1.47730479108665e-05 0.000210957678929475 4.09377555878396e-05 0.00028610968888644 -0.000137228011501437 0.000138141639417329 0.00048050602353091 0.0004778692047148 0.000510849226013375
"282" 0.000380225384198925 -0.000658070948105323 0.000317085644650815 0.00013818924314197 0.000327962710473467 0.000189935976705319 0.000380072153661434 1.93068638706934e-05 0.000201592797061787 2.1311639710618e-05 0.000272346307001278 -0.000152088713031803 0.000121390292790967 0.000464327409479105 0.000454004318957095 0.00046792880384695
"283" 0.000470098323446185 -0.000584752739918598 0.000326130628020091 0.000150262978607302 0.000334955721754541 0.000193482888241829 0.000385109750589949 2.45526107944788e-05 0.000192184677352102 1.94992416138521e-06 0.00025838574370203 -0.000166703850502022 0.000104953125481721 0.000447564706203416 0.000429708388132026 0.000422890077117386
"284" 0.000557527545996738 -0.000510866059234326 0.000334117262311743 0.000162627945698774 0.000341672786318234 0.000197226659817274 0.000389908845281729 3.05056840166614e-05 0.000182739561130405 -1.704588663649e-05 0.000244255930141427 -0.000181014668632334 8.88823157143863e-05 0.000430239204925978 0.000405041846707677 0.000375880484780258
"285" 0.000642105950421524 -0.000436771988699388 0.000341019305917356 0.000175255538786339 0.000348100168285437 0.000201153739762649 0.000394470642106229 3.71471622110828e-05 0.000173265480946457 -3.55711383363845e-05 0.00022999321962671 -0.00019495546876471 7.32281034029959e-05 0.000412383622635799 0.000380064434045054 0.000327071691928212
"286" 0.00072343625651406 -0.000362844910979317 0.000346821618122796 0.000188113922233916 0.000354213409602602 0.00020524073473032 0.000398793924723092 4.44543381473857e-05 0.000163771459798914 -5.35327444483144e-05 0.000215630106049832 -0.000208456878414648 5.80347566606021e-05 0.000394038052543758 0.000354851246649068 0.000276658238055181
"287" 0.000801148965042376 -0.000289450961797421 0.000351516776970526 0.000201167712385195 0.000359994757318743 0.000209470042371763 0.000402879883151375 5.24052026591246e-05 0.000154265872357262 -7.08348420003474e-05 0.000201206104620414 -0.00022145020538713 4.33458237093016e-05 0.000375249453338309 0.000329476348533727 0.000224852734631568
"288" 0.000874894858621535 -0.000216968577195994 0.000355101806582514 0.000214376286361699 0.000365430145582304 0.000213819352253945 0.00040672892321429 6.09660149777288e-05 0.000144761474095757 -8.73908823066766e-05 0.000186759339258876 -0.000233864869597986 2.91954203721868e-05 0.000356071403228454 0.000304018629785125 0.000171881052495115
"289" 0.000944347181725148 -0.000145761815537352 0.000357579928972821 0.000227699718744926 0.000370504955990832 0.000218267828603165 0.00041034369187575 7.01060241372815e-05 0.000135269749833653 -0.000103115019381329 0.000172334728644302 -0.000245625726674881 1.56199302643245e-05 0.000336565267098674 0.000278562072242146 0.000117987637754476
"290" 0.0010092150032815 -7.61964363024977e-05 0.000358965354892482 0.000241089436734764 0.000375205027187043 0.00022279267956002 0.000413723434325492 7.97848917615554e-05 0.000125807695911454 -0.00011793239669295 0.000157974092621326 -0.00025665789734875 2.65172385016019e-06 0.00031680039763108 0.000253194738055419 6.34276385985139e-05
"291" 0.00106923576030163 -8.62269328224422e-06 0.000359278654896777 0.000254498420500301 0.00037952191732792 0.000227371311876183 0.00041687452064239 8.99581586369454e-05 0.000116396964041709 -0.000131767251736112 0.000143722891937118 -0.000266886124984561 -9.68930582162202e-06 0.000296852868537116 0.000228005644886342 8.46853367727629e-06
"292" 0.00112418005255586 5.66192252531049e-05 0.000358541394518903 0.000267878018496159 0.000383448320273028 0.000231982474000187 0.000419799422012739 0.000100588022845012 0.00010705429930167 -0.000144558170688281 0.00012963142859098 -0.000276236415800974 -2.13785355191247e-05 0.000276807832505775 0.000203089941260805 -4.66167891740437e-05
"293" 0.0011738474297631 0.000119207380299278 0.000356791971339429 0.000281171870041933 0.000386982528442299 0.000236604895810916 0.000422504008370556 0.000111621327429604 9.78108847209618e-05 -0.000156244324839279 0.000115744254947718 -0.000284632733168919 -3.23966468176581e-05 0.000256755561100031 0.000178542316497871 -0.000101553357037602
"294" 0.00121808917668838 0.000178838799416238 0.000354061256206245 0.000294329373333667 0.000390119416340692 0.000241216065292915 0.000424992253736235 0.000123010285278766 8.86908627864999e-05 -0.000166776089191153 0.000102112917530608 -0.000292002522005927 -4.27284646491007e-05 0.000236790741564528 0.000154458084896914 -0.000156055117405942
"295" 0.00125677861928271 0.0002352314595577 0.000350395477894191 0.000307294506225784 0.000392865026808123 0.000245797351814162 0.000427277348030584 0.000134706646800278 7.97303816255621e-05 -0.000176111031815899 8.87856756950132e-05 -0.000298271602628025 -5.23605279532724e-05 0.000217014543315417 0.000130934505824543 -0.0002098450387386
"296" 0.00128983410936678 0.000288130382798881 0.000345850511448087 0.000320010825627312 0.000395219083771065 0.000250326972414642 0.000429358884602059 0.000146656234989445 7.09596183224052e-05 -0.000184211035576624 7.58131189781449e-05 -0.000303378094367087 -6.12866517111023e-05 0.000197529347732786 0.00010806601810822 -0.00026263813638469
"297" 0.00131722261292692 0.000337313535833115 0.000340476208754864 0.000332427084543538 0.00039719296809935 0.000254788388566355 0.000431248069751458 0.000158807122715959 6.2420474684804e-05 -0.000191051338506745 6.32410511114829e-05 -0.00030725397761503 -6.95021117637166e-05 0.00017844194310685 8.5945659850731e-05 -0.000314163642978941
"298" 0.00133893892511626 0.000382581112457088 0.00033433431795037 0.000344486256984542 0.00039879141424701 0.00025916413611145 0.000432954904903058 0.000171101022055903 5.41501871815989e-05 -0.000196608326524963 5.11191256979984e-05 -0.000309841823767583 -7.70051228497916e-05 0.000159857565367606 6.46668429752674e-05 -0.000364152333950705
"299" 0.00135502429291856 0.00042377550895559 0.000327493947420632 0.000356137342086875 0.000400026443387107 0.000263436432087036 0.000434481899359924 0.00018349003026068 4.61855252803317e-05 -0.000200873888140709 3.94912469769752e-05 -0.000311094192470456 -8.37968148553719e-05 0.000141877619860716 4.43085156977901e-05 -0.00041234170828779
"300" 0.00136556373919931 0.000460776589230678 0.000320020873016286 0.000367328758456291 0.000400910900751811 0.000267589042927909 0.000435837610255992 0.000195909787894526 3.85752400134152e-05 -0.000203844300686306 2.8400317353783e-05 -0.00031096460948163 -8.98860107196388e-05 0.000124608280562066 2.49583036704345e-05 -0.00045848378886565
"301" 0.0013706835022878 0.000493498054425498 0.000311991730782203 0.000378011193747093 0.000401463912630842 0.000271606802502109 0.000437030620587789 0.000208313876093551 3.13553473468009e-05 -0.000205518362695971 1.78893408498018e-05 -0.00030941764469068 -9.52801308024841e-05 0.000108143016596868 6.68753493645166e-06 -0.000502344738109746
"302" 0.00137054475584116 0.000521892331761899 0.000303480532676939 0.000388143801718899 0.000401699039905749 0.000275479533567008 0.000438068886810397 0.000220646447835695 2.45712512624349e-05 -0.000205907855209664 7.99437738614233e-06 -0.000306428776189658 -9.99928386853284e-05 9.25719263030871e-05 -1.04372475595862e-05 -0.000543703543742255
"303" 0.0013653523347388 0.000545960565827394 0.000294570091206117 0.000397680455812921 0.000401637198075915 0.000279193907817888 0.000438950741559537 0.000232850985115753 1.82632190740062e-05 -0.000205033275603586 -1.25177805375591e-06 -0.000301979784682577 -0.00010404145207621 7.79766850712676e-05 -2.63574992240583e-05 -0.000582356179465341
"304" 0.0013553485426569 0.000565739832627301 0.000285340494163059 0.000406584906626554 0.000401290360738607 0.000282735980747665 0.000439682435087295 0.000244874240929468 1.24701878028108e-05 -0.000202917342740094 -9.81613590322886e-06 -0.000296070286960822 -0.000107449563022327 6.44311775287256e-05 -4.10229783810894e-05 -0.000618117102770974
"305" 0.00134080492627281 0.000581305516901683 0.000275878011683255 0.0004148244850317 0.000400688368128226 0.000286098730511198 0.000440264969976276 0.000256665246135881 7.22834742405996e-06 -0.000199590383523178 -1.76770550477534e-05 -0.000288703812724797 -0.000110241816477612 5.19981499822351e-05 -5.4394250388073e-05 -0.000650825381941877
"306" 0.00132203502306041 0.000592779222751391 0.0002662683507586 0.000422371788111156 0.000399850951197568 0.000289271355535777 0.000440700744798204 0.000268177890848352 2.5736139960455e-06 -0.000195093467649953 -2.48104028123509e-05 -0.000279902182064568 -0.000112442627615342 4.07266847221254e-05 -6.64396637197804e-05 -0.000680334933801769
"307" 0.00129937659666074 0.000600317724097143 0.000256595152281296 0.000429199889248 0.000398792824577032 0.000292247180706113 0.000440988604973131 0.00027935655490116 -1.46097967280321e-06 -0.000189467740424965 -3.12001968824825e-05 -0.000269692195643453 -0.000114087487015912 3.06618485062669e-05 -7.71414481458814e-05 -0.000706522467963399
"308" 0.00127318709386048 0.000604110634828366 0.000246943236818751 0.000435290746751967 0.000397542263382923 0.000295018932614819 0.000441124206445799 0.00029015988831107 -4.84676153678637e-06 -0.00018276048969545 -3.68371448222144e-05 -0.000258115823344091 -0.000115207631656745 2.18300811097415e-05 -8.64900514209756e-05 -0.000729294268126302
"309" 0.00124385983541084 0.000604385659362823 0.000237400747836149 0.00044063003738457 0.000396121108648612 0.000297581264569511 0.000441107106692175 0.000300540463800008 -7.55754653841581e-06 -0.000175030193608269 -4.17130237984593e-05 -0.000245225658944157 -0.000115842136877134 1.42464336755042e-05 -9.44856252502282e-05 -0.000748576163155489
"310" 0.00121179206224964 0.000601397844863731 0.000228047524726414 0.000445209895713536 0.000394549680024707 0.000299930399074685 0.000440926921492373 0.000310454674519779 -9.568731001916e-06 -0.000166331591477413 -4.5824697231993e-05 -0.000231086108346942 -0.000116029872847678 7.92035555270869e-06 -0.000101139003022709 -0.000764320745623109
"311" 0.00117740723756838 0.000595427024643285 0.000218964292221888 0.000449027636017892 0.000392850554103638 0.00030206495425152 0.000440581209266343 0.000319867463105121 -1.08643132300434e-05 -0.000156727216173564 -4.91800994600444e-05 -0.00021576843143639 -0.000115806134972711 2.84225405148411e-06 -0.000106473369440946 -0.000776505492445735
"312" 0.00114112597141653 0.000586775454082838 0.000210229487565106 0.000452080907741727 0.000391046102013957 0.00030397981380564 0.000440065243202893 0.000328738288326807 -1.14241910153919e-05 -0.000146287090389632 -5.17859063532585e-05 -0.000199356297606378 -0.000115216703040417 -1.00075403085571e-06 -0.000110514728682429 -0.000785129488375403
"313" 0.00110337808275797 0.000575759053142451 0.000201913224366059 0.000454376518412569 0.000389155316564644 0.00030567942941491 0.000439365006983359 0.000337031925971946 -1.12367877253229e-05 -0.000135075978745138 -5.36554283099692e-05 -0.000181938713473506 -0.00011430326855799 -3.63509943441116e-06 -0.000113303607978034 -0.000790220260988344
"314" 0.00106459458361719 0.000562715755609605 0.000194087415746252 0.000455925694270012 0.00038719798174786 0.000307161281258423 0.000438477968258991 0.000344720997541756 -1.0289084275011e-05 -0.000123167888253075 -5.48040315107411e-05 -0.00016361329798397 -0.00011310902322313 -5.09676775063084e-06 -0.000114887774027561 -0.00079183016400591
"315" 0.00102520082688615 0.000547981715962203 0.000186815278279997 0.000456740078291222 0.000385196272320326 0.000308430040775298 0.000437394575119536 0.000351777270319572 -8.57647718692119e-06 -0.000110636547657787 -5.52569752605171e-05 -0.00014448207523735 -0.00011167162018433 -5.42677036226875e-06 -0.000115316698760645 -0.000790035546031603
"316" 0.000985609192939745 0.000531901193631223 0.000180156680902079 0.000456839316116736 0.000383165975800677 0.000309490175369776 0.000436102701295454 0.000358171234834333 -6.0911861590923e-06 -9.75573408357308e-05 -5.50417494688314e-05 -0.000124654245818281 -0.00011003684170746 -4.67251458818958e-06 -0.000114654572291174 -0.000784933508361572
"317" 0.000946221126879206 0.0005148109090332 0.000174161180158326 0.000456244269745141 0.000381124879567436 0.000310345237346536 0.000434601156604569 0.000363887875990958 -2.83435915087972e-06 -8.40059918097938e-05 -5.4183006536523e-05 -0.000104242295381934 -0.000108241807462039 -2.88974797723725e-06 -0.00011296477043643 -0.00077664859825237
"318" 0.00090742013228451 0.000497051283363429 0.000168871491844354 0.00045497803159762 0.000379087919249632 0.000311002962803583 0.000432877435528771 0.000368904237313504 1.19599665687168e-06 -7.00562317985945e-05 -5.27170847322416e-05 -8.33580169209238e-05 -0.000106323301999583 -1.38056315180876e-07 -0.000110317303145635 -0.000765324385069779
"319" 0.000869567936594596 0.000478944262051214 0.000164333132718763 0.000453069662863514 0.000377071475561706 0.000311470948991326 0.000430924175999014 0.000373210952298155 5.99754285696961e-06 -5.57867293191284e-05 -5.06801925476765e-05 -6.21182295637596e-05 -0.000104322352162617 3.5234331779286e-06 -0.00010678556657943 -0.000751121607584839
"320" 0.000833000534660183 0.000460806529829387 0.000160570653558848 0.00045054737666444 0.000375088100320378 0.000311755698679646 0.000428739601902215 0.000376796632617553 1.15658536705391e-05 -4.12688514203325e-05 -4.81090248470752e-05 -4.06399731885663e-05 -0.000102271690438624 8.02765409137215e-06 -0.000102446753174039 -0.000734223303825476
"321" 0.000798033185105173 0.000442933586908292 0.000157613424669199 0.000447443315316364 0.000373147801434635 0.000311869909985803 0.000426319067241919 0.000379652524555979 1.7894058369824e-05 -2.65768961921764e-05 -4.50456160861342e-05 -1.90335434325353e-05 -0.000100201409394837 1.33055854541132e-05 -9.73789875887846e-05 -0.000714827605776835
"322" 0.000764937526327308 0.000425601296241525 0.00015547243947576 0.000443789408246599 0.000371262450465175 0.00031181993854613 0.000423654445660748 0.000381771702248982 2.49720442633616e-05 -1.17783898933404e-05 -4.15349211905917e-05 2.58730652469882e-06 -9.81432847027431e-05 1.92909618959813e-05 -9.16632371181998e-05 -0.000693149818639337
"323" 0.000733968027395826 0.000409059244572928 0.000154160032493184 0.000439619833969762 0.000369442124675603 0.000311619368935998 0.000420743816174154 0.000383161063213675 3.27881208307297e-05 3.05487778325592e-06 -3.76201287289612e-05 2.4111041501586e-05 -9.612157987212e-05 2.59147802513829e-05 -8.53805957940763e-05 -0.000669416736454184
"324" 0.000705334799301344 0.000393538354654864 0.000153675366625507 0.00043496950140435 0.000367687220975594 0.00031127733368638 0.000417589300156338 0.000383821057530808 4.1332492175587e-05 1.78616558939005e-05 -3.33440049252642e-05 4.54370774831993e-05 -9.41611874812185e-05 3.31120955641346e-05 -7.86087590812448e-05 -0.000643864666936245
"325" 0.000679213498776953 0.000379238870708428 0.000154013901146136 0.00042987446383854 0.000366006611498439 0.000310804568004503 0.000414188649090792 0.000383753206832187 5.05877237979473e-05 3.25832905069245e-05 -2.87563413865137e-05 6.64630628455559e-05 -9.22853448002428e-05 4.08145259735188e-05 -7.14331628547336e-05 -0.000616740139722725
"326" 0.000655752846109531 0.000366335063288954 0.000155159917654532 0.000424369120599376 0.000364403080838672 0.000310213291052953 0.00041054600338103 0.000382975082575825 6.05370032905939e-05 4.71592901126799e-05 -2.39010854853865e-05 8.70947608536871e-05 -9.05093800048484e-05 4.89574794876007e-05 -6.39274697043055e-05 -0.00058829439040919
"327" 0.000635056021909953 0.000354971155941482 0.000157094550341003 0.000418491577628901 0.00036287465447469 0.000309514390915334 0.00040666082161071 0.000381491598423346 7.1160357061421e-05 6.15434504948412e-05 -1.88235100943131e-05 0.000107247269645607 -8.88517451304052e-05 5.74785131373037e-05 -5.61708009649887e-05 -0.000558787454725975
"328" 0.000617192116381673 0.000345260462852929 0.00015978784914046 0.000412273366321051 0.00036142445875084 0.000308718288259366 0.000402542968783623 0.000379324429464686 8.24377687278631e-05 7.56855776856361e-05 -1.35710115109095e-05 0.000126838658697879 -8.73221367602446e-05 6.63156836342257e-05 -4.82334629187787e-05 -0.000528475359046593
"329" 0.000602198567063801 0.000337286942855209 0.000163208960100853 0.000405748849967871 0.00036004901065402 0.000307834600701469 0.000398193777935414 0.000376485547518001 9.43474385909679e-05 8.95467637249072e-05 -8.18644619012104e-06 0.000145797337638116 -8.59314668383089e-05 7.54169315718541e-05 -4.01881811083264e-05 -0.000497612133896486
"330" 0.000590072447377755 0.00033110719692005 0.000167314633102088 0.000398953115494892 0.000358743880195273 0.000306873033701458 0.000393623567305062 0.000372999568842441 0.00010686261202246 0.000103091371083962 -2.71537990696459e-06 0.000164059259974887 -8.46883254735427e-05 8.47217040993507e-05 -3.21036170401724e-05 -0.000466454508606798
"331" 0.000580781848225404 0.000326741277009351 0.000172063701460205 0.00039191929284018 0.000357504944119577 0.000305843298773447 0.000388841196746758 0.000368887191363932 0.000119956822547053 0.000116287139433033 2.80158626185946e-06 0.000181566973101452 -8.36012553960327e-05 9.41849614342018e-05 -2.40401577854584e-05 -0.000435250063952946
"332" 0.000574262675240569 0.000324194867478267 0.000177403586457648 0.000384674864478591 0.000356325517689126 0.000304752904427752 0.000383854845228127 0.000364175047866782 0.000133597783128505 0.000129113241954579 8.3237448381392e-06 0.000198277931814904 -8.26687666160131e-05 0.000103755402998597 -1.60560409086782e-05 -0.000404231590782339
"333" 0.00057041352457439 0.000323428116885638 0.000183282447917789 0.000377250269000263 0.00035519411099662 0.000303608236780416 0.000378676063661357 0.000358887759190762 0.000147757181359219 0.000141547584907568 1.3815487430923e-05 0.00021415208299077 -8.18954740533943e-05 0.000113397292489985 -8.20656872307792e-06 -0.000373632614404828
"334" 0.000569116368177558 0.000324394191710235 0.000189642797547201 0.00036967445538595 0.000354101909051623 0.000302415270469775 0.000373319127767964 0.00035305559204124 0.000162401267564093 0.000153575808170716 1.92405387234136e-05 0.000229162415162896 -8.12799446836765e-05 0.000123061518699229 -5.38791054284585e-07 -0.000343667951313688
"335" 0.000570217575616696 0.000327007522746896 0.000196421859715436 0.000361972139548022 0.000353041300025567 0.000301179553933374 0.000367795164188258 0.000346709758880508 0.000177492911012275 0.000165193441135733 2.45649143451313e-05 0.000243288250129328 -8.0822484606346e-05 0.000132722379732604 6.9015369142885e-06 -0.000314539327547917
"336" 0.000573548424721017 0.000331170238527484 0.000203556694131416 0.000354169648986567 0.00035200186720848 0.000299906289799707 0.000362120798515948 0.000339883675201428 0.000192999681986514 0.000176392648814529 2.97625520917589e-05 0.000256521196021874 -8.05185552700743e-05 0.000142341534041575 1.40766795599266e-05 -0.000286437620280775
"337" 0.000578915464918384 0.000336757579365772 0.000210984653095963 0.000346287664135507 0.000350965772543458 0.000298597967423797 0.000356311341845887 0.000332606763144497 0.00020887786128841 0.000187178346914355 3.48042281590624e-05 0.000268858746630427 -8.03674437266161e-05 0.000151898880770501 2.0953901870194e-05 -0.000259526445631126
"338" 0.000586108912508237 0.000343635844854606 0.000218637145280111 0.000338347129728675 0.000349927572741735 0.000297256141444727 0.000350377633398596 0.000324916432788987 0.000225092470377713 0.000197553208565661 3.96676846788342e-05 0.000280307668896685 -8.03605818566314e-05 0.0001613653826766 2.75068059346481e-05 -0.000233960902967814
"339" 0.000594904282562155 0.00035164673296321 0.00022645045662894 0.000330368708007749 0.000348873000907582 0.000295881415244043 0.000344343720864737 0.000316847151792924 0.000241597985547269 0.000207528917434338 4.43337266729256e-05 0.000290886240959178 -8.04920693782648e-05 0.00017072667804891 3.37130346805498e-05 -0.000209872920033694
"340" 0.000605069567450809 0.000360628325309954 0.00023435515320152 0.000322369729539845 0.000347788921275406 0.000294475555631635 0.000338222053174263 0.000308438217103275 0.000258353787090994 0.000217117062170712 4.87867421098596e-05 0.000300615821248764 -8.07588052194369e-05 0.000179965958318612 3.95544706636371e-05 -0.000187374999519948
"341" 0.000616360694630351 0.000370401949470531 0.00024228959441166 0.000314366231741552 0.000346661468025283 0.000293036842570762 0.000332029192973528 0.000299721871690895 0.0002753177032879 0.00022633568824376 5.30110170971467e-05 0.000309527949798744 -8.11530201655951e-05 0.00018907270335396 4.50222944026759e-05 -0.000166559969782691
"342" 0.000628530979514658 0.00038078679303962 0.00025018846396486 0.000306370804213434 0.000345483365492854 0.000291563065621469 0.000325784609993454 0.000290740207929746 0.000292443014626755 0.000235203069303671 5.7000773964128e-05 0.000317656579150506 -8.16636682574599e-05 0.000198039064194169 5.01100910887907e-05 -0.000147502554966732
"343" 0.000641333258541351 0.0003915934533905 0.000257988264188299 0.000298398636878239 0.000344237389806556 0.000290055106028351 0.000319506202995888 0.00028153156604487 0.000309686650927443 0.000243741730452777 6.07511580194303e-05 0.00032504853971918 -8.22855833891413e-05 0.000206864829351761 5.48156463279083e-05 -0.000130252578744195
"344" 0.00065451844756497 0.000402638781582513 0.000265631351938914 0.000290460929034979 0.00034291951282643 0.000288506656458298 0.000313211256939223 0.00027213160430401 0.000327000959138919 0.000251970586309352 6.42567392763586e-05 0.000331748880590831 -8.30136315239117e-05 0.000215544991113981 5.91450533439968e-05 -0.0001148469900595
"345" 0.000667848302762059 0.000413727874386275 0.000273062228357019 0.00028256972455083 0.000341516413816849 0.000286915470029851 0.000306919488576849 0.000262580234763933 0.000344342472227116 0.000259915615429507 6.75190481874824e-05 0.000337811613808648 -8.38349003204504e-05 0.000224083917951452 6.31039738724387e-05 -0.000101301327464195
"346" 0.000681086325000211 0.000424678983410793 0.000280226697331201 0.000274734315040095 0.00034001671715876 0.000285279565293209 0.000300645000642019 0.000252916336822679 0.000361666119730719 0.000267601100211017 7.05434007461019e-05 0.000343291323035372 -8.47476136286097e-05 0.000232485944117252 6.67046011216071e-05 -8.96120486160089e-05
