"V1" "V2" "V4" "V5" "V7" "V8" "V10" "V11" "V13" "V14" "V15" "V17" "V18" "V20" "V21" "V23"
"1" 2.23606666140778e-06 3.34625718233645e-06 6.17126645792746e-06 2.78699616675299e-06 1.72903713324308e-05 4.82858123173046e-06 6.0471481724922e-06 5.79954139002381e-06 6.14994459190288e-06 -3.57463385081795e-05 2.62046723845534e-06 -1.4237814712659e-05 1.17320426338894e-05 -3.00288763706908e-05 -7.69626735648984e-05 -0.00046977278699064
"2" 6.05823633597101e-06 1.51750139110535e-06 1.00793372705975e-05 -2.45666847489096e-06 1.95027318699799e-05 -4.74226735336977e-06 8.15513853027259e-06 8.5719448542476e-06 5.08326277726557e-07 -4.82137715790866e-05 8.9255660402909e-07 2.3294738536958e-05 -0.00047623889879703 -3.70392146709287e-05 -8.39693031597923e-05 -0.000523608973903777
"3" 9.8448631317731e-06 -3.36342759080027e-07 1.39067717137089e-05 -7.71924706515716e-06 2.16707800177017e-05 -1.4334854678544e-05 1.01960242294006e-05 1.12469576607038e-05 -5.09568453360994e-06 -6.05696941132599e-05 -7.71750736385947e-07 6.08477154519852e-05 -0.00098037069181897 -4.40049395093316e-05 -9.09407920570223e-05 -0.000576830281357557
"4" 1.35979892015012e-05 -2.19923432910231e-06 1.76466536358025e-05 -1.29613346122349e-05 2.37645574316343e-05 -2.39134132083533e-05 1.21689873565761e-05 1.37866840153417e-05 -1.07135650315219e-05 -7.27158523166014e-05 -2.38476795565314e-06 9.82586377465461e-05 -0.00149930004687601 -5.10531551066039e-05 -9.78193010221197e-05 -0.000628992672235596
"5" 1.73129782237292e-05 -4.05761296428718e-06 2.12934113525736e-05 -1.8147960161832e-05 2.57577116940565e-05 -3.34334499763153e-05 1.40689448203755e-05 1.61637195561716e-05 -1.64019455145809e-05 -8.45522287180442e-05 -3.96836390342396e-06 0.000135358672960244 -0.00203144502630403 -5.83173341258303e-05 -0.00010453700124733 -0.000679728077489118
"6" 2.0992373850892e-05 -5.89334514802013e-06 2.48457683443402e-05 -2.32370334113833e-05 2.76267543572795e-05 -4.28501164042125e-05 1.58957698236735e-05 1.83499172978158e-05 -2.22126191259755e-05 -9.59844997033823e-05 -5.53850531387922e-06 0.000171976470472953 -0.00257496137508804 -6.59376988309656e-05 -0.000111032136224376 -0.000728657336524869
"7" 2.46388542073467e-05 -7.68857266889906e-06 2.83123721959965e-05 -2.81903004214261e-05 2.93498875486452e-05 -5.21196373312121e-05 1.76518478129486e-05 2.03259722022318e-05 -2.82033615257496e-05 -0.00010691467022887 -7.12469723973005e-06 0.000207941967211541 -0.00312772171784386 -7.40535876992615e-05 -0.000117235861638164 -0.000775476165334002
"8" 2.82561266833426e-05 -9.41643898511769e-06 3.16974908115958e-05 -3.29591023135006e-05 3.09086653553091e-05 -6.11917977366276e-05 1.93427565217469e-05 2.20719121446425e-05 -3.4433035297894e-05 -0.000117259990946327 -8.75683512955795e-06 0.000243080095406257 -0.00368726353338517 -8.28140055181437e-05 -0.000123092330930556 -0.000819901654938571
"9" 3.18534685149368e-05 -1.10587563534411e-05 3.50203267251776e-05 -3.7503006123004e-05 3.2285041620718e-05 -7.00215648337932e-05 2.09824636653031e-05 2.35780108860175e-05 -4.09587295273449e-05 -0.000126936752350055 -1.04625020418393e-05 0.000277221742441283 -0.00425076874692169 -9.23572052074949e-05 -0.00012854437776896 -0.000861683738082909
"10" 3.54383397671594e-05 -1.25880273260648e-05 3.83015009067355e-05 -4.17793012370764e-05 3.34680010922097e-05 -7.85574984760104e-05 2.25793775122123e-05 2.4832201078287e-05 -4.78446407795451e-05 -0.000135869867392404 -1.22775039473786e-05 0.000310197305911107 -0.00481503057229298 -0.000102821802228271 -0.000133541658045608 -0.000900625151344325
"11" 3.90245740612393e-05 -1.39759902665533e-05 4.15625171995393e-05 -4.57398915054096e-05 3.44542078172803e-05 -8.67537268443609e-05 2.41478447941266e-05 2.58328526664414e-05 -5.5136458893892e-05 -0.000143985419532795 -1.42328410779036e-05 0.000341845303829153 -0.00537643108401515 -0.000114333443399954 -0.000138034137577981 -0.000936565845054677
"12" 4.26225366512084e-05 -1.51959281592816e-05 4.48316236804322e-05 -4.93389447677061e-05 3.52341500401004e-05 -9.45618735308762e-05 2.57032091606543e-05 2.65795536740326e-05 -6.28905316894532e-05 -0.000151224809380664 -1.63599092802794e-05 0.000372011761723422 -0.00593092951405587 -0.000127013099626171 -0.000141974846842769 -0.000969387287895677
"13" 4.62462552603053e-05 -1.62191200189734e-05 4.81411277851544e-05 -5.25414202430981e-05 3.58098288209936e-05 -0.000101936090321982 2.72637773603686e-05 2.70736830088653e-05 -7.11544967229917e-05 -0.000157533461869143 -1.86946921555871e-05 0.000400556730423942 -0.00647407291286792 -0.000140966778100895 -0.0001453311183418 -0.000999014586298405
"14" 4.99135493638558e-05 -1.70164474800387e-05 5.1527827510781e-05 -5.53007404262123e-05 3.61858281279241e-05 -0.000108835779393439 2.88460822389249e-05 2.73211821024677e-05 -7.99653815406442e-05 -0.000162866898018254 -2.12598914992809e-05 0.000427347435398471 -0.00700102281969507 -0.0001562724197098 -0.00014806621190205 -0.00102538332867386
"15" 5.3637102984762e-05 -1.75603534867592e-05 5.50248136718468e-05 -5.75848071240002e-05 3.63711672770788e-05 -0.000115222050753837 3.04673601740688e-05 2.73305381633266e-05 -8.93550845829574e-05 -0.000167191843563335 -2.4075710688838e-05 0.000452271639584595 -0.00750662545047847 -0.00017299393624959 -0.00015016163104607 -0.00104845153150017
"16" 5.74349139972356e-05 -1.78218724744097e-05 5.86633100084265e-05 -5.93577292132976e-05 3.63757786189408e-05 -0.000121061220907409 3.21415325617391e-05 2.71075058351565e-05 -9.93476580810333e-05 -0.000170475143032607 -2.71597397567484e-05 0.000475236425762597 -0.00798550467858718 -0.000191157079084379 -0.00015159105603717 -0.00106821754904098
"17" 6.13222290282902e-05 -1.77794394994354e-05 6.24855268064247e-05 -6.06003632349999e-05 3.62195713075337e-05 -0.000126326265587428 3.3883342580321e-05 2.66598160805163e-05 -0.000109950182895095 -0.000172709503769073 -3.05158890238642e-05 0.000496165728739994 -0.0084321956125184 -0.000210765976738788 -0.000152351590068042 -0.00108465380704452
"18" 6.53104997690667e-05 -1.74062448802978e-05 6.65159623268907e-05 -6.1284419281783e-05 3.59229366935121e-05 -0.000130996636623735 3.56985136565906e-05 2.59958633360772e-05 -0.000121164015770976 -0.000173884016298423 -3.41404648891853e-05 0.000515010309198159 -0.00884132708377528 -0.000231788095038414 -0.00015244006117783 -0.00109777128333869
"19" 6.94185307708341e-05 -1.66831132658434e-05 7.07879439132536e-05 -6.14014643931458e-05 3.55045939927952e-05 -0.000135061114217075 3.76007628276157e-05 2.51206728419649e-05 -0.000132970631676487 -0.000174008669642561 -3.80239372296128e-05 0.00053174467557368 -0.00920782214280519 -0.000254156165890464 -0.000151859042640376 -0.00110756819703447
"20" 7.36547609679315e-05 -1.55915081245349e-05 7.53283941083668e-05 -6.09401686835049e-05 3.49988027401533e-05 -0.000138508780442692 3.95865241827187e-05 2.40385279206904e-05 -0.000145342093743242 -0.000173092533334523 -4.21375012389595e-05 0.000546363965383818 -0.00952713545005243 -0.000277767281827368 -0.000150626900946033 -0.00111403830084922
"21" 7.80301817975778e-05 -1.41161103516326e-05 8.01612099618608e-05 -5.99009252062941e-05 3.44288413798263e-05 -0.000141343748841184 4.16585966379091e-05 2.27542400369467e-05 -0.00015823893670024 -0.000171166764263024 -4.64518590463926e-05 0.000558892223014451 -0.00979547567500732 -0.000302487418167683 -0.000148762344991363 -0.00111718247183202
"22" 8.25538677462868e-05 -1.22462269206392e-05 8.53058197640538e-05 -5.8289217552024e-05 3.38272560452389e-05 -0.000143570281786159 4.38129561258589e-05 2.12695671784813e-05 -0.000171611406367776 -0.000168265790954441 -5.09243369349231e-05 0.000569371875110423 -0.0100100186682641 -0.000328157339755275 -0.000146301401818045 -0.00111701713024999
"23" 8.72365879580569e-05 -9.97142942167701e-06 9.07781517823373e-05 -5.61144677322131e-05 3.32341252572352e-05 -0.000145201564203713 4.60474968455157e-05 1.95883889309489e-05 -0.000185393337702245 -0.000164434685756593 -5.55086010802645e-05 0.000577867474938219 -0.0101690752272595 -0.000354591030997373 -0.000143277989658075 -0.00111356065530016
"24" 9.20833030957397e-05 -7.28103076906088e-06 9.65991363887057e-05 -5.33903940306101e-05 3.26833287854083e-05 -0.000146257509307595 4.83535803896553e-05 1.77141288268609e-05 -0.000199516367712105 -0.000159728198158308 -6.01495418684227e-05 0.00058446078467963 -0.0102722012925091 -0.000381576662189204 -0.000139737522152871 -0.00110684492860212
"25" 9.71020054023439e-05 -4.17370811301467e-06 0.000102785698356823 -5.01333285362766e-05 3.22160623962342e-05 -0.00014675793377816 5.07246420540342e-05 1.56524990948439e-05 -0.000213907029131996 -0.000154212627226845 -6.47953196555408e-05 0.000589247135717445 -0.0103202293765029 -0.000408902367015562 -0.000135733554573397 -0.0010969431316436
"26" 0.00010230225685984 -6.37672388125397e-07 0.000109352823662494 -4.6368485045943e-05 3.18697986822478e-05 -0.000146724388265973 5.31556651965337e-05 1.341009896569e-05 -0.000228483874588584 -0.00014796076610171 -6.93873063370654e-05 0.00059233254155865 -0.0103152197880427 -0.000436340270169923 -0.000131327909557828 -0.00108394173192239
"27" 0.000107687083239317 3.3266516130298e-06 0.000116317777330714 -4.21135915006541e-05 3.16927098911968e-05 -0.000146182338251456 5.56434286295395e-05 1.09986279094544e-05 -0.000243167353016989 -0.000141049987935653 -7.38728346354677e-05 0.000593836510695423 -0.0102603325084815 -0.000463665390353546 -0.000126584013737457 -0.00106798150556699
"28" 0.00011327163361739 7.72827129744109e-06 0.000123702671994285 -3.73915796191133e-05 3.17210953724983e-05 -0.000145158115835692 5.81869841055669e-05 8.43290026332464e-06 -0.000257877784499833 -0.000133569419910576 -7.81993419672311e-05 0.0005938772041459 -0.010159657314812 -0.000490657278028661 -0.000121569246654279 -0.0010492347150029
"29" 0.000119056552473636 1.25676816147493e-05 0.000131528380030499 -3.22250945586433e-05 3.2007485817569e-05 -0.000143674435202005 6.0785131939192e-05 5.73614540473108e-06 -0.000272534314997829 -0.000125609344049749 -8.2324879277144e-05 0.00059257994551229 -0.0100179862161255 -0.000517106774423086 -0.000116359362268543 -0.00102792198465543
"30" 0.000125060046739759 1.78538336508837e-05 0.000139817306100467 -2.66352345179777e-05 3.25875802379219e-05 -0.000141755858902491 6.34452600129445e-05 2.92730915236432e-06 -0.000287067583994628 -0.000117267347960256 -8.62105182628139e-05 0.00059007099633329 -0.00984059772657228 -0.000542827262905233 -0.000111033851524235 -0.00100432215984582
"31" 0.000131285576559937 2.35867558102709e-05 0.000148598589431779 -2.06439635106035e-05 3.35110319872079e-05 -0.000139422970872309 6.61740810801641e-05 4.05663694060658e-08 -0.000301409196062243 -0.000108645968690199 -8.98238620430991e-05 0.000586471438147294 -0.00963302162485853 -0.000567636106999278 -0.000105667094138583 -0.000978738905329158
"32" 0.000137748428547605 2.97739061445716e-05 0.000157900280349634 -1.42659671356928e-05 3.48131467242212e-05 -0.000136697220174597 6.89865321588452e-05 -2.89536574339839e-06 -0.000315488574463125 -9.98490361673255e-05 -9.31411476062432e-05 0.000581906992613855 -0.00940083738485638 -0.000591384899023986 -0.000100341024443668 -0.000951527420848198
"33" 0.000144460153205249 3.64209928391974e-05 0.000167747272862872 -7.52298269058994e-06 3.65417115974074e-05 -0.000133594752522101 7.18961491609574e-05 -5.84098080512307e-06 -0.00032925417979434 -9.09825274785674e-05 -9.61462941335016e-05 0.000576496695033299 -0.00914950426625666 -0.000613939777044046 -9.5144586861743e-05 -0.000923053359485452
"34" 0.000151431497347272 4.35286302215929e-05 0.000178168645418378 -4.30880637465079e-07 3.87333911138401e-05 -0.000130135026029714 7.49193446248303e-05 -8.75583919661275e-06 -0.000342655171085625 -8.21537337235594e-05 -9.88307543565299e-05 0.000570355689697804 -0.00888422751089397 -0.000635189225355841 -9.01562767063805e-05 -0.000893723220121495
"35" 0.000158671983029843 5.11006526188667e-05 0.000189192097368885 6.99537027196866e-06 4.14196390670259e-05 -0.000126331588418896 7.80807692571739e-05 -1.1599434978737e-05 -0.000355644697869263 -7.34645245891282e-05 -0.000101189842745509 0.000563599690225919 -0.00860987219695392 -0.000655052016054556 -8.5454831966143e-05 -0.000863961420937176
"36" 0.000166192659919196 5.91379051438104e-05 0.000200840499036426 1.47427112145805e-05 4.46354803350668e-05 -0.000122197212817353 8.1395810448952e-05 -1.43276845551387e-05 -0.00036818429706856 -6.50220228928498e-05 -0.000103230384082337 0.000556338573142117 -0.00833088209270767 -0.000673463342124403 -8.11248789938935e-05 -0.000834174543314347
"37" 0.000174008345922496 6.76379402302445e-05 0.000213144446716858 2.27962839400508e-05 4.84100503425001e-05 -0.000117748102785792 8.48966820527833e-05 -1.68955037544387e-05 -0.000380245279920666 -5.69282450572737e-05 -0.000104959044025126 0.000548677039462592 -0.00805125929532975 -0.000690386797991388 -7.72437146428642e-05 -0.000804786099597664
"38" 0.00018212343304653 7.66007948797021e-05 0.000226114101045608 3.11400908484899e-05 5.27643968135921e-05 -0.000112991708822865 8.85980294619098e-05 -1.92572461462904e-05 -0.000391799192193741 -4.92776869829752e-05 -0.000106390952249988 0.000540720403638781 -0.00777455712866257 -0.000705802937698106 -7.38816045627345e-05 -0.000776207242628529
"39" 0.000190545888682176 8.60215446811606e-05 0.000239766847425655 3.97661034214626e-05 5.77207230128201e-05 -0.000107943076450911 9.2532871451301e-05 -2.1371682274134e-05 -0.000402827619880297 -4.21578893771072e-05 -0.000107545927402133 0.000532568858462217 -0.00750387760863327 -0.000719719385962946 -7.11125313684402e-05 -0.000748825964488978
"40" 0.000199282448137487 9.58909859368748e-05 0.000254112177058399 4.86540686713571e-05 6.32914312772534e-05 -0.000102612048584734 9.67173162769462e-05 -2.31946539308212e-05 -0.000413313821165993 -3.56616598093645e-05 -0.000108440712544806 0.000524317033132474 -0.0072418883805147 -0.000732155421419924 -6.89919585883205e-05 -0.000723006725876175
"41" 0.000208339156251074 0.000106201022287721 0.000269154190954508 5.77978162682868e-05 6.94838157890763e-05 -9.70089333585751e-05 0.000101179312063416 -2.46867458382493e-05 -0.0004232542039185 -2.98573771128167e-05 -0.000109103256921759 0.000516059755762712 -0.00699085553938945 -0.000743160711100849 -6.75821696849437e-05 -0.00069908688829494
"42" 0.000217717038841182 0.000116933808029972 0.00028488939701033 6.71799827885982e-05 7.63047885592708e-05 -9.11468559913187e-05 0.000105938435739665 -2.58065515402937e-05 -0.000432643040257048 -2.4815181801716e-05 -0.000109557152303171 0.000507887293885437 -0.00675266783146364 -0.000752790372140209 -6.69317525286611e-05 -0.000677364748429343
"43" 0.000227415502626483 0.000128079512696074 0.000301307427900662 7.67870388189842e-05 8.3749117779863e-05 -8.50344704044699e-05 0.000111013368654729 -2.65243700683358e-05 -0.000441483870280552 -2.0594610508419e-05 -0.000109829551658637 0.000499887659775591 -0.00652886175886071 -0.000761126631389029 -6.70717858754148e-05 -0.000658122126413013
"44" 0.000237435029726466 0.000139614633159771 0.000318395251960919 8.66077599080408e-05 9.18095507072333e-05 -7.8681477326856e-05 0.000116422644360835 -2.68048142152651e-05 -0.000449782909170197 -1.72388455165028e-05 -0.000109946268144564 0.000492144583838042 -0.0063206610094411 -0.000768261051868128 -6.80425524626207e-05 -0.000641567884604089
"45" 0.000247771511530614 0.000151517952759805 0.000336124168563098 9.66259391736567e-05 0.000100473909423116 -7.21031339103656e-05 0.00012218568201314 -2.66217822875465e-05 -0.000457552761873306 -1.47839821571999e-05 -0.000109931825633565 0.000484736460461553 -0.0061290012857526 -0.00077429116248995 -6.98615979263605e-05 -0.000627893124070539
"46" 0.000258421197891258 0.000163766736104837 0.000354467759155829 0.000106828506361744 0.00010972252168771 -6.53068523266747e-05 0.00012830868880928 -2.59527280081931e-05 -0.000464811519922035 -1.32539003748598e-05 -0.000109814154297984 0.000477745164486264 -0.00595455157266511 -0.000779343812875106 -7.25385680371693e-05 -0.000617254060933307
"47" 0.00026937348570508 0.000176330316147767 0.000373386242752097 0.000117199342411876 0.000119530711915496 -5.83078823340299e-05 0.000134804948316567 -2.47746410374746e-05 -0.000471577852288987 -1.26567084099877e-05 -0.000109616440524756 0.000471242523558413 -0.00579774849997144 -0.000783536679927253 -7.60731303792782e-05 -0.000609737854957349
"48" 0.00028062302493046 0.000189182165183655 0.000392835101074483 0.000127726595157733 0.00012987142626531 -5.11160591475186e-05 0.000141681596145444 -2.30761469856917e-05 -0.000477879076579514 -1.29875692969957e-05 -0.000109362524187735 0.000465298714725975 -0.0056588030279406 -0.000787002701919907 -8.04494381063791e-05 -0.000605417904590555
"49" 0.000292155723381391 0.000202288932915481 0.000412757286094908 0.000138394917603475 0.000140707306744909 -4.374594470703e-05 0.000148942211432452 -2.08440800790104e-05 -0.000483739789456016 -1.4227354739007e-05 -0.0001090704612623 0.000459979651734455 -0.00553772630244038 -0.000789881475745137 -8.56486495871944e-05 -0.00060432262903414
"50" 0.000303964260770743 0.000215616148378478 0.000433102354600512 0.000149187728023617 0.000152002604605315 -3.62092562950397e-05 0.000156586272323494 -1.80770839840414e-05 -0.000489195184172805 -1.63491835481595e-05 -0.000108758566356317 0.000455351276632957 -0.00543434522231509 -0.000792317581380656 -9.16368500050396e-05 -0.000606443501414893
"51" 0.000316030954499668 0.0002291264606154 0.000453799330425777 0.0001600924441969 0.000163714384474103 -2.85213887108771e-05 0.000164609218375869 -1.47705962172677e-05 -0.000494280925014461 -1.93026858117915e-05 -0.000108441574785016 0.000451469994243833 -0.0053483165207012 -0.000794452864007712 -9.83665069824799e-05 -0.00061174591873044
"52" 0.000328344075962623 0.000242783403830813 0.000474780958968695 0.000171092537652738 0.000175794379615317 -2.06937370983318e-05 0.000173010777225379 -1.09327694787702e-05 -0.000499030836548081 -2.30289010587284e-05 -0.00010813395924692 0.000448392313048246 -0.00527913357591002 -0.00079643157380898 -0.000105784833329102 -0.000620159012501166
"53" 0.000340887917751498 0.000256550150077613 0.000495974291601158 0.000182177168195832 0.000188193798391195 -1.27438775195333e-05 0.000181776814744388 -6.57021965671032e-06 -0.000503487204326651 -2.74550866121824e-05 -0.000107844325212647 0.000446169848185338 -0.00522614321038656 -0.000798401759155831 -0.000113822196823888 -0.000631604423832329
"54" 0.000353644998261469 0.000270386222879575 0.00051729968279397 0.000193329135043951 0.000200861583638222 -4.6853365197793e-06 0.000190895705663392 -1.6961374717723e-06 -0.000507692917116665 -3.25006986521054e-05 -0.000107578106816876 0.000444850290743436 -0.00518854736453097 -0.000800501398288855 -0.000122412723327296 -0.000645964349687178
"55" 0.000366597536441122 0.00028425212696672 0.000538675618250956 0.000204535750128259 0.000213746216641741 3.46818676355784e-06 0.000200349852449289 3.66880168198368e-06 -0.000511689248420415 -3.80647861790346e-05 -0.00010733855990713 0.000444474793187156 -0.00516542576353146 -0.000802865772810628 -0.000131468260153156 -0.000663115464350213
"56" 0.000379730125029965 0.000298109317201759 0.000560017503542149 0.000215786728531486 0.000226786353608723 1.16966193176859e-05 0.000210122568663856 9.50353199561201e-06 -0.000515523564842911 -4.40362372919816e-05 -0.000107129516212953 0.000445084516651991 -0.00515572870034915 -0.000805626272093127 -0.000140896831965292 -0.000682924086868825
"57" 0.000393027416966807 0.00031191934838457 0.00058123904674181 0.000227068704661435 0.00023992762514084 1.99892118038776e-05 0.000220188927804023 1.57797215793272e-05 -0.00051924168704249 -5.03008484686247e-05 -0.000106947085186135 0.000446710225684017 -0.00515829059839352 -0.000808907561080827 -0.00015061419075972 -0.000705225409415106
"58" 0.000406468491552213 0.000325642253641112 0.000602259246323964 0.000238370357300901 0.000253115832364053 2.83222619773613e-05 0.000230525552546817 2.24689702335544e-05 -0.000522886406363466 -5.67360054079477e-05 -0.000106786157944279 0.000449381489953775 -0.00517185157997515 -0.000812820182793596 -0.000160510704436112 -0.000729866130162271
"59" 0.000420040167937932 0.000339244106720892 0.000622991161604089 0.000249679346814438 0.000266292626165938 3.66853231878023e-05 0.000241104623003763 2.95329947641243e-05 -0.000526505629049392 -6.31982456980191e-05 -0.000106642931313264 0.000453124116387595 -0.00519505222537384 -0.000817472135765146 -0.000170485384868953 -0.000756692979915728
"60" 0.000433720796475203 0.000352691232221111 0.000643346758874261 0.000260988097986927 0.000279399931448095 4.50557595539011e-05 0.00025189782325459 3.69382140396414e-05 -0.000530144210208072 -6.95554191998763e-05 -0.000106506624284393 0.000457954200153558 -0.00522645051781508 -0.000822951821966189 -0.000180433394659879 -0.000785539751601699
"61" 0.000447499047952517 0.000365949543456982 0.000663252423079805 0.000272289463804149 0.000292381915044803 5.34194098521497e-05 0.000262868979633224 4.46418853027449e-05 -0.00053384770036872 -7.56585637079172e-05 -0.000106366647228912 0.000463888432111709 -0.00526453446461326 -0.00082934338466737 -0.000190243922861575 -0.000816256788667768
"62" 0.000461356335704691 0.00037899079763069 0.00068262504306 0.000283570325132624 0.000305191037696639 6.17574551652857e-05 0.000273984070778709 5.25986779359927e-05 -0.000537657352494844 -8.1363655666713e-05 -0.000106211291033565 0.000470932161108874 -0.00530773213938035 -0.000836709528189952 -0.000199811685728875 -0.000848685815338768
"63" 0.000475280722087445 0.000391785004742375 0.000701395600529458 0.000294828404699411 0.000317772398957321 7.00507600380976e-05 0.00028520905443991 6.07638364016693e-05 -0.00054161736369471 -8.65215040983334e-05 -0.00010602738355462 0.000479087930329234 -0.00535442569746751 -0.000845108221207314 -0.000209030561520564 -0.000882685195779216
"64" 0.000489255104881808 0.000404312937106239 0.000719494741083947 0.00030605647172853 0.000330080631781472 7.82832718750484e-05 0.000296505781864353 6.909089219039e-05 -0.000545763894452873 -9.09878248189001e-05 -0.000105801927467866 0.000488352269805702 -0.00540297398724027 -0.000854571933051774 -0.000217797765144504 -0.000918119850467637
"65" 0.000503268073635202 0.000416552558853007 0.000736864834135195 0.00031724729743782 0.000342072948616286 8.64320890924436e-05 0.00030783494279966 7.75291625593812e-05 -0.00055013184056056 -9.46170200654523e-05 -0.000105517884827778 0.000498716153434469 -0.00545172804326168 -0.000865123478662676 -0.000226015154110153 -0.000954859305974717
"66" 0.000517308574784069 0.000428486828835929 0.000753445022513689 0.000328398437966784 0.000353705896056117 9.44855952923552e-05 0.000319157602125199 8.60295042589553e-05 -0.000554752858836013 -9.726730605398e-05 -0.000105161985438891 0.000510161352097489 -0.00549905194027239 -0.000876769929727734 -0.000233584015951543 -0.000992803076027604
"67" 0.000531365412924585 0.00044010384165992 0.000769196575144423 0.000339506012096164 0.000364950625723973 0.000102423252106763 0.00033042946208763 9.4542803053532e-05 -0.000559657053114054 -9.88139027503863e-05 -0.0001047140150842 0.000522664531390103 -0.00554333556468632 -0.000889493755191233 -0.000240421829058974 -0.00103183430339275
"68" 0.000545423621474609 0.000451393361027758 0.000784077759210159 0.000350564067541971 0.000375770223123263 0.000110226430310018 0.000341614018988315 0.000103016462757285 -0.0005648677432749 -9.91294163684875e-05 -0.000104164000614959 0.000536196789709299 -0.00558302988870638 -0.000903265634806656 -0.000246447667981519 -0.00107187174836483
"69" 0.000559480680230628 0.000462353896711972 0.000798061930583605 0.000361573918400444 0.000386141175710449 0.00011787875441973 0.000352669154263711 0.000111400553926173 -0.000570402936265945 -9.81019164859879e-05 -0.000103494570101363 0.000550721300723112 -0.00561666292107319 -0.000918037828633178 -0.000251585056249904 -0.0011128487446202
"70" 0.000573518508203906 0.000472983752780681 0.000811125188010376 0.000372527246085012 0.000396043490462693 0.00012536635469579 0.00036355511320245 0.000119649814517594 -0.000576274081383645 -9.56255982585151e-05 -0.000102690143702001 0.000566195235583349 -0.00564286045618908 -0.000933744058960471 -0.0002557746539973 -0.00115470033276693
"71" 0.000587531412012437 0.000483286054318586 0.000823258529695952 0.000383427005363842 0.000405461630660541 0.000132673049706171 0.000374228589278102 0.000127712182752888 -0.000582491049637994 -9.16189221136773e-05 -0.000101738084742725 0.000582566561322802 -0.00566037477337752 -0.000950297908102709 -0.000258962221495407 -0.00119737992732029
"72" 0.000601511004563784 0.000493269409892072 0.000834461136495404 0.000394267368932914 0.00041438735708017 0.000139781415217078 0.000384651845639689 0.000135548659712002 -0.000589050924195355 -8.60101074543841e-05 -0.000100628186156807 0.000599780462671746 -0.00566809865390924 -0.000967598600896437 -0.000261103130759932 -0.00124086269842897
"73" 0.000615447763578917 0.000502945362354215 0.000844740468099802 0.000405045899076446 0.000422817375211292 0.000146682200633842 0.000394784646146337 0.000143111160676822 -0.000595954990800844 -7.87388559559526e-05 -9.93448159145486e-05 0.000617767726003342 -0.00566508658371488 -0.000985528525848396 -0.000262170417999488 -0.00128512715401928
"74" 0.000629334850574021 0.000512329473180333 0.000854118577659949 0.00041576121112063 0.000430751937140193 0.000153357159691985 0.000404591944933364 0.000150360820813228 -0.000603187108352265 -6.97721518801374e-05 -9.7881498622462e-05 0.000636460351916816 -0.00565057178159921 -0.00100395092194528 -0.000262143364158724 -0.0013301583257647
"75" 0.000643156427283714 0.000521440286377251 0.000862617458703831 0.000426404831019619 0.000438197969144462 0.000159800933763477 0.000414037546231849 0.000157260120816178 -0.000610733642945082 -5.90902044057652e-05 -9.62323009384672e-05 0.000655778595405969 -0.00562397543491416 -0.00102271937690363 -0.000261014984040286 -0.00137596591746562
"76" 0.000656907014950444 0.000530299937576927 0.000870279186767728 0.000436977836574745 0.000445170581273422 0.000166000253570966 0.000423084148257857 0.00016377643316511 -0.000618567608390786 -4.66990442148798e-05 -9.43892293554791e-05 0.000675636125955555 -0.00558491769329233 -0.00104166717387606 -0.000258793814777418 -0.00142254653183866
"77" 0.000670575394920958 0.000538932763914884 0.000877142144267274 0.000447471657610737 0.000451687657852473 0.000171946881477902 0.000431704558404451 0.000169878420331446 -0.000626658390037339 -3.26151972520976e-05 -9.23532372482123e-05 0.000695942868735618 -0.00553321808167965 -0.00106062864568659 -0.000255497290970042 -0.00146993310849365
"78" 0.000684145776695674 0.000547365454906241 0.00088326046726771 0.000457879444341638 0.000457768206986348 0.000177632221418092 0.000439864030457816 0.00017554158194431 -0.000634971024864075 -1.6889002268783e-05 -9.01238269442024e-05 0.000716600260684275 -0.00546889750765515 -0.00107941924131095 -0.000251161101094262 -0.00151813273330802
"79" 0.000697609328009046 0.000555627714362451 0.000888697321891678 0.000468192293106921 0.000463441966291339 0.000183051243677544 0.000447538078491155 0.000180738472413401 -0.000643468693130307 4.11955484484074e-07 -8.77069533553737e-05 0.000737502554121538 -0.00539217738611514 -0.00109784935019503 -0.000245839196922212 -0.00156715579832086
"80" 0.000710946674736622 0.000563748000906984 0.000893516848407961 0.000478407217559253 0.000468736019712621 0.000188197522121348 0.000454698851592886 0.000185454281438537 -0.000652095204724737 1.92038863572383e-05 -8.51119333490803e-05 0.000758542622345479 -0.00530346372585388 -0.00111573518021191 -0.000239584849409454 -0.00161703348570752
"81" 0.000724145283458382 0.000571758939277969 0.0008977880143687 0.000488507649202372 0.000473686850271678 0.000193071535602712 0.000461325214467442 0.00018967193684182 -0.000660808935462304 3.93753726173556e-05 -8.23487147731034e-05 0.000779605323655757 -0.00520333723805332 -0.00113288372728112 -0.000232481028716081 -0.00166775790038095
"82" 0.000737187191067251 0.000579691898613105 0.000901592835323213 0.000498482395841343 0.000478329125510968 0.000197664178300937 0.000467400472991743 0.00019338353818112 -0.000669548918979556 6.07890892848089e-05 -7.94389192790712e-05 0.000800570959312064 -0.00509253146976538 -0.0011491090885199 -0.000224621100273845 -0.00171932710085429
"83" 0.000750047645434849 0.000587579403051659 0.000905006481525327 0.000508322254211086 0.000482699813528923 0.000201979317685285 0.000472902837905139 0.000196577988395739 -0.000678263911062614 8.3295571561953e-05 -7.64035878638706e-05 0.000821314490995986 -0.00497193195755828 -0.00116423602498174 -0.000216101958188236 -0.00177174261333859
"84" 0.000762708743692557 0.000595450305271806 0.000908112632339462 0.000518010093164659 0.000486840896726319 0.000206014277940062 0.00047782194483256 0.000199254986555045 -0.000686889030173918 0.000106720664843281 -7.32713252249276e-05 0.000841713455826797 -0.00484253674316744 -0.00117809728492098 -0.00020704578629106 -0.00182496440881934
"85" 0.00077514666182214 0.000603335641104067 0.000910998077070762 0.000527529633078494 0.000490788681025604 0.000209772153030815 0.000482149622379035 0.000201414358704894 -0.000695368007542306 0.000130872788911518 -7.007275857579e-05 0.000861634784728635 -0.00470544667424409 -0.00119053466158466 -0.000197585614136221 -0.00187894398895227
"86" 0.000787337186131293 0.000611262558560289 0.000913744768820887 0.000536865539505947 0.000494586977077926 0.000213254332307683 0.000485878278091124 0.000203061630860989 -0.000703640169939505 0.000155538523623537 -6.68492253377929e-05 0.000880951805187762 -0.00456184047091473 -0.00120142018600575 -0.000187860943563804 -0.00193362940113894
"87" 0.000799250799415677 0.000619255395094364 0.000916440778221071 0.000545996245586316 0.000498269981618679 0.000216466118856086 0.000489003622016086 0.000204202645961067 -0.000711645238048648 0.000180493964077964 -6.36467503918031e-05 0.000899528981136765 -0.00441295433526483 -0.00121063755717589 -0.000178023329711491 -0.00198893761470675
"88" 0.000810858301168495 0.000627337442362031 0.000919170284966856 0.00055490160959345 0.000501880452375353 0.000219406250320721 0.000491526877747929 0.000204850535233228 -0.000719326169633189 0.000205496851391602 -6.05102537119049e-05 0.000917237725420463 -0.00426006266030189 -0.00121809405609928 -0.000168234720650956 -0.00204475455956509
"89" 0.000822133565831157 0.000635527241923739 0.000922007032418851 0.000563564949120305 0.000505450728480841 0.000222086037784688 0.000493454420016507 0.000205018218856847 -0.000726626235136788 0.000230296254859507 -5.74982947931814e-05 0.000933945768250235 -0.00410446656919442 -0.00122373323404142 -0.000158659374299574 -0.00210097209725767
"90" 0.000833037796194783 0.000643843506570358 0.000925034562641923 0.000571963545591248 0.00050901256121334 0.000224505975053246 0.000494793448721374 0.00020472209747403 -0.00073349623346354 0.00025462733662726 -5.46690406364488e-05 0.000949526544977117 -0.00394745519266797 -0.00122751688952404 -0.000149476966565116 -0.00215744122386877
"91" 0.000843544294928092 0.000652292957883169 0.000928321144208411 0.000580069747016786 0.00051259924921189 0.000226675372423676 0.000495556932723161 0.000203984415077926 -0.000739889432171266 0.000278227009443923 -5.20837584561747e-05 0.000963853393581592 -0.0037903164434507 -0.00122943843017623 -0.000140855244260147 -0.00221399767497477
"92" 0.000853616360920495 0.000660884897462752 0.000931932725567364 0.000587865299579817 0.000516231442414739 0.000228601221812224 0.000495755079036483 0.000202824938932052 -0.000745764392076581 0.000300821721969793 -4.98093373841145e-05 0.000976807339370695 -0.00363430873539544 -0.00122952599494614 -0.000132963872724273 -0.00227049074479667
"93" 0.000863220166602625 0.000669621165788684 0.000935930225631537 0.000595324954974344 0.0005199377262526 0.000230288351692246 0.000495411758672176 0.000201272241005971 -0.000751084682301097 0.000322136887376083 -4.79150559964885e-05 0.000988271060010617 -0.00348064542643536 -0.00122783660565931 -0.000125984947957205 -0.00232673249360293
"94" 0.000872320544866209 0.000678497454468061 0.00094036270434454 0.000602424213384858 0.000523732415451783 0.000231747629118948 0.000494544971353283 0.00019935197128342 -0.000755821975232366 0.000341901712711543 -4.64663428223187e-05 0.000998137066578779 -0.00333049717334304 -0.00122445483056728 -0.000120072043057987 -0.00238254327449001
"95" 0.000880885223365441 0.000687509265661614 0.000945277353612306 0.000609136672509829 0.000527623948602622 0.000232988363765291 0.000493181860170423 0.000197093502771557 -0.000759951513013936 0.000359854474981801 -4.55355902452518e-05 0.0010063049096403 -0.00318496850033435 -0.00121949899401003 -0.000115387870283335 -0.00243774562039597
"96" 0.000888878392638803 0.000696636593614465 0.000950700476854122 0.000615442183696901 0.000531626455228691 0.00023401844965299 0.00049135019876283 0.000194530968692041 -0.000763463297675805 0.000375739342901192 -4.51891406285308e-05 0.00101267966148396 -0.00304510843767861 -0.00121311621922566 -0.000112061956152215 -0.00249218190953166
"97" 0.000896271082660948 0.000705864496913311 0.000956663149144377 0.000621314932422628 0.000535739838376202 0.000234849849811209 0.000489082534110499 0.000191696365754278 -0.000766345006442773 0.000389315175806037 -4.54895156591952e-05 0.00101718219955164 -0.00291188681304641 -0.00120546787629026 -0.000110226672035344 -0.00254567437472923
"98" 0.000903027567646334 0.000715168980096199 0.0009631712132331 0.000626732851053047 0.000539962919473593 0.000235494804654081 0.000486409982128882 0.000188628437151182 -0.000768598305370886 0.000400362087626257 -4.64994648787572e-05 0.00101973639341694 -0.00278619899972849 -0.00119675413247849 -0.000109982298726922 -0.00259811258956897
"99" 0.000909119646332375 0.000724516226921035 0.000970233051008083 0.000631670715713084 0.000544284951048134 0.000235962196209436 0.000483366794817056 0.00018536486508381 -0.00077022978072675 0.000408670144092059 -4.82692509364164e-05 0.00102028423092012 -0.00266886484394942 -0.00118718364480089 -0.000111408358705709 -0.00264936733285327
"100" 0.000914525152335849 0.000733877334675365 0.000977837229272713 0.000636109063415166 0.000548697778438779 0.000236265985498211 0.000479996920455587 0.000181947410783549 -0.000771251937291138 0.00041406225297288 -5.08483092535475e-05 0.0010187772252431 -0.00256061202640746 -0.00117698066135086 -0.000114568380640317 -0.00269935046766672
"101" 0.000919211460268347 0.000743207622691572 0.000985959378982161 0.000640027795462834 0.00055318297179273 0.000236421176919008 0.00047633412638982 0.000178418504878359 -0.000771695243314925 0.000416386928947226 -5.4273059456665e-05 0.00101518002780199 -0.00246208786463632 -0.00116638453623566 -0.000119484494057179 -0.00274801794652719
"102" 0.000923166449373457 0.000752464937510895 0.000994573118880976 0.000643405976560341 0.000557719090258311 0.000236441871880102 0.000472420646980673 0.000174822551418878 -0.000771580978780396 0.000415521933801197 -5.85730452531405e-05 0.00100947400723594 -0.002373851176138 -0.00115564232237445 -0.000126149732965905 -0.00279534562033231
"103" 0.00092637102418428 0.000761603546705095 0.00100362976459526 0.000646230636975412 0.000562277327668496 0.000236344817409031 0.000468301028987371 0.000171205918628596 -0.000770951833720429 0.000411375083984512 -6.37671240452774e-05 0.00100165517544747 -0.00229636620364433 -0.00114500952850868 -0.000134533304197577 -0.00284135886489361
"104" 0.000928813138313109 0.000770566394102378 0.00101307587411934 0.00064848460710935 0.000566833756164415 0.000236147402537052 0.000464017062555101 0.000167618433102862 -0.000769847883575198 0.000403893344530644 -6.98611457926716e-05 0.000991728316990386 -0.00223001047302492 -0.00113473128448206 -0.000144572076015641 -0.00288609446414749
"105" 0.000930484190026271 0.000779301219483887 0.00102284764519593 0.000650154498159416 0.00057135096630524 0.000235862864468662 0.000459613884106944 0.000164106518081117 -0.000768320449723586 0.000393060672266826 -7.68475381926992e-05 0.000979724724647501 -0.00217506569313452 -0.00112505868987898 -0.000156150703249138 -0.00292965714008837
"106" 0.000931385048727256 0.000787750068840403 0.00103286353742009 0.00065122932294417 0.000575792374454414 0.000235511715514486 0.000455134628024045 0.000160723340303689 -0.00076642389107512 0.000378895050800393 -8.47063659944009e-05 0.000965680627196206 -0.00213171303670625 -0.0011162348580658 -0.000169150564752426 -0.00297213757587164
"107" 0.000931518905140686 0.000795852004491676 0.00104304108642556 0.000651706392059644 0.000580120201352495 0.000235109087707635 0.000450623690582319 0.00015751526370847 -0.000764221372673079 0.000361461565435456 -9.34076444363077e-05 0.00094965755705002 -0.00210004821423665 -0.00110848672959415 -0.000183388251065649 -0.00301368524892656
"108" 0.000930891661570554 0.000803544304874681 0.00105328248498391 0.000651577154614731 0.000584290931843036 0.000234680110633317 0.00044612037602711 0.000154538593812093 -0.000761773915982738 0.000340865029907417 -0.000102904605075226 0.000931727839582401 -0.00208006308527368 -0.00110203918930167 -0.00019866828326141 -0.00305446935756879
"109" 0.000929519830900903 0.000810765636907507 0.00106348763123474 0.00065084258761856 0.000588257455295775 0.000234236530961042 0.000441669079615726 0.00015184081117837 -0.000759159704242105 0.000317242074289093 -0.000113139128732132 0.000911982037365586 -0.0020716554618029 -0.00109709294041423 -0.000214758163177363 -0.00309465264993752
"110" 0.000927425444804881 0.000817452906492118 0.00107354694096193 0.0006495065557518 0.000591980659055201 0.000233799994477245 0.000437312920365553 0.000149469076178975 -0.000756451126474009 0.00029077811970366 -0.000124039042150223 0.000890524770543236 -0.00207461644521281 -0.00109384116422963 -0.000231401127611181 -0.00313442494277795
"111" 0.000924639430259151 0.000823544235156206 0.00108334180254973 0.000647570643158557 0.000595406061636689 0.000233384924219082 0.00043308650113355 0.000147472693839992 -0.000753726580127892 0.000261696974458989 -0.0001355180570349 0.000867479688463155 -0.00208864733905191 -0.00109244816752477 -0.000248306483518424 -0.00317395222781835
"112" 0.000921187935681479 0.000828977553375964 0.00109275237418386 0.000645050603434052 0.000598487418435087 0.000233010409440866 0.000429029750042684 0.000145899463059608 -0.000751069439165542 0.000230249648929818 -0.000147484886347345 0.00084297869275322 -0.00211334992121462 -0.00109306792572176 -0.00026516748325228 -0.0032134012396647
"113" 0.000917117935003237 0.0008336955903175 0.00110165629105736 0.0006419572883818 0.000601174367625485 0.000232689591034924 0.000425177010240561 0.000144786338705776 -0.000748562402700238 0.000196731661596076 -0.000159832390600218 0.00081717639966692 -0.00214823286885964 -0.00109583639104828 -0.000281655650683345 -0.00325292202561776
"114" 0.000912469710768893 0.000837636475588024 0.00110993013115511 0.00063830984553806 0.000603420763375795 0.000232434196293642 0.000421558069467219 0.000144174136979579 -0.000746297664979736 0.000161470973948397 -0.000172441902538036 0.000790231361686553 -0.00219270240029892 -0.00110085742179686 -0.000297429417467613 -0.00329260985661565
"115" 0.00090729387745247 0.000840751109122513 0.00111744960182612 0.000634133300666547 0.00060517595509745 0.000232256663835417 0.000418204065391875 0.000144097531832291 -0.000744356961087999 0.000124813941575924 -0.000185191096934465 0.000762322211988835 -0.00224608456136343 -0.00110822894713456 -0.000312127519678508 -0.00333254288121961
"116" 0.000901650870749323 0.000842989610393449 0.00112409753192257 0.00062944922600068 0.000606391104157821 0.00023216292242072 0.00041514164946379 0.000144584411617185 -0.00074283397494517 8.71420334652202e-05 -0.000197948334055756 0.000733632049180809 -0.00230761138013014 -0.00111801912132261 -0.000325395831735687 -0.00337271703439821
"117" 0.000895599567681899 0.000844303853212893 0.00112974914844066 0.000624295438369937 0.000607020314736441 0.000232158055728301 0.000412387725214476 0.000145655123602173 -0.000741818493299026 4.88587966284745e-05 -0.000210577826990028 0.000704357209004336 -0.00237643948535156 -0.00113028286859438 -0.000336858534252737 -0.00341309118588167
"118" 0.000889204882474894 0.000844657925229568 0.00113429779205226 0.000618703159654076 0.000607019593515259 0.000232242427687169 0.00040996682190137 0.000147329099876553 -0.000741397356080681 1.03734746969485e-05 -0.000222934315532269 0.000674696103852018 -0.00245164504343099 -0.00114505424234168 -0.000346156189184049 -0.00345352509355563
"119" 0.000882534647238862 0.000844015362778474 0.00113763140322503 0.000612712833864109 0.000606346281821194 0.000232418927424309 0.000407893572981015 0.000149615606092513 -0.000741663005540496 -2.78812136256008e-05 -0.000234875441961453 0.000644859721414643 -0.00253223825782235 -0.00116234497669716 -0.000352926696942847 -0.00349380579392246
"120" 0.000875661140401633 0.000842349165090644 0.00113966105582842 0.00060637163622327 0.000604956837460219 0.000232677609158236 0.000406176779501296 0.000152517182100316 -0.00074269737107736 -6.54674113940637e-05 -0.000246254167755882 0.000615059953483002 -0.0026171680584923 -0.00118215676000143 -0.000356815797481632 -0.00353363380145058
"121" 0.000868660449656154 0.000839639680346861 0.0011402916410586 0.000599721009606118 0.000602820577825163 0.000233010214356753 0.000404827288644415 0.000156027646419108 -0.00074458425587157 -0.000101948070805901 -0.000256921631246733 0.000585510631730703 -0.00270533646548406 -0.00120446485833767 -0.000357486953972915 -0.00357258367830363
"122" 0.000861605775256333 0.000835868833469142 0.00113945304258759 0.000592817525989526 0.000599899876214389 0.000233405137084911 0.000403845236482409 0.000160138287682649 -0.000747401487473993 -0.000136878767771885 -0.000266735529510951 0.000556424418784317 -0.00279560705380101 -0.00122923418166251 -0.000354610417482207 -0.00361015841083211
"123" 0.000854577191391803 0.000831035043103633 0.00113707999138884 0.000585713216630171 0.000596165664860874 0.000233844343555009 0.000403236684169581 0.000164831911868053 -0.000751220895034 -0.000169827211983859 -0.000275547685550018 0.000528016745447332 -0.002886819792397 -0.00125640542704907 -0.000347889693337005 -0.00364570581055612
"124" 0.000847653643914236 0.000825138454982386 0.00113312357454881 0.000578465650415841 0.00059159972036029 0.000234311750637561 0.000402993508920814 0.000170078699768827 -0.000756110929842009 -0.000200367574687512 -0.00028322130226619 0.000500493009296692 -0.00297779760545677 -0.00128590480356348 -0.000337035115674832 -0.00367846767914136
"125" 0.000840905608476787 0.000818189358731132 0.00112754811961812 0.000571134225538205 0.000586177432059339 0.000234784360672838 0.000403113680866836 0.000175849488132304 -0.000762128717602052 -0.000228086260529273 -0.00028961787765564 0.000474058652535684 -0.00306737418449898 -0.00131764018400464 -0.0003217843211236 -0.00370757625890877
"126" 0.000834414541602941 0.000810204692493071 0.00112033384811542 0.000563780953957105 0.000579889209029851 0.000235235229983871 0.000403582288551253 0.000182106811980842 -0.000769325085921218 -0.000252595108771378 -0.000294607864378613 0.000448904500187331 -0.00315439303097328 -0.00135149343671578 -0.000301907030337456 -0.00373199570120504
"127" 0.000828252949619542 0.000801210041391217 0.00111147456170233 0.000556467609267512 0.00057272495408603 0.000235641757819274 0.000404392725682139 0.000188806850761898 -0.000777739714719619 -0.000273516142344783 -0.000298068233285435 0.00042521780485133 -0.00323773367084851 -0.00138733392363786 -0.000277192323507036 -0.00375059110906863
"128" 0.000822489915433063 0.000791241694001032 0.0011009837113608 0.000549260474757243 0.000564690965398389 0.000235974293168252 0.000405526510218354 0.000195904116936762 -0.000787401774912993 -0.000290505594310247 -0.000299878389330449 0.000403170649299755 -0.00331632550247323 -0.00142500346926295 -0.000247454260823028 -0.00376207224218854
"129" 0.000817196911817987 0.000780339882814712 0.00108889116513527 0.000542220345206476 0.000555787072330573 0.000236205774326347 0.000406965156897084 0.000203346375564609 -0.000798325392711158 -0.000303239759119763 -0.000299928778978113 0.000382918530889095 -0.00338915447483427 -0.00146431168989112 -0.000212547464543688 -0.0037650026952997
"130" 0.000812432197956295 0.000768556656445986 0.00107523389442143 0.000535407866137966 0.00054603065358548 0.000236307742956114 0.000408689494498566 0.000211081471056014 -0.00081051469355157 -0.000311431112541376 -0.000298113747688167 0.000364607624855277 -0.00345528201431677 -0.00150505266292659 -0.000172337489377294 -0.00375783874561716
"131" 0.00080825917320853 0.000755947620019315 0.00106007076202295 0.000528890725815929 0.000535444875309501 0.00023625705420849 0.000410675817498308 0.00021905241690356 -0.000823956743294878 -0.000314822572171786 -0.000294340454313451 0.000348359897249327 -0.00351386210314813 -0.00154698505170046 -0.000126731114281299 -0.00373888174199005
"132" 0.000804727224355258 0.000742577237738255 0.00104347612432181 0.000522725038426279 0.000524059640149447 0.000236023384945622 0.000412900696441227 0.000227204384525924 -0.000838625686611891 -0.000313192606194229 -0.000288515477591254 0.000334281017021823 -0.00356414284088124 -0.0015898338509513 -7.56556915969096e-05 -0.00370630463604094
"133" 0.000801883458616232 0.000728516633329976 0.00102553180867719 0.00051696598888059 0.000511911065713474 0.000235589895623733 0.000415340410350685 0.000235482249728823 -0.000854479048046378 -0.000306354885913305 -0.000280561669818507 0.000322458965510627 -0.00360548600774476 -0.00163329576162321 -1.90652730173898e-05 -0.00365817424282788
"134" 0.000799768660567974 0.000713842401361633 0.00100633936380302 0.000511669385258259 0.000499045150891658 0.00023493233894599 0.000417962583626257 0.00024382897780127 -0.000871453820952789 -0.00029416568740181 -0.000270404823105996 0.000312955169255755 -0.00363736188497165 -0.00167702720783625 4.30494639394044e-05 -0.00359241351417312
"135" 0.00079841315020282 0.000698637412317541 0.000986006769386158 0.000506882695985506 0.000485516847138374 0.0002340350112337 0.000420740764314777 0.000252193694872177 -0.000889477106607248 -0.000276521928861744 -0.000257977091251411 0.000305811701170105 -0.00365937044472797 -0.00172064468901833 0.000110688391765579 -0.00350686755924371
"136" 0.000797842106495674 0.000682985701441759 0.000964652123732705 0.000502650128733849 0.000471390098575838 0.00023289152344853 0.000423644787662993 0.000260523276886908 -0.000908453969378396 -0.000253355960982851 -0.000243221960214536 0.00030104746237359 -0.00367122697107911 -0.0017637311776793 0.000183809736824361 -0.00339928439609577
"137" 0.000798064400289634 0.000666979132404085 0.000942404919997423 0.000499006269290194 0.000456734949850846 0.000231491810701102 0.000426642939856256 0.000268770164604232 -0.000928273220373305 -0.000224650533127283 -0.000226084773232385 0.000298655312182706 -0.00367277965422685 -0.00180582592537538 0.000262355816838288 -0.00326734027048323
"138" 0.000799088352427184 0.000650709828824533 0.00091939291232884 0.000495984630184098 0.000441626438870129 0.000229833100272596 0.000429706166488593 0.000276890155954684 -0.000948803784212009 -0.000190429122649516 -0.00020652423919088 0.000298606315094793 -0.00366399838221198 -0.00184643930324181 0.000346239626449918 -0.0031087056907299
"139" 0.000800911830808716 0.00063427194300163 0.000895760278650599 0.000493610142975077 0.000426149101141783 0.000227920027988335 0.000432797406447097 0.000284841006822002 -0.000969902787048102 -0.00015075290847029 -0.000184502838848551 0.000300848263091506 -0.00364497275890153 -0.00188503361522372 0.000435347884506366 -0.00292101258069777
"140" 0.000803514359921748 0.000617758879044416 0.000871646209914241 0.000491899175487144 0.000410395555774881 0.000225763819419753 0.000435885618898206 0.000292587932136089 -0.000991415045347895 -0.000105735324601974 -0.000159994107973429 0.000305301521643145 -0.0036159083129332 -0.00192104104559575 0.000529539837115225 -0.00270193989290119
"141" 0.00080687228915211 0.000601268061395255 0.000847194812615273 0.000490859215275663 0.000394463615878154 0.00022337567426558 0.000438938245676543 0.000300092074693949 -0.00101316300930542 -5.5531881788528e-05 -0.000132976818984379 0.000311867821703489 -0.00357712227524689 -0.00195387122629124 0.000628641756914663 -0.00244925978288808
"142" 0.000810952433166716 0.000584891807256594 0.000822551496695254 0.000490489552289885 0.000378448859361187 0.000220777752892118 0.000441917155225468 0.000307329123376403 -0.00103495922183703 -3.38701276992947e-07 -0.000103446699934718 0.00032042548215925 -0.00352903121091169 -0.00198290384650768 0.000732453159092331 -0.00216090343067879
"143" 0.000815705780958628 0.000568721095969769 0.00079785340916701 0.0004907846548013 0.000362459195794441 0.000217993885568674 0.000444791221096434 0.000314270032526657 -0.00105660771859095 5.96020834545538e-05 -7.14095966103614e-05 0.000330831809853719 -0.00347213900871438 -0.00200750530875914 0.000840740486644139 -0.00183501578261927
"144" 0.000821073610175185 0.000552841841580593 0.000773242821543769 0.000491727232025237 0.000346596952717586 0.000215051829521249 0.00044752723403327 0.000320887661806992 -0.00107790260096608 0.000124008163924968 -3.68834660317056e-05 0.000342926738696785 -0.00340703629233009 -0.00202704541161136 0.000953228932751028 -0.00147007380368443
"145" 0.000826989899971276 0.000537337290454743 0.000748851788525651 0.000493290626568136 0.000330976241385783 0.000211981086693778 0.000450091320596875 0.000327163255463703 -0.00109863895235142 0.000192553420298534 9.71891456230625e-08 0.00035652982482999 -0.00333437114879282 -0.00204089233942619 0.00106959598600495 -0.00106493336004189
"146" 0.000833378228833251 0.000522283873610912 0.000724804902226796 0.000495443506180695 0.00031569763615763 0.000208817713985905 0.000452446004722674 0.000333073240985717 -0.00111859953254868 0.000264876592978551 3.94706566574946e-05 0.000371449399268675 -0.00325485999407036 -0.00204843607490639 0.00118949594688854 -0.000619014203776243
"147" 0.000840155247699632 0.000507751158741358 0.000701229890219088 0.000498144389757903 0.000300870513592131 0.000205595641194759 0.000454564643213865 0.000338598003523346 -0.00113756862221004 0.000340572406249308 8.11601315668048e-05 0.000387479061120777 -0.00316925373003598 -0.00204910770054739 0.00131250713796448 -0.000132358129750802
"148" 0.000847226583105777 0.00049380513041117 0.000678234665575553 0.000501347405810881 0.000286591776239819 0.000202349263606601 0.000456416654902114 0.00034371541882831 -0.00115533782840844 0.000419209892254499 0.00012505963071096 0.000404405417297817 -0.00307833728251946 -0.00204238525302528 0.00143817819099133 0.000394197619412107
"149" 0.000854486460538898 0.000480493687610464 0.000655923176103588 0.000504996476041291 0.000272955869691125 0.000199113785195988 0.000457971228626431 0.000348403760010806 -0.00117170637662862 0.000500322552241668 0.000171034559889236 0.000422005679448502 -0.00298291389281945 -0.00202781111945939 0.00156599701806424 0.000958892343030477
"150" 0.000861831760719374 0.000467867550660493 0.000634392024759169 0.00050903140316681 0.000260055903831658 0.000195923845360521 0.000459200551024358 0.000352636927950885 -0.00118647916693427 0.000583409427611284 0.000218919521287426 0.000440054133824745 -0.00288379614869368 -0.00200501118580327 0.00169538797391511 0.00155893790392417
"151" 0.000869147656151777 0.000455955100501239 0.000613721482724235 0.000513389867186713 0.000247969803557061 0.00019280651084475 0.000460083632800816 0.000356383604972806 -0.00119947737284416 0.000667952024414654 0.000268511713365257 0.000458325687195637 -0.00278178942106059 -0.00197371482953047 0.00182572721021077 0.00219033445570422
"152" 0.000876318136391513 0.000444787683571937 0.000593985304401269 0.000518000059743062 0.000236763386287806 0.000189786465506276 0.000460599682856742 0.000359616073102207 -0.00121053845423547 0.000753404076233295 0.000319579694508508 0.000476593694607765 -0.00267769352215486 -0.00193375380907288 0.0019563278507661 0.002847842598855
"153" 0.000883224614750651 0.000434372358840689 0.000575247661335341 0.000522795115104587 0.000226503818994439 0.000186887040537251 0.000460732942060618 0.000362290793366701 -0.0012195153370376 0.000839205201609651 0.000371848013547088 0.000494639524868428 -0.00257227940110545 -0.00188508940596441 0.00208644658016818 0.00352486194528212
"154" 0.000889747793940029 0.000424712340856332 0.000557560081439121 0.000527695604069566 0.000217230409911894 0.000184119384731327 0.000460466506344327 0.000364371100140675 -0.0012262893070206 0.000924784032895212 0.000425012790531572 0.000512252586016292 -0.00246628783417614 -0.00182780636657523 0.002215295574982 0.00421348151789346
"155" 0.000895763747914189 0.000415801641240136 0.000540959319969206 0.000532631171561603 0.000208984784488063 0.000181488821525131 0.00045978981993122 0.000365809984741733 -0.00123076130236784 0.00100955321289904 0.000478734496597817 0.000529231320760551 -0.00236042569426662 -0.00176213459900971 0.00234202649136325 0.0049045356649925
"156" 0.000901156437928998 0.000407618202806863 0.000525475133927408 0.000537525843948639 0.000201784067151 0.000179000949539397 0.000458706329012722 0.000366556819505305 -0.00123285353368521 0.00109293164567862 0.000532634485958291 0.000545387376355238 -0.00225535798798297 -0.00168843508774809 0.00246577292369714 0.00558777385835394
"157" 0.000905806423656554 0.000400131399172213 0.000511121461082974 0.000542303497082059 0.000195639835778705 0.00017664859198385 0.000457206205717627 0.000366554797924895 -0.00123251764797727 0.00117433368212173 0.000586319823074221 0.000560548528424471 -0.00215170407461842 -0.00160720961243577 0.00258562793071288 0.00625217999414183
"158" 0.000909602249582553 0.000393300467347766 0.000497906830565629 0.000546891558081271 0.000190546244295732 0.00017441719747421 0.000455302531615274 0.000365745079265161 -0.00122972951285623 0.00125318244636261 0.000639368769334126 0.000574556326683874 -0.0020500322394782 -0.00151908393583127 0.0027006597509629 0.00688638615483328
"159" 0.000912436652733614 0.000387074136572751 0.000485823505075754 0.000551221737547412 0.000186488832037946 0.000172288984178601 0.000452999565748651 0.000364071890113424 -0.00122449261308483 0.00132891548952704 0.000691344989597615 0.000587272280360358 -0.00195086811852831 -0.00142481309728632 0.00280995047773781 0.00747915245125713
"160" 0.000914209986723989 0.000381394604047059 0.000474851184739093 0.000555222249728098 0.00018343511514791 0.000170239757884885 0.000450313448437597 0.000361472540937339 -0.00121683268912676 0.0014009884070808 0.000741803904999944 0.000598579816216895 -0.00185468637068159 -0.00132525222604777 0.00291258283494798 0.00801998551704805
"161" 0.000914827714660302 0.000376194374488579 0.000464962234519885 0.000558830019360483 0.000181354334774823 0.000168242236163692 0.000447264149861825 0.000357889800512084 -0.00120679721988986 0.0014688819518847 0.000790306697213394 0.000608379291305126 -0.00176191007288525 -0.00122134886897472 0.00300766471562655 0.00849975967132657
"162" 0.000914202778785017 0.000371397460748986 0.000456110297210421 0.000561983813480239 0.000180190401924041 0.000166263425619076 0.000443870608873707 0.000353264113658684 -0.00119445692823474 0.00153210541724687 0.000836413242078288 0.000616593396139199 -0.00167292554745293 -0.00111412704292091 0.00309434663850146 0.00891124512196005
"163" 0.000912258796864271 0.000366925638510537 0.000448249911649005 0.000564621707550837 0.000179893439226197 0.000164263197424741 0.000440168282428401 0.000347547812580315 -0.00117989877764989 0.00159020671262774 0.000879709383344343 0.000623164911179643 -0.0015880660225114 -0.00100465876896321 0.00317183466710186 0.00924962558819346
"164" 0.000908935139520792 0.000362692518540238 0.000441314227013172 0.000566694396373451 0.000180398783826397 0.000162209919437304 0.000436180854430807 0.000340692693573836 -0.00116323003384884 0.00164277292862835 0.000919798147747761 0.000628058466101893 -0.00150762998695965 -0.000894053794944805 0.0032394008418949 0.00951273261207269
"165" 0.000904172580701958 0.000358612768594821 0.000435232592675328 0.000568149630442706 0.000181636396237023 0.00016006444631752 0.000431948662902072 0.000332663259674889 -0.00114457506052056 0.00168943657945602 0.000956316977952262 0.000631259824640481 -0.00143188332080401 -0.00078343174328565 0.00329640552763288 0.00970109664586745
"166" 0.000897927071118785 0.000354594377934922 0.000429918694163893 0.000568947464286833 0.000183536692496829 0.000157787478828949 0.0004275062894994 0.000323431643540867 -0.00112406142681428 0.00172988372723182 0.000988941756450367 0.000632775979709171 -0.00136104936704059 -0.000673907098958815 0.00334230343856375 0.009817811245893
"167" 0.000890172923858191 0.000350548058370371 0.000425284560460322 0.000569043065453739 0.000186021802585658 0.000155348031250861 0.000422895730859449 0.000312981375804622 -0.001101835309606 0.00176385002610398 0.00101738816436912 0.000632634223013093 -0.00129532803695515 -0.00056656024660627 0.00337664406905934 0.00986815442146239
"168" 0.000880892010092181 0.00034638171054696 0.000421228586291724 0.000568406027547575 0.000189014134122187 0.000152711585729724 0.000418159313745782 0.000301308407832702 -0.0010780450974137 0.00179113441516485 0.00104142319610856 0.000630881600248471 -0.00123489421500624 -0.000462439005980331 0.00339910078602184 0.00985907180417614
"169" 0.000870077067117788 0.00034201166313611 0.000417645441780454 0.000567008490753203 0.000192442060289505 0.000149848878830178 0.00041334622821528 0.000288421115343476 -0.00105284835593702 0.00181159187236731 0.00106086221310069 0.000627585308864224 -0.00117989335477909 -0.000362522351101997 0.00340945631739409 0.00979863745693789
"170" 0.000857740644905403 0.000337350326728892 0.000414420474078613 0.000564826100439164 0.000196225174645835 0.00014673716799586 0.000408496250180085 0.000274347045102332 -0.00102640457953179 0.00182514251446537 0.00107557560608616 0.000622826705911932 -0.00113045357036405 -0.000267715583670639 0.00340762093183301 0.00969545673156592
"171" 0.00084390596187615 0.000332317348079958 0.000411440052158623 0.000561842880504818 0.000200289333289824 0.000143355034481713 0.000403658685694132 0.000259125263444523 -0.000998873907902342 0.00183176794878082 0.00108548298431424 0.00061670932901692 -0.00108668161265701 -0.000178843308405519 0.00339361039389919 0.00955817191188332
"172" 0.000828608254756271 0.000326838777718864 0.00040857684790188 0.000558049795419089 0.00020456216626929 0.000139690418390762 0.000398883275998001 0.000242805287881526 -0.000970417015681918 0.00183151461721233 0.00109056180884182 0.000609349902481829 -0.00104866854324657 -9.66423209972129e-05 0.00336756606944711 0.00939502024921532
"173" 0.000811898061231539 0.000320847365399413 0.000405714119708495 0.000553441795364933 0.000208971763577385 0.000135732360719081 0.000394216546188949 0.000225458335688219 -0.000941195990247097 0.00182449181516914 0.00109083701683307 0.000600878344258261 -0.00101648854803487 -2.17446983413765e-05 0.00332973669406811 0.00921357809635604
"174" 0.000793842355649161 0.000314280862768239 0.000402725619270083 0.000548022237354 0.000213453467252873 0.000131477011417622 0.000389699990419929 0.000207166443833151 -0.000911370272852918 0.00181087037413267 0.00108638301025383 0.000591439167992688 -0.000990202331032747 4.53152214341752e-05 0.00328047961141774 0.00902053048214936
"175" 0.00077452131485188 0.000307086962279027 0.000399489388480469 0.000541798926742022 0.000217940822040105 0.000126924981051192 0.000385385041604746 0.000188022600051757 -0.000881090811307794 0.00179087766195313 0.00107732407382599 0.000581189679096994 -0.000969851225804383 0.000104107855063503 0.00322024165403558 0.00882160668216278
"176" 0.000754017547893614 0.00029922559115337 0.00039588755792027 0.000534791147168204 0.000222376518346475 0.00012208323752495 0.00038131142456096 0.000168137101152406 -0.000850513208898923 0.00176479874809362 0.00106382442797922 0.000570292664587841 -0.000955468849639289 0.000154304708812402 0.00314956334534324 0.00862155175852395
"177" 0.000732439499913628 0.00029065931628926 0.000391800167312061 0.000527016143136579 0.000226698835021517 0.000116960779210932 0.000377518785296535 0.000147626862595503 -0.000819781966039961 0.00173296673664156 0.00104608734664292 0.000558923875836965 -0.000947066646224345 0.000195680457373885 0.00306905252587809 0.00842420072691981
"178" 0.0007098971996386 0.000281366424990396 0.000387119758151359 0.000518504430972573 0.000230859613354703 0.000111573908438442 0.000374050146096167 0.000126620339543309 -0.000789042807625376 0.0016957689994909 0.00102435129719478 0.000547260473211806 -0.000944642938487079 0.000228102380273348 0.00297938947205554 0.00823250898119746
"179" 0.00068651217745182 0.000271332449472441 0.000381741896422838 0.000509293273788459 0.000234809698204623 0.000105940490291385 0.000370935220280152 0.000105251314041937 -0.000758429888514656 0.00165362348299749 0.000998885093032505 0.000535485025827777 -0.000948183847333003 0.000251539600487457 0.0028813008006771 0.00804873576378228
"180" 0.000662414139242437 0.000260559588892784 0.000375578321418675 0.000499420114221826 0.000238498619391203 0.000100082344386985 0.000368208695126228 8.36594439044229e-05 -0.000728073811330063 0.00160699093953404 0.000969984863331763 0.000523781061285691 -0.000957650889022639 0.000266039193742847 0.00277555696907283 0.00787446528405532
"181" 0.000637744036797957 0.00024904974490419 0.000368538058946599 0.000488934541409423 0.000241888193697611 9.40183907159179e-05 0.000365896401714792 6.19922056091921e-05 -0.000698101910091708 0.00155636025219822 0.000937964209381894 0.000512331932968682 -0.000972990551999001 0.000271735568403433 0.00266296189632925 0.00771078284468384
"182" 0.000612642091445605 0.000236826987774881 0.000360550370776454 0.000477888344915419 0.000244938867990159 8.77748916750805e-05 0.000364019755027242 4.03891918528301e-05 -0.000668632848722665 0.0015022428370433 0.000903159633027629 0.000501317940400668 -0.000994127743795186 0.000268836806584302 0.00254432486197801 0.00755835588134674
"183" 0.000587256417305326 0.000223917774945191 0.000351557141958033 0.000466339297227616 0.000247615634106712 8.13773837632625e-05 0.000362599047065524 1.90002227055542e-05 -0.000639777777372013 0.00144516409001283 0.000865914854686896 0.000490912389430749 -0.00102097085614165 0.000257618286123793 0.0024204828470568 0.00741751103109725
"184" 0.000561733821178014 0.000210364045907543 0.00034151288773237 0.000454345650042728 0.000249887982928099 7.48489029999889e-05 0.000361643824597491 -2.03384685621204e-06 -0.000611643480026021 0.0013856615416055 0.000826594099786736 0.000481282334953676 -0.00105339865364174 0.000238424395761091 0.00229226071194362 0.00728834298054053
"185" 0.000536230001395763 0.000196213659369409 0.000330379266059395 0.000441976407623857 0.000251726439095075 6.82172572699811e-05 0.000361163130621156 -2.25764893570668e-05 -0.000584326546306545 0.00132428106746751 0.000785553861166429 0.00047258424679169 -0.00109127142539029 0.0002116465745265 0.00216048356194868 0.00717074924314598
"186" 0.000510887834385661 0.000181525807456027 0.000318144834466316 0.000429301908503136 0.000253111316708791 6.15022258970156e-05 0.000361160602884163 -4.24933812790602e-05 -0.000557917468568834 0.00126155675477099 0.00074316307460341 0.000464964300868327 -0.00113442405504453 0.000177732183812225 0.00202595856928776 0.00706452030660734
"187" 0.000485856782466847 0.000166366565344761 0.000304802278009204 0.000416390902985254 0.000254019428042814 5.47298176467773e-05 0.000361630075775957 -6.1661592499955e-05 -0.000532496435853142 0.00119802401365831 0.000699789661462281 0.000458553900684086 -0.00118266983658486 0.00013716795402302 0.00188946881460362 0.00696935736051221
"188" 0.000461282242300059 0.000150810752316567 0.000290365496839755 0.000403318006146333 0.000254433770375069 4.79163311944247e-05 0.000362560865996968 -7.99623591157156e-05 -0.000508134697445247 0.00113419688842728 0.000655799794486429 0.000453466815357405 -0.00123579420672567 9.04865279317634e-05 0.00175177511684151 0.00688491898898412
"189" 0.000437301107121796 0.000134939967710004 0.000274864520095235 0.000390159569228714 0.00025434527994383 4.1084647644336e-05 0.000363942975833133 -9.7291680421265e-05 -0.000484896565970858 0.00107057440884105 0.00061155053977191 0.000449802510926128 -0.00129355973907811 3.82447145134244e-05 0.00161360766034178 0.00681083409154378
"190" 0.000414042724752278 0.000118841859002347 0.000258337034012597 0.00037698872697039 0.000253744977967156 3.42489541619618e-05 0.000365757446494111 -0.000113552380285669 -0.000462834791068557 0.00100763498508375 0.000567398519052054 0.00044764204723686 -0.00135570564309723 -1.8962817265554e-05 0.00147566157090755 0.00674673196187341
"191" 0.000391632223478349 0.000102610275249405 0.000240839435278735 0.000363882584274476 0.000252628352853397 2.74250713611513e-05 0.000367974404635473 -0.000128659225040324 -0.000441989163987852 0.000945826360786593 0.000523686632896946 0.000447046271280195 -0.00142195040861229 -8.05231566899992e-05 0.00133860460954316 0.0066922238952632
"192" 0.000370182408173371 8.63395914306666e-05 0.000222446886089501 0.000350916388151148 0.000251000378648083 2.06256974714454e-05 0.000370570707848025 -0.000142542656462924 -0.000422391913912332 0.00088556805477349 0.000480754907477066 0.000448056865839703 -0.0014919899008171 -0.000145795089536563 0.00120305226798768 0.00664696541630829
"193" 0.000349800537256899 7.01317585595481e-05 0.00020323938048485 0.000338161733953677 0.000248864068176824 1.38623003333433e-05 0.000373511892911812 -0.000155135808665571 -0.000404064591218447 0.000827241391830513 0.000438920653082637 0.000450691962558325 -0.00156550051786246 -0.000214127345873482 0.00106959409018348 0.00661057701744045
"194" 0.000330581597620228 5.40878162850804e-05 0.000183313449379256 0.000325689243212651 0.000246231637440066 7.14561710497249e-06 0.00037675857897818 -0.000166392235494762 -0.000387007838238541 0.000771203615247856 0.000398500398141714 0.000454954537711393 -0.00164214654371615 -0.000284846880247982 0.00093878123950539 0.00658269303357371
"195" 0.000312605133980611 3.83107499162284e-05 0.000162775320821458 0.000313566291441651 0.000243119064265999 4.84817449195586e-07 0.000380277664859136 -0.000176274104321092 -0.000371220116604494 0.000717765921621373 0.000359785799506589 0.000460820639055433 -0.00172157162976419 -0.000357271514019568 0.000811118064365826 0.00656292840092588
"196" 0.000295946656784162 2.29031936418012e-05 0.000141739196677727 0.000301855739997575 0.000239546585183741 -6.11284579997403e-06 0.000384019693444011 -0.000184755680880384 -0.000356686064725071 0.000667204858912944 0.000323062247219126 0.000468251306122358 -0.00180341452990277 -0.000430721782389491 0.000687084195145606 0.00655086934539751
"197" 0.000280667948696266 7.9658345816658e-06 0.000120328420946989 0.000290615151945944 0.000235539336136265 -1.26434854150692e-05 0.000387945036905182 -0.000191820846421377 -0.000343374042258291 0.000619749998107258 0.000288589726279374 0.00047718379247786 -0.00188729326487536 -0.000504496864170031 0.000567100159109049 0.00654609604443441
"198" 0.000266812791059831 -6.40213884376479e-06 9.86708834208657e-05 0.000279899458271284 0.000231128435961002 -1.90936835459028e-05 0.000392004720176208 -0.000197468159747198 -0.000331244603915226 0.000575604844647545 0.000256615913057652 0.000487541933328928 -0.00197282960198319 -0.000577917534449872 0.000451571076629897 0.00654808216847386
"199" 0.000254419049393587 -2.01065981808576e-05 7.69052096859992e-05 0.000269756854355137 0.000226349391384396 -2.54599483884842e-05 0.000396151577545231 -0.0002017023250984 -0.00032024177902713 0.000534924902236443 0.000227366116655186 0.000499225344801719 -0.00205962793748672 -0.000650297447942523 0.00034085116288364 0.00655628770032815
"200" 0.000243514027960279 -3.30572231811339e-05 5.51700565665648e-05 0.000260228554893815 0.000221238771523313 -3.17366353351741e-05 0.000400340392242045 -0.000204541439837157 -0.000310305909569588 0.000497833790242349 0.000201041431903933 0.000512121126056164 -0.00214729304862742 -0.000720965708912891 0.000235263586275376 0.00657006644512203
"201" 0.000234109933070089 -4.51661921010604e-05 3.36050166668049e-05 0.00025134964875904 0.000215840511863963 -3.7918731623901e-05 0.00040451972561725 -0.000206015795076553 -0.000301368050003068 0.000464410130816535 0.000177821487325189 0.000526101286516158 -0.00223542287636683 -0.000789275506558759 0.00013508481089175 0.0065887007150659
"202" 0.000226202754374465 -5.63570143916401e-05 1.23530267101568e-05 0.000243152227513088 0.00021019681086728 -4.39968363017993e-05 0.000408641854100639 -0.000206160438378871 -0.000293343900135741 0.000434702653608809 0.000157859369543498 0.000541026891987824 -0.00232361604725333 -0.000854599904713402 4.05666125226764e-05 0.00661136676190636
"203" 0.000219789553585013 -6.65615865933845e-05 -8.44389917743032e-06 0.000235650603973828 0.000204358015563667 -4.99695446788072e-05 0.000412661288771991 -0.000205024378360663 -0.000286149011848471 0.000408725107187918 0.0001412810149729 0.000556743911013084 -0.00241146268763432 -0.000916349480842937 -4.80903225658839e-05 0.00663715562199263
"204" 0.00021484554986058 -7.57151676858382e-05 -2.86481947737895e-05 0.000228864922958077 0.000198371343183015 -5.58270700024254e-05 0.000416536264315304 -0.000202665634463131 -0.000279694372390996 0.000386457991508625 0.000128179358255023 0.000573090315783459 -0.00249855360018094 -0.000973971312815024 -0.000130725562369432 0.00666507007580426
"205" 0.000211344049423166 -8.37675626092996e-05 -4.81232582177746e-05 0.000222802947958054 0.000192287739000521 -6.15722042121806e-05 0.000420217285412291 -0.000199149152327618 -0.000273880965067714 0.000367849599706974 0.000118614945728337 0.000589898589137527 -0.00258447719455398 -0.00102696551615079 -0.000207214301041428 0.00669401322672589
"206" 0.000209243523804522 -9.06763548225252e-05 -6.6733335117705e-05 0.00021746020073517 0.000186151651494171 -6.71982932494594e-05 0.000423669650416396 -0.000194552606716519 -0.000268619280917853 0.000352824701915574 0.000112620519018017 0.000606996617910515 -0.00266881652644271 -0.00107488737258084 -0.000277483560721584 0.00672283671408162
"207" 0.000208495278451402 -9.64094233549816e-05 -8.43516785726502e-05 0.000212833657106341 0.000180020306688319 -7.27074116003783e-05 0.00042684908197251 -0.000188959979317576 -0.000263810989751421 0.000341278825265037 0.000110181725431991 0.000624207579282438 -0.00275116079075385 -0.00111735545304665 -0.000341493038685813 0.00675032133690534
"208" 0.000209046765174508 -0.000100949515672098 -0.000100860280667199 0.000208909559068701 0.000173934414521242 -7.80982506992322e-05 0.000429726390178744 -0.000182464589750307 -0.000259367720499287 0.000333085114660669 0.000111252934349147 0.000641356083855391 -0.00283108594326811 -0.00115406302197432 -0.000399263766452476 0.00677522834103395
"209" 0.000210830649257904 -0.000104285793709108 -0.000116138687508471 0.000205667456570358 0.00016794298645734 -8.33783402344853e-05 0.000432264485777033 -0.000175171449483345 -0.000255195264612551 0.000328096985353802 0.000115752313823262 0.000658264916794165 -0.0029081773823956 -0.0011847786634684 -0.000450855478600667 0.00679632895122871
"210" 0.000213781983286939 -0.00010642857855742 -0.000130087413619609 0.000203082004915858 0.000162086088089211 -8.85528428721237e-05 0.000434440703858038 -0.000167187451356726 -0.000251218977867798 0.000326145520939376 0.000123554979870802 0.000674762223239257 -0.00298201854978763 -0.00120935267308322 -0.000496375343863303 0.00681241544854308
"211" 0.000217819892540766 -0.00010739197496189 -0.000142604132298222 0.00020111940101115 0.000156404247935273 -9.36307558323455e-05 0.000436231985987336 -0.000158632291234437 -0.00024735655401141 0.000327052210279986 0.000134496984808396 0.000690681908010606 -0.00305218936258844 -0.00122772351646687 -0.000535976210665592 0.00682234300048099
"212" 0.000222865349506896 -0.000107203733617086 -0.000153603272142008 0.00019974506578803 0.00015093179267243 -9.86272638672065e-05 0.000437615488153734 -0.000149629217788481 -0.000243549659848804 0.000330623580312926 0.00014837717536068 0.000705862015378723 -0.00311827625184149 -0.00123991547647602 -0.000569861611395441 0.00682507423641539
"213" 0.000228838908331486 -0.000105910066604081 -0.00016300357616626 0.000198911188599143 0.000145700638226496 -0.000103555475689277 0.000438577429804171 -0.000140309820591424 -0.000239736908463818 0.000336652291196036 0.000164964659425763 0.000720152763353974 -0.00317986778069457 -0.00124603470383949 -0.000598274572448295 0.00681969494587482
"214" 0.000235647242135529 -0.000103561828221093 -0.000170738311866849 0.000198574570923528 0.000140736143625243 -0.000108434418013219 0.000439109045332217 -0.000130809626760713 -0.000235873042073303 0.000344930313767963 0.000183982630086937 0.000733411592864811 -0.00323656489737787 -0.00124628014100632 -0.000621501768531841 0.006805427231907
"215" 0.000243203609035584 -0.000100227083132749 -0.00017675050181843 0.00019868503157705 0.000136062094464679 -0.000113285938110773 0.000439201001662851 -0.000121263768076365 -0.000231921950841907 0.000355233270517739 0.000205136761666377 0.00074550509546655 -0.00328797442264795 -0.00124092674526188 -0.000639860120706669 0.0067816765070178
"216" 0.000251412712273598 -9.59803114616209e-05 -0.000180990512693411 0.000199180843067863 0.000131699306277511 -0.000118133295129178 0.000438852376353374 -0.00011181293504107 -0.000227857687070265 0.000367345824126718 0.000228100171186978 0.000756317263520115 -0.0033337219795641 -0.00123032366563702 -0.000653708017246476 0.00674801775039497
"217" 0.000260187937098392 -9.09100106409356e-05 -0.000183422588855922 0.00020000901516255 0.000127661993813916 -0.000123001208116046 0.000438069263626179 -0.000102601956242289 -0.000223668485721218 0.00038104126615157 0.000252520268148604 0.000765739923728326 -0.00337345235430682 -0.00121489248022011 -0.00066343451502459 0.00670421111417826
"218" 0.000269432736310302 -8.51090960637247e-05 -0.000184029166708745 0.000201108057136759 0.000123960307026108 -0.000127919320908528 0.000436854932572539 -9.37685933015515e-05 -0.00021934549808569 0.000396098149424778 0.000278030321163894 0.000773680988514526 -0.00340683377597624 -0.0011951110275594 -0.000669436210641898 0.00665017289606369
"219" 0.000279052017500913 -7.86849070298657e-05 -0.000182789475693919 0.000202413354888347 0.000120604354924159 -0.000132911859041769 0.000435222613078657 -8.54529250183828e-05 -0.000214898443863645 0.000412300879500058 0.000304252326890175 0.000780060795595202 -0.00343356055312338 -0.00117151175882451 -0.000672147925449265 0.00658600154131099
"220" 0.000288962211956742 -7.17483318909271e-05 -0.000179706880900083 0.000203857445518838 0.000117598658370108 -0.000138008643311438 0.000433187974521788 -7.77859051714389e-05 -0.000210336858925354 0.000429427171666098 0.000330799170316025 0.000784814700304661 -0.0034533654125118 -0.00114466311293762 -0.000671998714543077 0.00651192913792543
"221" 0.000299073610651847 -6.44154449128083e-05 -0.000174787478965259 0.000205380802793736 0.000114952320452897 -0.000143240249021972 0.000430773932358906 -7.08962154521723e-05 -0.000205688811670584 0.000447277978478048 0.000357275147687345 0.000787891823755639 -0.00346601824599895 -0.00111517282757644 -0.000669440803547188 0.00642829932093997
"222" 0.000309296857082426 -5.68089047357989e-05 -0.000168060184620171 0.00020691430954206 0.000112663313512209 -0.000148628688179771 0.000427996725976796 -6.49064883223004e-05 -0.000200978431717112 0.000465643859614013 0.000383298787245234 0.000789257211402991 -0.00347133135764936 -0.00108366650289551 -0.00066491113991165 0.00633554451280652
"223" 0.000319553709264053 -4.90547597495445e-05 -0.000159551577292733 0.000208391747028133 0.00011073645113102 -0.000154198910589878 0.00042488866526211 -5.99288699130219e-05 -0.000196245733653577 0.000484338966999563 0.000408480999578891 0.000788885605991029 -0.00346915952418873 -0.00105077635265942 -0.000658850963012058 0.00623416884861336
"224" 0.000329766488605886 -4.12807020756223e-05 -0.000149305119800221 0.000209749925428372 0.000109172998258866 -0.000159979797426137 0.000421481517108223 -5.60594822666653e-05 -0.000191526572365091 0.000503178576211007 0.000432455228499889 0.00078677366059592 -0.00345940888437806 -0.00101714796669727 -0.000651698107426981 0.00612469063523707
"225" 0.000339863008974311 -3.3609954950823e-05 -0.000137371554683434 0.000210924615809686 0.000107971749473698 -0.000165987419410717 0.000417803009379863 -5.33943740776834e-05 -0.000186870733994445 0.000521989102722289 0.000454864758776749 0.000782924304858183 -0.00344203662044086 -0.000983413878992316 -0.000643865840334212 0.00600763215894448
"226" 0.000349773443821194 -2.61768221949137e-05 -0.000123820829385702 0.000211855552424861 0.000107137959724497 -0.000172238575829977 0.000413891602284216 -5.20099845454829e-05 -0.000182325656145456 0.000540615563398932 0.000475370142694205 0.000777354832040284 -0.00341705703871592 -0.000950193073616613 -0.000635761572508384 0.00588350272010012
"227" 0.000359442329471253 -1.90999950429932e-05 -0.000108717009137228 0.000212487680912097 0.000106670328603086 -0.000178748725453177 0.000409786230398263 -5.19660769096269e-05 -0.000177937255526404 0.000558909706269437 0.000493656280475797 0.000770099116945309 -0.0033845329400811 -0.000918085468330217 -0.000627766102354955 0.00575275857068381
"228" 0.000368810156081997 -1.25038343765585e-05 -9.21451818769786e-05 0.000212761148227251 0.000106571903695946 -0.000185527147438181 0.000405526542174852 -5.33148541145226e-05 -0.000173766690084327 0.000576735738568755 0.000509431897195742 0.000761197408981257 -0.00334458154898412 -0.000887666857100253 -0.000620244168134552 0.00561581223336997
"229" 0.000377827540852646 -6.50436699057916e-06 -7.41931589231883e-05 0.000212627814954112 0.000106843329714372 -0.000192581602178447 0.000401150616160798 -5.60903135700972e-05 -0.000169856729791925 0.000593975972281991 0.000522427026449633 0.000750704710458683 -0.00329737930905771 -0.000859476733085458 -0.000613533776157433 0.00547298445990319
"230" 0.000386454935853406 -1.2111099098623e-06 -5.49556302862866e-05 0.000212042729374194 0.000107486323922015 -0.000199913759849442 0.000396703208760482 -6.03108346563338e-05 -0.000166267262310858 0.00061052134199621 0.000532405401453414 0.00073868452555305 -0.00324314767709165 -0.000834021071171349 -0.000607947719680537 0.00532453955219849
"231" 0.00039465884699493 3.27243523494887e-06 -3.45353102764827e-05 0.000210960289140306 0.000108507646521671 -0.000207520284798279 0.000392222084615189 -6.59852914049906e-05 -0.000163049846816326 0.000626278152615056 0.000539154639578557 0.000725209945656219 -0.00318215465155403 -0.000811763180714944 -0.000603772548699637 0.00517065220905702
"232" 0.000402408768043815 6.8531163938976e-06 -1.30422634795206e-05 0.000209344513131061 0.00010990472875376 -0.000215400187504488 0.000387753988975333 -7.31004543166188e-05 -0.000160252196317381 0.000641162701110414 0.000542495859491185 0.000710361005219984 -0.0031147191550415 -0.00079313183967011 -0.000601277678821054 0.00501141115850291
"233" 0.000409686168278851 9.4424911477429e-06 9.40816098161676e-06 0.000207166273007898 0.000111679664344747 -0.000223539381301286 0.000383331105197709 -8.16346363582381e-05 -0.000157921966511711 0.000655107681296789 0.000542275787750436 0.000694228421091646 -0.00304120049526301 -0.000778501147718307 -0.000600685111226841 0.00484683372767495
"234" 0.000416471781562547 1.09673607128336e-05 3.26993478080772e-05 0.000204396609520516 0.000113832963859159 -0.00023192618043854 0.0003789977170107 -9.15470388896454e-05 -0.000156109333419847 0.000668058763565678 0.000538373877501011 0.000676906663756832 -0.00296199233976196 -0.000768203564010997 -0.000602212565646822 0.00467686973415686
"235" 0.000422756960613493 1.13614235981964e-05 5.6709813430017e-05 0.00020101372615701 0.000116364608551526 -0.000240548280252905 0.000374790146751454 -0.000102787763812342 -0.000154855506683065 0.000679964724333776 0.000530699677872121 0.000658493390696699 -0.0028775245743876 -0.000762525974573479 -0.000606045411219202 0.00450140964863595
"236" 0.000428541902403157 1.05704007978598e-05 8.13082544798768e-05 0.000197003402553298 0.000119271834026547 -0.000249382801157117 0.000370737356317205 -0.000115291369769794 -0.00015419544290496 0.000690798854365405 0.000519194099203736 0.000639092609708704 -0.00278825632048157 -0.000761699898386235 -0.000612332443536505 0.00432027869983763
"237" 0.000433823059224286 8.55486393617874e-06 0.00010636737463436 0.000192353921620036 0.000122549640852491 -0.000258409412391391 0.000366869596117029 -0.000128985920844001 -0.000154165719846656 0.000700524135988193 0.000503822366158007 0.000618810941235462 -0.00269465943482788 -0.000765910809100246 -0.000621218004195462 0.00413328392934441
"238" 0.00043860928691634 5.28468492366715e-06 0.000131751589574432 0.000187062985101316 0.000126192593740589 -0.000267604775107024 0.000363214905755262 -0.000143787970091648 -0.000154794429151043 0.000709131438641191 0.000484586861879794 0.000597755223158389 -0.00259723127272756 -0.000775289942042495 -0.000632798771338819 0.00394018697486724
"239" 0.000442909539331192 7.40980797695952e-07 0.000157331994353142 0.000181126067415961 0.000130186027603217 -0.000276943511387561 0.00035978917455451 -0.000159601775725652 -0.000156103887561639 0.000716605605085461 0.000461515927817485 0.000576033921896914 -0.00249648187727194 -0.000789915177287794 -0.000647165050308421 0.00374075404008951
"240" 0.000446733063021355 -5.07983369465572e-06 0.000182969979122198 0.000174549865243592 0.000134521822606412 -0.000286396934689721 0.000356606492146826 -0.000176327296464372 -0.000158105852840496 0.000722938182266618 0.000434666451016946 0.000553751677454752 -0.00239292189770263 -0.000809811930334798 -0.000664381101748429 0.00353475507900884
"241" 0.000450097705087466 -1.21716629989924e-05 0.000208528777914036 0.000167341843967403 0.000139185860969214 -0.000295934297865997 0.000353676909895382 -0.000193857652733072 -0.000160810397419694 0.000728133129748264 0.000404123232368731 0.000531016120760056 -0.00228707532138504 -0.000834947872983558 -0.000684481636160527 0.00332197064230315
"242" 0.000453017282151978 -2.051394694611e-05 0.000233875061469186 0.000159515640411066 0.000144156021123449 -0.000305526542917959 0.000351004084473782 -0.00021207670976404 -0.000164213868506483 0.000732186246704518 0.000370006164797113 0.00050792707170888 -0.00217946316698103 -0.000865233891932397 -0.00070748783926383 0.00310223680566868
"243" 0.000455505777007352 -3.00764442833675e-05 0.000258874120952614 0.000151087552355824 0.000149411994290124 -0.00031514127851901 0.000348581900335164 -0.000230872253307624 -0.000168306960470098 0.000735102510341022 0.000332458590172855 0.000484579662024924 -0.00207060354694504 -0.000900523075857104 -0.000733391334937923 0.00287542849868196
"244" 0.000457580704318172 -4.08158977744432e-05 0.000283388766520157 0.00014207409520271 0.000154932254019733 -0.000324747176832692 0.000346400050320911 -0.000250117051057572 -0.000173068704635781 0.000736881067754573 0.000291654459671108 0.000461067248608975 -0.00196101041987488 -0.000940602304539045 -0.000762169274990239 0.00264151170219483
"245" 0.000459253320956653 -5.26771581236917e-05 0.000307287089607682 0.000132499911798063 0.000160688717051405 -0.000334305751023441 0.000344440706912216 -0.000269694305990186 -0.000178467090245356 0.000737523499540608 0.000247798562907076 0.000437473092510566 -0.00185119860516113 -0.000985199652029599 -0.000793765920523107 0.00240051619439194
"246" 0.000460538689602752 -6.56005249685469e-05 0.000330442941479927 0.000122384706768837 0.000166656757744815 -0.000343781953626995 0.000342681142834326 -0.000289473826541019 -0.000184455547980867 0.000737021716421061 0.000201121106127831 0.000413873187957333 -0.00174166697394935 -0.00103397745567203 -0.000828112568172904 0.00215259294096221
"247" 0.00046144348438066 -7.95082229084702e-05 0.000352727453174483 0.00011175927912023 0.000172800934675274 -0.000353141982390856 0.000341089816564926 -0.000309332084476763 -0.000190980576576296 0.000735369320549761 0.000151887497533703 0.000390335966475051 -0.00163291095130639 -0.00108653418347576 -0.000865109395717345 0.00189799732909412
"248" 0.000461973550597192 -9.43192775411523e-05 0.000374016018191089 0.000100642829270548 0.000179095213267657 -0.000362346400998565 0.00033962921795216 -0.000329147033760586 -0.000197977468515919 0.000732554956138104 0.000100388247356344 0.00036691779950567 -0.00152541270650263 -0.0011423893807219 -0.00090463539324385 0.0016371490845988
"249" 0.000462131720328484 -0.000109942232891271 0.00039418674572911 8.9065843565546e-05 0.000185504361886092 -0.000371351081387308 0.000338256425843443 -0.000348788980611309 -0.000205361038046815 0.000728557319352932 4.69408053348238e-05 0.000343669894911074 -0.00141965425624843 -0.00120101752279586 -0.000946539247540163 0.0013705564900958
"250" 0.00046191444961425 -0.000126279435603328 0.000413129427275845 7.705567955052e-05 0.000192002385675656 -0.000380118847972703 0.000336923504099613 -0.000368135920041516 -0.000213042188388703 0.000723352975631083 -8.1066395262204e-06 0.000320627469073034 -0.00131609496760821 -0.00126180521924461 -0.000990641905537633 0.00109894663090113
"251" 0.000461314754851984 -0.000143223672248432 0.000430734820484617 6.46382635652082e-05 0.000198552993349737 -0.000388605174873636 0.000335573498526965 -0.000387066191042101 -0.000220915079493159 0.000716906940298936 -6.43819093354855e-05 0.000297818033517624 -0.00121519697428259 -0.00132408744748069 -0.00103674071380857 0.000823151480777433
"252" 0.000460324269150522 -0.00016066966335732 0.00044689648688244 5.18390071446122e-05 0.00020512978539716 -0.000396762831067909 0.000334153104745931 -0.000405460271479879 -0.000228862804072089 0.000709177431284395 -0.000121484834303769 0.000275256109395626 -0.00111740636761668 -0.00138713213875291 -0.00108460149499154 0.000544216788559445
"253" 0.00045892089818136 -0.000178500161910171 0.000461521421332317 3.86840377867507e-05 0.000211702240637787 -0.000404548305958535 0.00033259651370592 -0.000423201925814635 -0.000236757912732566 0.000700120048010811 -0.000178994730678891 0.000252942482846247 -0.00102315975847169 -0.00145015206969997 -0.00113395551743795 0.000263329355311948
"254" 0.000457087881075398 -0.000196596975524932 0.000474521068008608 2.51957209698605e-05 0.000218239814638143 -0.000411911648518297 0.000330842699914379 -0.000440179097189871 -0.000244464771163514 0.000689681164042127 -0.000236474004980535 0.000230872701503714 -0.000932886457330369 -0.0015123146981745 -0.00118451149697396 -1.81623341171346e-05
"255" 0.000454798039699198 -0.00021484276973599 0.000485810570235107 1.14038490684642e-05 0.000224719163638427 -0.000418804543419928 0.000328822299368898 -0.000456282031109723 -0.000251842662438731 0.000677805590175919 -0.000293467008559341 0.000209026711581065 -0.000846995645094896 -0.00157274617718303 -0.00123595235775783 -0.000298750081051866
"256" 0.000452023577446374 -0.000233114989763208 0.00049532450910148 -2.6780665013155e-06 0.000231113766351775 -0.000425175405657142 0.000326467417939221 -0.000471412392567795 -0.000258737931522646 0.000664429805376509 -0.000349509648594925 0.000187375588584073 -0.000765889626233979 -0.00163054331086979 -0.0012879294930678 -0.00057679345226854
"257" 0.000448726677972648 -0.000251295477219993 0.000502995697391113 -1.70248841192042e-05 0.000237398004915687 -0.000430979909045318 0.000323713795259882 -0.000485470385578394 -0.000265005149805174 0.000649488885544576 -0.000404133121131966 0.000165882191172534 -0.000689951106125469 -0.00168479904419403 -0.00134007272985722 -0.000850559252304588
"258" 0.000444875814577869 -0.000269264341501813 0.000508774144148844 -3.16146414916702e-05 0.000243544432287056 -0.000436167318793484 0.000320488735984632 -0.000498369686921168 -0.000270486372130131 0.000632925262294097 -0.000456873873927542 0.000144504360227658 -0.000619540929609326 -0.00173460683969506 -0.00139199756994198 -0.0011182367388301
"259" 0.000440431939343229 -0.000286907819364321 0.000512617245089639 -4.64346815439201e-05 0.000249535341616087 -0.000440691847370344 0.000316730668884005 -0.000510034180642727 -0.000275040762131252 0.000614671549333552 -0.000507277915979291 0.000123191368771104 -0.000554997374596436 -0.00177908005463929 -0.00144331264692978 -0.00137794717094563
"260" 0.000435353873740432 -0.00030411582830146 0.000514496238368854 -6.1461416929563e-05 0.00025533704186561 -0.00044451329622958 0.000312374719390228 -0.000520389880875938 -0.000278526789473927 0.000594671947443554 -0.000554912024740806 0.000101890053619527 -0.000496632826384846 -0.00181738641417984 -0.0014936094730581 -0.00162785721819781
"261" 0.000429600390054243 -0.000320778706388945 0.000514394206072372 -7.66807345517893e-05 0.000260922430621457 -0.000447592981477384 0.000307363705904581 -0.000529384895963032 -0.000280811314236437 0.000572877731580496 -0.000599368736187185 8.05470488135455e-05 -0.000444723597795317 -0.00184875000620845 -0.0015425001170983 -0.00186613695400161
"262" 0.000423134874150446 -0.000336803644208172 0.000512302586739657 -9.20726219309425e-05 0.000266258968245083 -0.000449902691278552 0.000301638826424771 -0.00053697419281217 -0.000281778795083967 0.00054924590655371 -0.000640276821121339 5.91054966573167e-05 -0.000399507328692916 -0.00187249016979261 -0.001589593298937 -0.00209109008113032
"263" 0.000415918844784363 -0.000352094208569809 0.000508230199446368 -0.000107623442446717 0.000271313975523308 -0.000451416872607141 0.000295154387785213 -0.000543127643734321 -0.000281339402593749 0.000523747508718722 -0.000677313164422774 3.75159255984112e-05 -0.000361182033982748 -0.00188803164204043 -0.00163452956127753 -0.00230114691147236
"264" 0.000407914601613881 -0.000366570508386157 0.00050219688152437 -0.000123311357673166 0.000276041354601749 -0.000452119014741564 0.000287866443121392 -0.000547829755203633 -0.000279410619355452 0.000496367977065415 -0.00071020450172944 1.57300019496266e-05 -0.000329892379468406 -0.00189492441839818 -0.0016769729853902 -0.00249494027057682
"265" 0.000399091068838874 -0.000380161784454739 0.000494232776285297 -0.000139118323732404 0.000280396447126181 -0.000452003959224657 0.000279738295056689 -0.000551085102069962 -0.000275941004677022 0.000467106801092984 -0.000738738509826467 -6.29416221825802e-06 -0.000305725224306032 -0.00189285934559297 -0.00171662927494353 -0.00267131129559593
"266" 0.000389418975059545 -0.000392803414219797 0.000484390676022852 -0.000155025637528406 0.000284324307039407 -0.000451078913257835 0.000270742790519816 -0.000552907745885836 -0.000270911105785632 0.000435979434668291 -0.00076276847934308 -2.85894364264662e-05 -0.000288719478074207 -0.00188169238821289 -0.00175324176741631 -0.00282941011559934
"267" 0.00037887903701938 -0.000404444979827138 0.000472724288317177 -0.000171013552134573 0.000287770365971064 -0.000449354465251527 0.000260855722366328 -0.000553331560600977 -0.000264314460375682 0.000403028869970181 -0.000782207851295263 -5.11803995431993e-05 -0.000278851078100256 -0.00186142746667497 -0.00178660543384071 -0.00296863418806016
"268" 0.000367450530332958 -0.000415048642266285 0.00045930744155936 -0.000187059752642935 0.000290667754911695 -0.000446860187429366 0.000250070430625272 -0.000552410342051462 -0.000256188997049894 0.000368312734572302 -0.000797044666278361 -7.40775765587019e-05 -0.000276030451522526 -0.00183223536800098 -0.0018165664783468 -0.00308871308723517
"269" 0.000355124842858284 -0.000424584552289081 0.000444221603826389 -0.000203142527393382 0.000292947924664529 -0.000443628465766048 0.000238377860181905 -0.000550203993249679 -0.000246589988135792 0.000331904948326408 -0.000807329316186934 -9.72859088210314e-05 -0.000280116940210593 -0.00179444582440844 -0.00184302173132918 -0.00318966100693639
"270" 0.000341895453306252 -0.000433036524596757 0.000427566594874794 -0.000219236541482868 0.000294537739191533 -0.000439706757137118 0.000225783653211699 -0.000546792625286419 -0.000235603511204901 0.000293912414401457 -0.000813180116404142 -0.000120794956591539 -0.00029090343283043 -0.00174853889903558 -0.00186591766078137 -0.00327181839207951
"271" 0.000327764937610643 -0.000440400742787312 0.000409440250008591 -0.000235325405045823 0.000295362576164824 -0.000435148579189967 0.000212301529411423 -0.000542269080239877 -0.000223346215610506 0.000254449182652071 -0.000814771229541767 -0.000144583098225768 -0.000308129094411725 -0.00169513341572108 -0.00188524076281299 -0.00333580076179834
"272" 0.000312742029725172 -0.000446681233446696 0.000389961646491629 -0.000251381488352329 0.000295348271301094 -0.000430015603362703 0.000197957821473462 -0.000536734661321014 -0.000209947897703289 0.000213657435271408 -0.000812325316484016 -0.000168619507498002 -0.000331478731768541 -0.00163495352041542 -0.00190103705743167 -0.00338244015154757
"273" 0.000296845206969383 -0.000451893043372415 0.000369253291440465 -0.000267381397270362 0.00029442225629828 -0.000424378561512966 0.000182779255248421 -0.000530296349269844 -0.000195570439749018 0.000171694546625503 -0.000806113681052249 -0.000192861314428312 -0.000360587156393676 -0.00156883746332416 -0.00191337784082505 -0.00341283725781342
"274" 0.000280098147959392 -0.000456062522270105 0.000347442888686883 -0.000283307885663807 0.000292512788906857 -0.000418309456731978 0.000166803977881715 -0.000523071009634484 -0.000180383985726367 0.000128732410899225 -0.000796438776615269 -0.000217258683733848 -0.000395052008645896 -0.00149768113230892 -0.0019223631532588 -0.00342823712848082
"275" 0.000262530576830712 -0.00045922205789581 0.000324665933787078 -0.000299139036621358 0.00028955991526394 -0.00041188321452255 0.000150084796093983 -0.000515179595359337 -0.000164578275229699 8.49574329269156e-05 -0.000783633964447666 -0.000241746009672601 -0.000434423681139692 -0.00142244404731646 -0.00192813053937297 -0.0034300252113339
"276" 0.000244180023520233 -0.000461414699197815 0.000301067833235057 -0.000314852024788641 0.000285506740074262 -0.000405176808578956 0.00013266836691467 -0.000506738402888391 -0.000148349241321807 4.05656948930547e-05 -0.000768044338766077 -0.00026625522520704 -0.000478230267806075 -0.00134411181194225 -0.00193082392254733 -0.00341969779171566
"277" 0.000225093894560745 -0.000462686338064363 0.000276787856187801 -0.000330432642879404 0.000280308698268879 -0.000398269991604639 0.000114623864334599 -0.000497869025353941 -0.000131903168058382 -4.23776467792397e-06 -0.000750029444507816 -0.000290714950190448 -0.000525969400454429 -0.00126367169904036 -0.00193060533436804 -0.00339878197406883
"278" 0.000205318595611876 -0.000463093740723308 0.000251974868681639 -0.000345861309337896 0.000273934087519009 -0.000391235228612009 9.60172795949111e-05 -0.000488686287457785 -0.000115445710922905 -4.92349979880947e-05 -0.000729945832676214 -0.000315042451638427 -0.000577120132339549 -0.00118209949166544 -0.00192764687062774 -0.00336882674466658
"279" 0.00018492072629601 -0.000462695158223132 0.000226781251225757 -0.000361128273780961 0.00026635998123464 -0.000384148533034843 7.69266049684422e-05 -0.000479298551155202 -9.9189381112582e-05 -9.42154015781482e-05 -0.000708148066560346 -0.000339149932404293 -0.00063114612619117 -0.00110034693837826 -0.00192212114091365 -0.00333137476740409
"280" 0.0001639566623435 -0.000461550969638 0.000201351575156443 -0.000376212384565224 0.000257580039978495 -0.000377077905585223 5.74321659981456e-05 -0.000469812651292398 -8.33337733037125e-05 -0.000138959573288975 -0.000684979086872178 -0.000362951176173381 -0.000687504421756732 -0.00101931040098171 -0.00191421351858293 -0.00328789263916537
"281" 0.000142505092805044 -0.000459728230066228 0.000175842917084093 -0.000391107278301544 0.000247609245735658 -0.000370087428516277 3.76248731142274e-05 -0.000460322905303251 -6.80864962148523e-05 -0.000183256661730585 -0.000660769620118396 -0.000386352887565943 -0.000745649418968761 -0.000939844896237436 -0.00190410108446703 -0.00323981103871944
"282" 0.000120642523777346 -0.000457294449812253 0.000150400496477196 -0.000405795907170045 0.000236468563301285 -0.000363233740964679 1.75978271772206e-05 -0.000450912526043489 -5.36346370526715e-05 -0.000226890615416902 -0.000635831020831856 -0.000409263752750025 -0.000805032385213814 -0.00086273399319053 -0.00189196320196979 -0.00318847054858667
"283" 9.84482525214429e-05 -0.000454318219285205 0.00012517407169832 -0.000420266181274944 0.000224197484265401 -0.000356568586747353 -2.55042932628522e-06 -0.000441657252642596 -4.01655122310984e-05 -0.00026966237854133 -0.000610457064142928 -0.000431590594889716 -0.000865109472501738 -0.000788693388159393 -0.00187798476868752 -0.00313510119466497
"284" 7.60188174421859e-05 -0.000450864999598696 0.000100305231512838 -0.000434513213818186 0.000210855918157211 -0.000350141504447965 -2.27179692098792e-05 -0.000432620517234765 -2.78546577233656e-05 -0.000311378764013454 -0.00058491552940251 -0.000453240081144448 -0.000925341574566876 -0.00071837082948059 -0.00186235102806223 -0.00308083229370435
"285" 5.34439286248529e-05 -0.000447007045499923 7.59413522118284e-05 -0.000448518517530296 0.000196512504331232 -0.000343991662768332 -4.27973382213568e-05 -0.000423856784049378 -1.6858164327877e-05 -0.000351850525078475 -0.000559459976319776 -0.000474119143311144 -0.000985203261356934 -0.000652339120847942 -0.00184524296468537 -0.00302670184466392
"286" 3.08247278520007e-05 -0.000442809120555858 5.22167110101244e-05 -0.000462273737314982 0.000181249931918688 -0.000338148522306993 -6.26739762842724e-05 -0.00041540557204078 -7.33536296564469e-06 -0.000390908738438598 -0.000534322937686645 -0.000494138547855179 -0.00104417843780435 -0.00059111232522977 -0.00182685425031294 -0.0029736336562717
"287" 8.26377062659456e-06 -0.00043833811480186 2.92693891737425e-05 -0.000475764300313012 0.000165164106601527 -0.00033264190279205 -8.22422127540672e-05 -0.000407297410135198 5.83325273528342e-07 -0.000428393700180653 -0.000509712561389083 -0.000513210106564122 -0.00110176809425669 -0.000535121396356648 -0.00180737326612739 -0.00292246399709654
"288" -1.41304568970482e-05 -0.000433655778241338 7.22096725979008e-06 -0.000488979627684096 0.000148361962819722 -0.00032749244657502 -0.000101382845239527 -0.000399551123670218 6.77171346155356e-06 -0.000464157910766534 -0.00048582722003759 -0.000531252836205877 -0.00115749211924116 -0.000484751190787949 -0.00178699393457998 -0.00287391872368652
"289" -3.6247490045527e-05 -0.000428823353546618 -1.38070588636194e-05 -0.000501904898292767 0.000130962824181674 -0.000322714317605143 -0.000119987698145279 -0.000392176631400683 1.11213254087024e-05 -0.000498071724145218 -0.000462841447807551 -0.000548186587788598 -0.00121088418930871 -0.000440314861849289 -0.0017659207425878 -0.00282864163282503
"290" -5.79787954520113e-05 -0.000423899317036165 -3.37004105009017e-05 -0.000514524086429147 0.000113082372565759 -0.000318315887833674 -0.00013794155582104 -0.000385173060509189 1.35316711153173e-05 -0.000530018172846438 -0.00044091963939484 -0.000563934669202879 -0.00126150307001131 -0.000402084309189473 -0.00174434745109596 -0.0027872120128402
"291" -7.92118996007733e-05 -0.000418936854490011 -5.23558693233609e-05 -0.000526818766139588 9.4856846500969e-05 -0.000314303356497242 -0.000155133021633615 -0.000378535548678693 1.39207425307987e-05 -0.000559896158988716 -0.000420212446165446 -0.000578433164431976 -0.00130892176349245 -0.000370276017616692 -0.00172248573929804 -0.00275012135991208
"292" -9.98322651084225e-05 -0.000413989051101115 -6.96776013870667e-05 -0.000538777356614664 7.64104031241753e-05 -0.000310675590645875 -0.000171458681593514 -0.000372243082825172 1.22159228701104e-05 -0.000587617636506084 -0.000400855047519501 -0.000591620241213737 -0.00135274933688695 -0.000345068536209698 -0.00170052930706822 -0.00271779599515822
"293" -0.00011973213564422 -0.000409100478005857 -8.55824721710199e-05 -0.000550375920229029 5.78807382255849e-05 -0.000307433775324341 -0.000186808371772277 -0.000366280123099857 8.36678282500109e-06 -0.000613106235490131 -0.000382977992945298 -0.000603439520227995 -0.00139261064360646 -0.000326595210620086 -0.00167868677470089 -0.0026906141303603
"294" -0.000138801297432843 -0.00040431914921303 -9.99968242025018e-05 -0.000561599815284783 3.93955286856533e-05 -0.000304566413376203 -0.00020109205177641 -0.000360615351494754 2.32447421371515e-06 -0.000636306055311521 -0.000366700176450557 -0.000613847503243876 -0.00142815569056149 -0.000314962554625966 -0.00165716153142509 -0.00266890137728194
"295" -0.00015693722006133 -0.000399679192159022 -0.000112860103613079 -0.000572428187161073 2.10820656174925e-05 -0.000302067583315015 -0.00021421259079083 -0.000355218608455609 -5.93585577766617e-06 -0.000657164370448125 -0.000352132212245977 -0.000622803188793921 -0.00145906722696224 -0.000310240929156994 -0.00163613752312726 -0.00265294602771707
"296" -0.000174039738667209 -0.000395220227840562 -0.000124126453586327 -0.000582844776081802 3.06680884698809e-06 -0.000299923211517582 -0.000226093202108983 -0.000350058156519213 -1.6438928118748e-05 -0.000675653955604522 -0.000339377349801509 -0.000630280567927407 -0.00148505719447515 -0.000312479530544291 -0.00161581271428471 -0.0026429777200984
"297" -0.000190014085154084 -0.000390970749309319 -0.000133760113650578 -0.000592826013205002 -1.45386939227473e-05 -0.000298122156046015 -0.000236655483707894 -0.000345097711844693 -2.91840034413076e-05 -0.00069174208541645 -0.000328532387325525 -0.00063625952183665 -0.00150586231917169 -0.00032169623195951 -0.00159635345896444 -0.00263921604111995
"298" -0.000204775196690069 -0.000386963681272822 -0.000141739982590322 -0.000602354414188348 -3.16238808401329e-05 -0.000296645646719579 -0.000245837173537617 -0.000340303749875249 -4.41618792809336e-05 -0.000705418466548422 -0.000319688454552718 -0.000640729047637807 -0.00152125923315103 -0.00033788681182932 -0.00157793027902291 -0.00264182878815374
"299" -0.000218248353284706 -0.000383216658579637 -0.000148065535157588 -0.00061141240884935 -4.80912661619531e-05 -0.000295479310874245 -0.000253587556088852 -0.000335639307388647 -6.13486356874413e-05 -0.000716685688853617 -0.000312929288350366 -0.000643690133068698 -0.00153104985516272 -0.00036102458712936 -0.00156069773559194 -0.00265094963132306
"300" -0.000230359753640091 -0.000379753740529448 -0.000152741648353333 -0.000619982151801883 -6.38586092865077e-05 -0.000294606672034539 -0.000259860754763216 -0.000331071604876259 -8.07155664641621e-05 -0.000725545873004039 -0.000308330018106633 -0.000645150583410699 -0.00153507797468609 -0.000391059007615033 -0.0015447939503617 -0.00266670022394846
"301" -0.000241052577715277 -0.000376589982800139 -0.000155800280980291 -0.000628045940241954 -7.88440766083897e-05 -0.000294008496476627 -0.000264628356903975 -0.000326567530452055 -0.000102209808612813 -0.000732019300599543 -0.000305959198087128 -0.000645136922968337 -0.0015332181573283 -0.000427912231584327 -0.001530347769427 -0.00268914041479551
"302" -0.000250282144769177 -0.000373737174332608 -0.000157277221895024 -0.000635593049287124 -9.29895598771251e-05 -0.0002936641020554 -0.000267877635260959 -0.000322096600129231 -0.000125768852359047 -0.000736135001613154 -0.000305876794375437 -0.000643676077262923 -0.00152538852100798 -0.000471490229041732 -0.00151746874115751 -0.00271830719030729
"303" -0.000258008726921314 -0.000371204285341971 -0.000157235415420729 -0.000642606360337614 -0.000106243724412942 -0.000293557121527677 -0.00026960066220955 -0.000317634026958213 -0.00015131857464765 -0.000737927102453739 -0.000308133404684283 -0.000640808879433467 -0.00151154096928293 -0.000521660571104795 -0.00150625302752247 -0.00275420346479591
"304" -0.000264211445992277 -0.000368999003695081 -0.000155739744245241 -0.00064907679414525 -0.000118573257816538 -0.000293666554956403 -0.000269808719318605 -0.000313154450506304 -0.000178768704144967 -0.000737449620806239 -0.000312765420923659 -0.000636593079696578 -0.00149167297992544 -0.00057826705374293 -0.00149679652963033 -0.00279675387498271
"305" -0.000268879865355874 -0.000367120291026869 -0.000152882631345751 -0.000654996873036343 -0.000129954104732807 -0.000293970523719006 -0.000268520491645277 -0.000308632985601196 -0.000208012396721151 -0.00073475592860043 -0.000319801476445167 -0.000631089422692921 -0.00146582344607882 -0.000641112956662236 -0.00148916435277317 -0.00284586791221009
"306" -0.000272017753932976 -0.000365571561109498 -0.000148765119102895 -0.000660359727547561 -0.000140377298918628 -0.000294444543186062 -0.000265771151083934 -0.000304049935382091 -0.000238929102124538 -0.000729922004447184 -0.000329250954989792 -0.000624368401739958 -0.00143407264205015 -0.000709966280269158 -0.00148342609482377 -0.00290136197320409
"307" -0.000273643390034865 -0.000364345778198627 -0.000143503025794097 -0.00066516107183594 -0.000149839785749307 -0.000295068328591489 -0.000261610218880663 -0.000299389354582632 -0.000271383919821564 -0.000723030960900371 -0.000341107355644251 -0.000616515933479456 -0.00139654566515238 -0.000784558663633912 -0.00147963588954938 -0.00296301063141481
"308" -0.00027378174662495 -0.00036343850555704 -0.000137219671937552 -0.000669401309511882 -0.000158356495277213 -0.000295814919877277 -0.000256092494117937 -0.000294634599735175 -0.000305228821662768 -0.000714176228243105 -0.000355344802279559 -0.000607620063148728 -0.00135341136129973 -0.000864558463487884 -0.00147785006396643 -0.00303047230503406
"309" -0.000272479468306467 -0.000362838059551879 -0.000130062471679183 -0.000673081212966412 -0.000165950149933062 -0.000296656875128481 -0.000249287511811 -0.00028977202656387 -0.000340290428195524 -0.000703467571677192 -0.000371919089658592 -0.000597780630034864 -0.00130488885118444 -0.000949594508440347 -0.00147810070540628 -0.00310335628199186
"310" -0.000269795299817171 -0.000362532802017257 -0.000122173749190224 -0.000676209020800156 -0.00017265446323332 -0.000297564550649787 -0.000241274616080718 -0.000284785075285797 -0.000376388875010012 -0.000691024571483552 -0.000390757221563884 -0.000587107041914782 -0.00125124501751867 -0.00103923218090598 -0.00148043147560918 -0.00318114504294638
"311" -0.000265795849049745 -0.000362508419985351 -0.000113721370037433 -0.000678791726955009 -0.000178507345988564 -0.000298508874063018 -0.000232144928495508 -0.000279658575855736 -0.000413322400553405 -0.000676987327717143 -0.000411763999634404 -0.00057571443282613 -0.00119278644003282 -0.00113297438719811 -0.00148487271534142 -0.00326321913959093
"312" -0.000260566687745347 -0.000362749109144395 -0.000104870461173383 -0.000680841212740298 -0.00018355744081364 -0.000299450943838662 -0.000221993919606094 -0.000274380954325591 -0.000450877457621105 -0.000661501389842942 -0.000434810549725236 -0.000563722023727415 -0.00112987994263854 -0.00123025188945874 -0.00149143800930058 -0.00334885550604228
"313" -0.000254197172881069 -0.00036323340628177 -9.57949029402069e-05 -0.000682372211975212 -0.000187851772005014 -0.000300355485009255 -0.000210926834406101 -0.000268934595338938 -0.000488822730386776 -0.000644729886434216 -0.000459741495290187 -0.000551262180173872 -0.00106292680586227 -0.00133042630285182 -0.00150015344492908 -0.0034371962378633
"314" -0.000246799682533382 -0.000363942944519243 -8.66772373688855e-05 -0.000683403703311198 -0.000191447105158674 -0.00030118041322572 -0.000199058193614666 -0.000263303223803657 -0.000526911028078113 -0.000626845836438406 -0.000486369546257756 -0.000538466069240045 -0.000992381624301269 -0.00143279277721607 -0.00151102277941237 -0.00352728446540859
"315" -0.000238483937070289 -0.000364849607054375 -7.77003632832712e-05 -0.000683956795496083 -0.000194402736650574 -0.000301879440422222 -0.000186505148917816 -0.000257465991907308 -0.000564878124706569 -0.000608035018414513 -0.000514469020621552 -0.000525470618169585 -0.000918748181724701 -0.00153656008977458 -0.00152403037786428 -0.00361803271538831
"316" -0.000229377013486509 -0.000365932012064333 -6.90519763679495e-05 -0.000684058769906799 -0.000196774335149786 -0.000302407740194912 -0.000173386498928287 -0.000251401502572299 -0.000602457073358877 -0.000588487991922216 -0.000543787238646704 -0.00051241200730298 -0.000842562194770398 -0.00164087219503746 -0.00153915691348378 -0.00370824255415878
"317" -0.000219613908934401 -0.000367161423506576 -6.09171835998951e-05 -0.000683732201796975 -0.000198623517098234 -0.000302709927868831 -0.00015983401807752 -0.000245084592035516 -0.000639360186194956 -0.000568413525020635 -0.000574030887059929 -0.000499435643664786 -0.000764401825884692 -0.00174479750229629 -0.00155636596602454 -0.0037966116172746
"318" -0.000209328917257755 -0.000368510546548349 -5.3478588616257e-05 -0.000683008338906572 -0.000200008128134537 -0.000302734969625545 -0.000145969439530375 -0.000238492522334176 -0.000675297744808683 -0.000548012895028992 -0.000604881088087581 -0.000486679061472079 -0.000684885259848049 -0.00184734087162783 -0.00157559097698351 -0.00388176935917852
"319" -0.000198675169406423 -0.0003699508521219 -4.69169605897209e-05 -0.000681920625868083 -0.000200983111142847 -0.000302425509346291 -0.000131926029294788 -0.000231594712728807 -0.000709964319059909 -0.000527498667570759 -0.000635986265875496 -0.000474279994654114 -0.000604651727442864 -0.00194745250586984 -0.00159674118024282 -0.00396227808023832
"320" -0.000187795238488318 -0.000371448868571628 -4.14082609358275e-05 -0.000680504148951422 -0.000201608455808179 -0.000301721749649438 -0.000117832032524883 -0.000224361369149461 -0.000743063735381646 -0.000507077174932753 -0.000666975241127994 -0.000462378944970385 -0.000524367749286003 -0.00204403703900154 -0.00161970533899385 -0.00403666707950951
"321" -0.000176843246354639 -0.000372978991019181 -3.71185415006988e-05 -0.000678789714051908 -0.000201938195889315 -0.00030056610692087 -0.00010381727570875 -0.000216764456491252 -0.000774290351216398 -0.00048696099169092 -0.000697450868892319 -0.000451101792886743 -0.000444718028902483 -0.00213597344777221 -0.00164434571267504 -0.0041034649925212
"322" -0.000165974047893994 -0.00037450747474397 -3.42047202760139e-05 -0.000676813336602818 -0.000202020721307539 -0.000298902017980531 -9.00014539489361e-05 -0.000208775003695213 -0.000803344247314001 -0.000467346305171425 -0.000727008494452448 -0.000440575214805001 -0.000366386849609543 -0.00222213006146578 -0.00167049328468076 -0.00416123640868088
"323" -0.000155335506349876 -0.000376005909673985 -3.28118853557523e-05 -0.000674612799068587 -0.000201913642767501 -0.000296668925067867 -7.65149655309871e-05 -0.000200361502368672 -0.000829941464424334 -0.000448421913686288 -0.000755240113485097 -0.000430911786902974 -0.000290063531218792 -0.00230138807256296 -0.00169795031872027 -0.00420863612901994
"324" -0.000145077621606779 -0.000377444178720382 -3.30778660262139e-05 -0.000672221687677088 -0.000201666597901652 -0.000293817413385767 -6.34694653550332e-05 -0.000191498993132682 -0.000853798167371175 -0.000430365936027536 -0.00078173755498399 -0.000422216071299069 -0.000216424808345207 -0.00237265791061082 -0.00172650770944498 -0.00424440694660346
"325" -0.000135342964938486 -0.000378797541898922 -3.5112567382085e-05 -0.000669673966925977 -0.000201329393446626 -0.000290294785436178 -5.09780130924256e-05 -0.000182166475368067 -0.000874657345172631 -0.000413330318868776 -0.000806110188431557 -0.000414575702033534 -0.000146122041704925 -0.00243491638171925 -0.00175592364967466 -0.00426747302798021
"326" -0.000126271365139293 -0.000380038092304751 -3.90216101025086e-05 -0.000666996014396363 -0.000200955955077571 -0.000286059239218405 -3.91456355680978e-05 -0.000172346539122759 -0.000892279723979253 -0.00039745919142713 -0.000827993289807372 -0.000408066507260085 -7.9777271371021e-05 -0.00248722990963449 -0.00178595229374781 -0.00427693746175597
"327" -0.000117992894992224 -0.000381146096470805 -4.48859541490865e-05 -0.000664217227320629 -0.000200602130588228 -0.000281078759605546 -2.80658657665722e-05 -0.00016202987714541 -0.000906454707034069 -0.00038286175621118 -0.000847052486042756 -0.000402744531024898 -1.7969964438322e-05 -0.0025287648616429 -0.0018163395867402 -0.00427212872706529
"328" -0.000110622920583835 -0.000382100031074854 -5.27682144925439e-05 -0.000661363158073536 -0.000200323744914406 -0.000275325209056133 -1.78302618483792e-05 -0.000151213971885646 -0.000916999591911439 -0.000369625266429061 -0.000863000215911753 -0.000398646856320735 3.87735201687286e-05 -0.00255882766898853 -0.00184682328370102 -0.00425261115253685
"329" -0.000104273404537374 -0.000382880619163047 -6.27101646668882e-05 -0.000658448201338427 -0.000200176557001302 -0.000268779772526479 -8.51338938687196e-06 -0.000139908243851954 -0.000923766393984171 -0.000357807339540838 -0.000875602159165021 -0.000395793824885816 8.99912208020895e-05 -0.00257688440607746 -0.00187715782689497 -0.00421823091696134
"330" -9.90351350667191e-05 -0.000383479993853148 -7.47319363899292e-05 -0.000655493435769451 -0.000200225509210693 -0.00026144088419976 -1.86126629618396e-07 -0.000128126071795905 -0.000926646161165699 -0.000347439018625994 -0.000884677122371004 -0.000394184587138982 0.000135284446109134 -0.00258255050503483 -0.00190710870822161 -0.00416907856189027
"331" -9.49940900582522e-05 -0.000383885347128921 -8.88323069569542e-05 -0.000652499169231358 -0.000200534150797158 -0.000253315411534389 7.10178416894025e-06 -0.0001158934381201 -0.000925565578303712 -0.000338513495264225 -0.00089011090581592 -0.000393789785778184 0.000174330516284943 -0.0025756421584186 -0.00193644257947881 -0.00410556806052643
"332" -9.22097079432021e-05 -0.000384091688604534 -0.000104988187176406 -0.00064947700299757 -0.000201169576836623 -0.000244418080541915 1.33023403648136e-05 -0.000103249995384243 -0.000920490582406737 -0.000330999254060738 -0.00089185190229534 -0.000394570376396594 0.000206886635789461 -0.00255614646717669 -0.00196497478017169 -0.00402832109202543
"333" -9.07394719697728e-05 -0.000384097562569381 -0.000123153657036429 -0.000646422428420813 -0.000202201877318566 -0.000234777585324849 1.83845927398218e-05 -9.0236146767769e-05 -0.000911430125337598 -0.00032482470229708 -0.000889914932313068 -0.000396457233792605 0.000232795134979384 -0.00252423307450876 -0.00199252082276637 -0.00393824769130939
"334" -9.06154110038766e-05 -0.000383902055413179 -0.000143265071296883 -0.000643328888926943 -0.000203698013730411 -0.000224439180049511 2.23268178871098e-05 -7.69112955299751e-05 -0.000898430077753574 -0.000319900575739578 -0.000884380323308517 -0.000399364628895336 0.000251974391591257 -0.00248025003526514 -0.00201893668025537 -0.00383645477359956
"335" -9.18574906277413e-05 -0.000383512595718467 -0.000165230577999883 -0.000640187166732288 -0.000205725166204717 -0.000213445909011464 2.51190474010387e-05 -6.33323880980656e-05 -0.000881571270568301 -0.000316096892240095 -0.000875382062410493 -0.000403193647290377 0.000264433881760158 -0.00242469960382593 -0.00204409714016742 -0.00372425194632036
"336" -9.44669503181955e-05 -0.000382932799414373 -0.000188950442826421 -0.000636982426432787 -0.000208345319387646 -0.000201860794535523 2.6767058049807e-05 -4.95705658433253e-05 -0.00086097489317596 -0.000313268823389173 -0.000863110364847148 -0.000407822660396837 0.000270255990404708 -0.00235822575982599 -0.00206790791441443 -0.00360308517388173
"337" -9.84320226686561e-05 -0.000382173779974077 -0.000214298688202675 -0.000633698735534882 -0.00021161736778084 -0.000189746035844359 2.72798950109588e-05 -3.56963756973311e-05 -0.000836789865526486 -0.000311236897215273 -0.000847798493729638 -0.000413119856159449 0.000269605157234826 -0.00228160517811749 -0.0020902904517324 -0.00347453939449961
"338" -0.000103728078420494 -0.000381246168738872 -0.000241134328266575 -0.00063031387101228 -0.000215594108117998 -0.000177169459080378 2.66869234278988e-05 -2.178188207014e-05 -0.000809195183466025 -0.000309815052964855 -0.000829716578246775 -0.000418939972824291 0.000262716485881911 -0.00219569908278666 -0.00211118305315257 -0.00334025226521184
"339" -0.000110306815473083 -0.000380160504943324 -0.000269301050131052 -0.00062680739311396 -0.000220312105316641 -0.000164209897770871 2.50191364238894e-05 -7.90727339250193e-06 -0.000778392383776515 -0.000308795731983058 -0.000809164984374133 -0.000425127418823412 0.00024989019169914 -0.00210145762157007 -0.00213055112099932 -0.00320190709438469
"340" -0.000118113154808262 -0.000378929693310733 -0.000298635692798053 -0.000623153077852526 -0.000225806309073557 -0.000150939089862138 2.2323175743162e-05 5.85495417962809e-06 -0.000744606272402996 -0.000307955916722348 -0.00078646124020577 -0.000431525813734502 0.000231485740450266 -0.00199987060911946 -0.00214836463141397 -0.00306117467587942
"341" -0.000127079689459459 -0.000377564745521834 -0.000328959478179191 -0.00061933134144017 -0.000232093047914357 -0.000137430991533828 1.86523142929882e-05 1.94316780252707e-05 -0.000708077913097006 -0.000307070443858568 -0.00076193764964158 -0.000437966849949128 0.000207915157825166 -0.00189195752593178 -0.00216460704159408 -0.00291970024674669
"342" -0.000137121290223791 -0.000376076078330634 -0.000360080292083173 -0.000615312814238922 -0.000239173079689623 -0.000123765780989356 1.40681811595478e-05 3.27545807266995e-05 -0.000669060659207116 -0.000305907734363403 -0.000735924859157555 -0.000444286600201931 0.000179638842343578 -0.00177874946629042 -0.00217926567491752 -0.00277905620741277
"343" -0.000148146545384928 -0.000374475211403123 -0.000391805185102939 -0.000611073531918036 -0.000247033330603306 -0.000110010102308888 8.64122326683316e-06 4.57589578964495e-05 -0.000627820723052052 -0.000304240739554359 -0.000708759461894483 -0.000450318132566969 0.000147155270692608 -0.00166126717437989 -0.00219234942392883 -0.00264072951680666
"344" -0.000160047851844151 -0.000372768402892539 -0.000423933584382242 -0.0006065903956718 -0.000255648265026594 -9.62372122033429e-05 2.45181846602569e-06 5.83842359850267e-05 -0.000584625708460111 -0.000301843125256546 -0.000680762826573975 -0.000455899578854647 0.00011099384793738 -0.00154050390608897 -0.00220386133055359 -0.00250609223880436
"345" -0.000172712650023382 -0.000370962782562634 -0.000456255911005119 -0.000601838714118688 -0.000264971248317138 -8.25086354125022e-05 -4.41928836218903e-06 7.05786259116427e-05 -0.000539756161462229 -0.000298498737147588 -0.000652248967510599 -0.000460870218808497 7.17137064697227e-05 -0.00141741565693659 -0.00221381596040427 -0.00237639990502967
"346" -0.000186015700426698 -0.00036905869048091 -0.000488565504927874 -0.000596797016654846 -0.00027493899957476 -6.88830812341001e-05 -1.18801001904722e-05 8.2297607136498e-05 -0.000493485477942473 -0.000294005135090161 -0.000623512947911068 -0.000465081822713797 2.98931954247032e-05 -0.00129291301195154 -0.00222223276244624 -0.00225278232992555
"347" -0.00019982905275648 -0.000367062949615274 -0.000520653551277297 -0.00059143926636751 -0.000285478099846706 -5.54179559703019e-05 -1.98315978428956e-05 9.34989156311235e-05 -0.000446092818628279 -0.000288171775694468 -0.000594838436842913 -0.000468388313621872 -1.38756289673731e-05 -0.00116785530790324 -0.00222914690747882 -0.00213622058835304
