"V1" "V2" "V4" "V5" "V7" "V8" "V10" "V11" "V13" "V14" "V15" "V17" "V18" "V20" "V21" "V23"
"1" 0.000406360186442606 0.000265411958580364 8.69573579263827e-05 0.000335589026346435 8.0851610352081e-05 0.000664187902042919 0.00071391130795779 0.000399741878103581 0.00165698794825903 0.000624222353807555 0.000373470611862332 0.000307368525355424 0.000329228887795565 0.00081841640482205 0.00109011530299852 0.000495379488961334
"2" 0.000393144326092781 0.000270053565473344 7.46687621229389e-05 0.000330916380071569 7.93262280042023e-05 0.000649508150747713 0.000701478557001294 0.000389464571458517 0.00166193941792753 0.000608969129550615 0.000366666848295896 0.000293784541681959 0.000295581530945092 0.000805048556069402 0.0010677746543049 0.000489953238461223
"3" 0.000379794049329758 0.000274602359751784 6.28052533627542e-05 0.000326770961894764 7.85386197221712e-05 0.00063578934884519 0.00068972731534556 0.000379959058246002 0.0016635259112646 0.0005954649955526 0.000361819511889575 0.000281912792878909 0.000264760575375237 0.000792822707326767 0.0010480189384624 0.000486386608602099
"4" 0.000366451712525372 0.000279011383351005 5.14285518096095e-05 0.000323189382159353 7.84607840950462e-05 0.000623093180702078 0.000678697215853892 0.000371345038119323 0.00166191134537681 0.00058372985959239 0.000358892972098205 0.000271720443539687 0.000236904777033099 0.000781843281035312 0.00103109624780987 0.000484725358917071
"5" 0.000353247479674846 0.000283249307379755 4.06050387245027e-05 0.000320194895127636 7.90580392704675e-05 0.00061146309876527 0.000668410363073455 0.000363732494912555 0.00165729013602369 0.000573766802894618 0.000357829254504579 0.000263162323907479 0.000212118409972429 0.000772184054061073 0.00101719682590987 0.000484986738735261
"6" 0.000340315417895912 0.000287273036922658 3.0390305972422e-05 0.000317803252245318 8.02985562434544e-05 0.000600926390333518 0.000658885776116106 0.0003572188320674 0.00164986253518692 0.000565551028989232 0.000358552594526355 0.000256180271549461 0.000190479525119474 0.000763911835388053 0.00100648981919914 0.000487169555315277
"7" 0.000327771680582203 0.000291049393869995 2.08360331469777e-05 0.00031602616168354 8.21290891138549e-05 0.000591503875342391 0.00065013569925214 0.000351888217986826 0.00163983940278392 0.000559039230074125 0.000360972237844253 0.000250702712399449 0.000172042465468732 0.000757067787446088 0.000999090957163762 0.000491256792910605
"8" 0.000315738052713782 0.000294549724937246 1.19869890546021e-05 0.00031486910775062 8.45148028399292e-05 0.000583201565078788 0.000642166322621939 0.000347814747429998 0.00162744821175641 0.000554171563698617 0.000364984442426061 0.000246651166203525 0.000156826862662596 0.000751674904366187 0.000995082834729366 0.000497205210101757
"9" 0.000304318692041604 0.000297748271973273 3.88275952056139e-06 0.000314331139482499 8.74047416514702e-05 0.000576012698267231 0.000634971502287212 0.000345053146461065 0.00161292198474402 0.000550870751184291 0.000370468164123487 0.000243939322974121 0.000144822934507426 0.000747727537790164 0.000994504200629561 0.000504953408420915
"10" 0.000293611961386071 0.000300619894692111 -3.44700904658747e-06 0.000314402021221809 9.07468475214508e-05 0.000569920756741004 0.000628541562956307 0.000343650423409219 0.00159649129551313 0.000549038198291445 0.000377292635434601 0.000242468014711848 0.000135997439617639 0.000745218471928711 0.000997354196109423 0.000514425914622935
"11" 0.000283701580130098 0.00030314299602271 -9.97441765561497e-06 0.000315067837695296 9.44930296416662e-05 0.000564901547609668 0.000622862921783079 0.000343636505991389 0.00157839298339295 0.000548569862489357 0.000385314648866666 0.000242136254003806 0.000130293965250235 0.000744109265357251 0.00100359875511555 0.000525525779557484
"12" 0.000274666025735572 0.00030530364142424 -1.56839010017189e-05 0.00031631011621416 9.85905512990527e-05 0.000560914148505585 0.000617914861474964 0.000345027282324183 0.00155887485920225 0.000549339789548366 0.000394381955404986 0.000242836227564624 0.000127623635739667 0.000744342069977983 0.00101315388299923 0.000538141412263548
"13" 0.000266570692484278 0.000307089284249013 -2.05624235751711e-05 0.000318104280749577 0.000102989371938752 0.000557915886696095 0.000613672208813737 0.000347825877500488 0.00153817496606257 0.000551219045013587 0.00040433503399232 0.000244461877718013 0.000127879879028957 0.000745845135740043 0.0010259070446211 0.000552147965751223
"14" 0.00025946135360703 0.000308481108365393 -2.46062179269338e-05 0.000320418293404027 0.000107635978145409 0.000555851034583674 0.000610103122692328 0.00035201965684724 0.0015165231336561 0.000554064824935079 0.000415009487104369 0.000246897465741116 0.000130932614627698 0.000748532923007994 0.00104170742396209 0.000567403483669638
"15" 0.00025338698257891 0.00030947672611605 -2.78176160623434e-05 0.000323218028656412 0.000112480799980682 0.000554656901915242 0.000607174152538821 0.000357584876609544 0.00149416296576058 0.000557731881663419 0.000426235741498743 0.000250030711126084 0.000136630304727638 0.000752301395962819 0.00106036851887659 0.000583757489533044
"16" 0.0002483630300066 0.000310066844000474 -3.02054525750293e-05 0.00032646180857348 0.000117473865943416 0.00055426518568093 0.000604847774660322 0.000364481688516469 0.00147131239901479 0.000562064273451067 0.00043784198653981 0.000253747484886478 0.000144799308170862 0.000757028138592952 0.00108167085446602 0.000601047212592151
"17" 0.000244411133211967 0.000310243541758281 -3.1783416778824e-05 0.000330110919008544 0.000122566456438681 0.000554600931928392 0.000603080516519831 0.000372660474252295 0.00144819626859992 0.00056691158213883 0.000449659009305229 0.000257941226183842 0.000155255499692801 0.000762585790172855 0.00110536566860405 0.000619106181717899
"18" 0.000241529958693995 0.0003100033094306 -3.25717766479303e-05 0.000334116552902664 0.000127716001074615 0.000555586210994582 0.00060183241697155 0.000382058230999154 0.00142501867263336 0.000572115396331374 0.000461518147151793 0.000262499857508215 0.000167800250810173 0.000768834427142968 0.00113117957068264 0.000637756996303653
"19" 0.000239708455325329 0.000309341873330106 -3.25966666663453e-05 0.000338428908773448 0.000132875355088502 0.000557136115209364 0.000601052533720446 0.000392600207508754 0.00140197029240412 0.0005775230275445 0.000473251602892935 0.000267319052396301 0.000182212668382759 0.000775626659419661 0.00115880930260798 0.00065682086132555
"20" 0.000238927192880692 0.000308262426195809 -3.18904680966056e-05 0.00034299583444698 0.000138009499888046 0.000559162483950047 0.000600696335064792 0.000404201011165925 0.00137923360795765 0.000582980759971373 0.000484700620530769 0.000272299009937751 0.000198267991523224 0.000782799362186165 0.00118792971891822 0.000676117348451553
"21" 0.000239146182930294 0.000306759724724092 -3.04921293969457e-05 0.000347767608447378 0.000143078931640863 0.000561574788940167 0.000600713892224115 0.000416765691265102 0.00135697859922467 0.000588343817276518 0.000495713125535259 0.000277344573491348 0.0002157298073381 0.000790197422502953 0.00121820277684763 0.000695461980655487
"22" 0.000240330876743034 0.000304844509800311 -2.84373817368691e-05 0.000352687773357344 0.000148052188796065 0.000564283277397619 0.000601050807011409 0.000430188995153944 0.00133535153410301 0.000593469098172271 0.000506141975226906 0.000282367139565177 0.000234352528300656 0.000797648917723418 0.0012492586400767 0.000714671402444814
"23" 0.000242417859247588 0.000302513383635648 -2.5772803189902e-05 0.000357703337858632 0.000152890348877003 0.000567201343841058 0.0006016617327205 0.000444359093274513 0.00131447986426884 0.000598221448279354 0.00051585767951135 0.000287281240702771 0.00025389341937858 0.000804992118260616 0.00128073894890742 0.000733574122965106
"24" 0.000245349698882859 0.000299776146634497 -2.25500452866808e-05 0.000362758415209059 0.000157572073070192 0.000570233228485131 0.000602486940396529 0.000459156506177371 0.00129447659044391 0.000602476712430718 0.000524734442470394 0.000292012784793344 0.000274101101441105 0.000812067328469043 0.00131226398907937 0.000751995948619609
"25" 0.000249053973160239 0.000296642578648112 -1.88181918879624e-05 0.00036780254982453 0.000162071148408953 0.000573288845891473 0.00060348010460954 0.000474453613342755 0.00127544060851556 0.000606119124128398 0.000532661041535547 0.000296493203785857 0.000294722949262785 0.00081870251042767 0.00134344684693098 0.000769767174319275
"26" 0.000253456392188321 0.000293126043860088 -1.4630469168096e-05 0.000372781615977031 0.000166361538027071 0.00057628482928302 0.000604585478871121 0.00049012294646662 0.00125744526810533 0.000609042077051611 0.000539543958336992 0.000300665410681797 0.000315514827946687 0.000824746940507297 0.00137391700340727 0.000786732790614009
"27" 0.000258473629660708 0.000289234357042133 -1.00426849114086e-05 0.000377647923894487 0.000170425382812262 0.000579136120219873 0.000605753140438641 0.000506030006071391 0.00124054231918776 0.000611152262848033 0.000545300217443125 0.000304473254029997 0.000336232969169964 0.000830057707122794 0.00140329982335699 0.000802748941111748
"28" 0.000264015675608266 0.000284991523049787 -5.11154456793367e-06 0.00038235377817785 0.000174250213453676 0.000581760814254972 0.000606931311041656 0.000522039704192519 0.00122477031038024 0.000612366406862821 0.000549861940419099 0.000307873149429466 0.000356641872698705 0.000834485912380564 0.00143122561927311 0.000817674579659981
"29" 0.000269993971617032 0.00028041543370978 1.01926338340782e-07 0.000386852490639158 0.000177814572737245 0.000584087624309287 0.000608069909541171 0.000538011191447029 0.00121014222693397 0.000612619921510357 0.000553180280174632 0.000310830276611689 0.000376517462069753 0.000837912712937561 0.0014573550949581 0.000831388359780665
"30" 0.000276316009127876 0.000275531874974891 5.54350255679027e-06 0.000391105782469485 0.000181110424857989 0.000586042021729224 0.000609118537515305 0.000553811080732201 0.00119666460228563 0.000611851886215006 0.000555218368623486 0.000313315388630914 0.00039564241323691 0.000840215127815182 0.001481355147771 0.0008437799393327
"31" 0.00028288433492727 0.000270368507353056 1.11552174959408e-05 0.000395073924894422 0.000184132522498494 0.0005875612298071 0.000610030011955908 0.000569305052851761 0.00118431581087713 0.000610024629673834 0.000555955629243742 0.00031530979596419 0.000413819744154813 0.000841290260761225 0.00150291825508216 0.000854751551567486
"32" 0.000289604714865943 0.000264951201723366 1.68751476190851e-05 0.000398724829595401 0.00018686326133845 0.000588589526957227 0.000610756886160986 0.000584359998270755 0.00117305068751213 0.000607106909920828 0.00055539244454551 0.00031679861569104 0.000430869441262931 0.000841064777420105 0.0015217776438355 0.000864228462791725
"33" 0.000296388202766737 0.000259320436110937 2.26535978263878e-05 0.000402026817385917 0.000189302298347406 0.00058907237522802 0.000611256050990452 0.000598846892766591 0.00116282600611784 0.000603083690914097 0.000553537159092992 0.000317777362875878 0.000446616731043406 0.000839457276371372 0.00153767650111037 0.00087214220872229
"34" 0.000303137175908194 0.000253508489693779 2.84319783311333e-05 0.000404955818772226 0.000191446899914287 0.000588968449804856 0.000611483325721434 0.000612646221031207 0.00115357233914826 0.000597957922830764 0.000550422003661571 0.000318250348713841 0.000460920613403354 0.000836421940860359 0.00155040911403518 0.000878444978194003
"35" 0.000309761914956343 0.000247555072018682 3.41598034696827e-05 0.00040748779492375 0.000193292423800667 0.000588237466765079 0.000611397218170074 0.000625639532962003 0.00114520146896934 0.000591735374725646 0.000546084473353988 0.00031822006241064 0.000473652234239816 0.000831918189881955 0.00155979197756163 0.000883106256637281
"36" 0.000316180165548748 0.000241506875740714 3.97891050037718e-05 0.000409609265892558 0.000194839010452247 0.000586854960513016 0.000610959180074643 0.000637721839006997 0.00113762412156037 0.000584445595531719 0.000540582838603432 0.000317707653828127 0.000484708659988039 0.000825932848812792 0.00156569639687349 0.000886112819792574
"37" 0.000322307882922802 0.000235401933961475 4.52691910362614e-05 0.000411304705485501 0.00019608378023103 0.000584795996265317 0.000610132365274205 0.00064879065494424 0.0011307290423648 0.000576122638065799 0.000533986211459116 0.000316727547419434 0.000494003679856758 0.000818463890356318 0.00156801976861885 0.000887461190010049
"38" 0.000328069471597698 0.000229294178400229 5.0562367286876e-05 0.000412566507774804 0.000197028838340269 0.00058204516025581 0.000608882041281258 0.00065875670205699 0.00112440525737689 0.00056681949186296 0.000526370954192089 0.00031530889984616 0.000501477045793682 0.000809522888427434 0.00156670366587227 0.000887169302978655
"39" 0.000333391071678949 0.000223226721393044 5.56228746505987e-05 0.000413391115936683 0.000197677613589577 0.000578600085757708 0.000607176558593752 0.000667541866924028 0.00111851977773849 0.000556592554567248 0.000517833442792344 0.000313478912886785 0.000507092905208013 0.000799151720354317 0.0015617381479687 0.000885271875616014
"40" 0.000338211884098735 0.000217246402819541 6.04175987613151e-05 0.00041377688475072 0.000198030206147249 0.000574456313778922 0.000604983229978389 0.000675078427346921 0.00111294557159606 0.000545514821272505 0.000508468184453395 0.000311268295105046 0.000510832454806815 0.000787392658831808 0.00155313817904083 0.000881811197500911
"41" 0.000342471988068038 0.000211409047169286 6.49149245100403e-05 0.000413728661076027 0.000198092756379473 0.000569622217731423 0.000602276802671862 0.000681303677306555 0.00110755154176498 0.000533662305170988 0.000498382388565093 0.00030871662540401 0.000512701071380872 0.00077430590078375 0.00154096393995289 0.000876848191403215
"42" 0.000346117789280015 0.000205757297312687 6.90865413207609e-05 0.00041325132731379 0.00019786617256557 0.000564110875370538 0.000599033057526496 0.000686175176216814 0.00110218999807532 0.00052112723198763 0.000487692838132329 0.000305864059906103 0.000512728113866721 0.000759973662761278 0.00152532283603076 0.000870458063871091
"43" 0.00034910797886936 0.000200343742231758 7.29057135949631e-05 0.000412354408550554 0.000197352276851829 0.000557944758803388 0.000595224173339643 0.000689658092571443 0.0010967305032059 0.000508001791516159 0.000476513805731836 0.000302748528152998 0.000510954776825924 0.000744479043043427 0.00150633800382943 0.000862721552894518
"44" 0.000351404409584025 0.000195214868787092 7.63539163022796e-05 0.000411054209806535 0.000196561178974354 0.00055114323242185 0.000590833903358624 0.000691729140393906 0.00109103509788917 0.000494384974029213 0.000464963597479696 0.000299414325857025 0.000507448862048056 0.000727916325727331 0.00148417519690947 0.000853733121287251
"45" 0.00035297620098556 0.000190417170125324 7.94141679866703e-05 0.000409364718345478 0.000195492939281102 0.000543735320101129 0.000585841375543243 0.000692372926528838 0.00108497084178781 0.000480384276395261 0.000453168232416786 0.000295905344347407 0.000502290218510176 0.000710391473577881 0.00145902673909217 0.000843595559505122
"46" 0.00035380457203256 0.000185991242107358 8.20749906711193e-05 0.000407300499493509 0.000194147761211197 0.000535756647796963 0.000580231342582995 0.000691597267908817 0.00107840793991001 0.000466105230344802 0.000441248750651104 0.000292264023125292 0.000495578676661438 0.000692017666640132 0.00143111053831782 0.000832420511746641
"47" 0.000353870656305255 0.000181980069734347 8.43242798758617e-05 0.000404886373604308 0.000192536720299506 0.000527244333593246 0.000573990177844203 0.000689405420981153 0.00107123677640407 0.000451659266751323 0.000429322534938694 0.00028853558865924 0.000487415218984563 0.00067291063337054 0.00140066585633429 0.000820323345752531
"48" 0.000353168809266141 0.000178417406423627 8.61624456321956e-05 0.000402141267554314 0.000190659666399191 0.000518236483630015 0.000567107630767866 0.000685819572744669 0.00106334734996677 0.000437155399938889 0.000417506814430658 0.000284762647588203 0.000477922853537503 0.000653189453879938 0.00136794425758395 0.000807424700899787
"49" 0.000351691949078648 0.000175338538358309 8.75855020777082e-05 0.00039908895794204 0.000188524561398494 0.000508777828285544 0.000559572152095725 0.00068087334966672 0.00105464104309683 0.000422705639588855 0.000405919254695402 0.000280987077641356 0.000467235142690904 0.000632977404428888 0.00133321910288525 0.000793851722169627
"50" 0.000349451965202525 0.00017277033035004 8.85927870538673e-05 0.000395750878000546 0.000186125652855835 0.000498907463383763 0.00055137760363284 0.000674604780063762 0.0010450391023868 0.00040841503895928 0.00039466155137676 0.000277246346558094 0.00045548487033424 0.000612397044581882 0.00129676864061523 0.000779727942292996
"51" 0.000346453340811988 0.000170737044395353 8.91894919736779e-05 0.000392153370560119 0.00018347585084694 0.00048867369520354 0.000542524004665595 0.000667064063124239 0.00103447666812813 0.000394389960317699 0.000383837241522597 0.000273583096234136 0.000442812299641114 0.000591562378464563 0.00125887806509626 0.000765176452422921
"52" 0.000342717943967188 0.000169257083683637 8.93835576250997e-05 0.000388319684649281 0.000180571477414601 0.000478120010776029 0.000533005009304453 0.000658301900505504 0.00102290583877892 0.000380732036391865 0.000373536294702915 0.00027003140104811 0.000429365749591632 0.000570591751715815 0.00121983137347926 0.00075032490000134
"53" 0.00033825780107706 0.000168339168267293 8.91853201171412e-05 0.000384272315906215 0.000177421948171018 0.000467292347618772 0.000522820226955533 0.000648385075042117 0.00101028160830733 0.000367536545226707 0.000363850692699324 0.000266623065013099 0.000415294720288998 0.000549610669375962 0.00117993116517624 0.000735299820345324
"54" 0.000333101784813226 0.000167993559271738 8.85986107994578e-05 0.000380036078289722 0.000174020552809526 0.000456233285330759 0.000511975290048115 0.000637381241240831 0.000996599496987965 0.000354887541717513 0.000354844760970221 0.000263388443665722 0.000400737493188783 0.000528714533717697 0.00113944450916835 0.000720216753196364
"55" 0.000327280747570611 0.000168214505524547 8.76412021560149e-05 0.000375632466864328 0.000170372554725529 0.000444988881485097 0.000500476212979433 0.000625365168032303 0.000981853983972589 0.00034287055996004 0.000346590944270827 0.000260354785012102 0.000385844454962714 0.000508014789736638 0.00109865915393776 0.00070519044418795
"56" 0.000320818934369497 0.000169002363405426 8.63266502804107e-05 0.000371083449997463 0.000166483427338245 0.000433597657723474 0.000488328559586937 0.000612408211700483 0.000966065560138054 0.000331554359992 0.000339139496474959 0.000257546168727191 0.000370751041802515 0.000487597946827111 0.00105784010603354 0.000690328380532281
"57" 0.000313753461281866 0.000170336812471619 8.46637683938837e-05 0.000366409148179272 0.000162349580007821 0.000422098749361818 0.000475543632915832 0.000598592112582938 0.000949270392646755 0.000321004906986684 0.000332533748087896 0.000254980776469416 0.000355596062931294 0.000467560546547384 0.00101724272704434 0.000675733261872139
"58" 0.000306116762350077 0.000172202508431352 8.26701369871827e-05 0.000361626837880259 0.000157972209303727 0.000410532455433116 0.000462135032692584 0.000584003277916934 0.000931514252939655 0.00031127331394746 0.000326804747975125 0.000252676212672903 0.00034050072241873 0.000447978142922447 0.000977113921179938 0.000661499355039118
"59" 0.000297951558478415 0.000174571827066728 8.03582466547166e-05 0.000356754946375469 0.000153356428677519 0.000398929061255171 0.000448117930909538 0.000568718977291512 0.000912868439285397 0.000302403846993772 0.000321972837316967 0.000250646846131803 0.000325592490505877 0.000428918877089331 0.000937672865773578 0.0006477093002068
"60" 0.000289287291002042 0.000177413430546659 7.77426993040855e-05 0.000351808697971994 0.000148496731512491 0.000387323062848355 0.000433509222411148 0.000552823831329767 0.000893419275652624 0.000294429159119 0.000318040481341781 0.000248898247965436 0.000310970172560281 0.000410439620540423 0.000899130048801814 0.000634438964242474
"61" 0.000280161601287426 0.00018068488383016 7.48376015811087e-05 0.000346798770747906 0.000143398138326375 0.000375738046102694 0.000418329372743343 0.000536401904241474 0.000873248653277856 0.000287369830719233 0.000315010151194968 0.000247437177500755 0.0002967485404106 0.000392599696426466 0.000861681982149243 0.000621754708884592
"62" 0.000270610651334669 0.000184341666918261 7.16507409387045e-05 0.000341737502625319 0.000138058446645697 0.000364203986739463 0.000402604900221201 0.000519533176132247 0.000852468875925369 0.000281238248655353 0.000312860984479033 0.000246263299214264 0.00028300696199803 0.000375435982589367 0.000825496746029548 0.000609711119690011
"63" 0.000260673165367636 0.000188333225332188 6.81992040186424e-05 0.000336630362065236 0.000132476931115198 0.000352739960583318 0.000386357901467322 0.000502299332082578 0.000831184886744944 0.000276030312775955 0.000311567610777844 0.000245376032765772 0.000269832641511466 0.000358982361175062 0.000790728662884705 0.000598355385274922
"64" 0.000250380332662035 0.000192603939704311 6.44887891040687e-05 0.000331488202184874 0.000126658714784319 0.000341362730057057 0.000369616829662475 0.000484774496136303 0.000809527972960195 0.000271739069715988 0.000311089769548931 0.000244770188824206 0.000257287907667091 0.000343256054488593 0.000757504326231526 0.000587720107178351
"65" 0.000239764648988048 0.000197091767549842 6.0531915544469e-05 0.000326313610962715 0.000120596259807384 0.000330088970121918 0.000352412003919548 0.000467034411775112 0.000787619126138983 0.000268336820396984 0.000311380737174407 0.000244437019022106 0.000245429657645154 0.000328272693349028 0.000725940275276629 0.000577828512545382
"66" 0.000228855856933101 0.000201730755130739 5.63347968633522e-05 0.000321106488100933 0.000114300979506504 0.000318928375418514 0.000334777227162545 0.000449148943101033 0.000765590709426612 0.000265793603203416 0.00031238087316006 0.000244362421469797 0.0002343040575229 0.000314033226644016 0.000696124917636124 0.000568692021051229
"67" 0.000217681880778831 0.00020644859795899 5.18986132651399e-05 0.000315870388110111 0.000107765667153213 0.000307888060588143 0.000316742945716019 0.000431183282449649 0.000743572169985351 0.000264066712401345 0.000314023162018237 0.000244532120107102 0.000223942616117461 0.000300534103929631 0.000668131639563892 0.00056031516493076
"68" 0.000206271485699501 0.000211175974353825 4.72326353367825e-05 0.000310600709500077 0.000100994851557326 0.000296970131736335 0.000298350269771108 0.000413201976965173 0.000721702355946379 0.000263106852155771 0.000316232345783802 0.000244927473484136 0.000214365329039307 0.000287756472641 0.000642003704644969 0.000552687725344124
"69" 0.000194649536606749 0.000215834809381335 4.23381883326297e-05 0.000305296670422464 9.39887290779066e-05 0.000286178988119211 0.000279632796911427 0.000395259266219515 0.000700107900469064 0.000262848983255561 0.000318923276908371 0.000245527971487166 0.000205579607834332 0.000275683961594441 0.000617780347738151 0.000545791524888846
"70" 0.000182832587638581 0.000220348721826407 3.72124648046301e-05 0.000299952758486489 8.67487463775158e-05 0.000275513548889237 0.000260632452527317 0.000377411588581097 0.000678915474789352 0.000263230443620072 0.000322008748411894 0.000246308977033904 0.000197589045035779 0.000264281550973608 0.000595468211853795 0.000539600174909492
"71" 0.000170841602319064 0.000224638042299624 3.18623820037428e-05 0.00029456037939937 7.92816254639519e-05 0.000264963818772098 0.000241388235275251 0.000359703279650883 0.000658251026004319 0.00026417394862483 0.000325393820630033 0.000247244970740863 0.000190374287747092 0.000253515271786035 0.000575065855970746 0.00053407453333309
"72" 0.00015869791662718 0.0002286238332702 2.62793633532676e-05 0.000289117112259951 7.15894233091959e-05 0.000254529039750338 0.000221943714591014 0.000342180210614725 0.000638226250253652 0.000265601689633292 0.000328978602993607 0.000248308671194438 0.000183918038432897 0.000243343802913058 0.000556548766975952 0.000529169460751801
"73" 0.000146411749404627 0.000232225278110915 2.04647091121488e-05 0.000283608274817297 6.36731663922405e-05 0.000244194187482269 0.000202338812011832 0.000324879211640124 0.000618948421150283 0.00026742662568995 0.000332665340252342 0.000249469072257119 0.000178188524988575 0.000233718898804655 0.000539880501764111 0.000524834723941181
"74" 0.000133997586624153 0.000235366632402872 1.44151078181799e-05 0.000278030334220187 5.55383602459664e-05 0.000233949891492218 0.000182617527710279 0.000307831532286579 0.000600519014293196 0.000269560617922909 0.000336344109724105 0.000250692962889841 0.000173142605953357 0.000224586083787742 0.000525007078620049 0.000521007009736027
"75" 0.000121471518692398 0.000237970354347844 8.12416218099893e-06 0.000272369636469321 4.7194228319211e-05 0.000223781942402655 0.000162820732911646 0.000291067892246855 0.00058302341592668 0.00027191258596014 0.000339916675710046 0.000251949129138753 0.000168734075229064 0.000215892673628294 0.000511865439549795 0.000517621899342193
"76" 0.000108837465796936 0.000239965260324335 1.58881944445398e-06 0.000266618354460735 3.86425320010138e-05 0.000213673133703461 0.000142991314180946 0.000274611929512906 0.000566534188156319 0.00027439105571211 0.000343278536334737 0.00025319891253602 0.000164907296258746 0.000207581514095152 0.000500376290462764 0.000514609303319443
"77" 9.61147783968997e-05 0.000241281524007385 -5.19148474928363e-06 0.000260767225635915 2.98971663277158e-05 0.000203611335669498 0.000123175164160877 0.000258482518590736 0.000551119451490826 0.000276902295197493 0.000346329186817581 0.000254409365699333 0.000161602239468161 0.000199585943678753 0.00049044888957386 0.000511890207675692
"78" 8.33088641969341e-05 0.000241852323995815 -1.22278876117368e-05 0.000254803367017675 2.09568722106628e-05 0.000193575240581424 0.000103406484249829 0.000242693727782786 0.000536820162334809 0.000279351017756757 0.000348969825665948 0.000255537691723104 0.000158756467191243 0.000191854488651403 0.000481989606988848 0.00050938885556972
"79" 7.04290848085682e-05 0.000241615105908303 -1.95215664854526e-05 0.00024871936461535 1.18310405354418e-05 0.000183547023477516 8.37283935774526e-05 0.000227256553610071 0.000523677993991026 0.000281646731026873 0.00035110686271688 0.000256543786980034 0.000156292622374956 0.000184317934990105 0.000474888645087839 0.00050701959575168
"80" 5.74881338389131e-05 0.000240524708206216 -2.7072539514566e-05 0.000242506348947724 2.53738187249177e-06 0.00017351060625627 6.41793507449988e-05 0.00021217991040165 0.000511715201079186 0.00028369960598366 0.000352651092838154 0.000257392781394987 0.000154140980069469 0.000176915558936713 0.000469030483055335 0.000504700024769582
"81" 4.44983899495001e-05 0.000238529983317508 -3.48824609247549e-05 0.000236157636969375 -6.922697841116e-06 0.000163441091278819 4.47991270306722e-05 0.000197466116848432 0.000500939701283587 0.000285424715222443 0.000353519573546221 0.000258040641448886 0.000152223895912289 0.000169581449630161 0.000464292395216863 0.000502338962254916
"82" 3.14696118504917e-05 0.000235588645834296 -4.295209818926e-05 0.000229663938746725 -1.65376030282431e-05 0.000153324344716174 2.56170038115576e-05 0.00018311779294787 0.000491339500526332 0.000286738062299612 0.000353639216944771 0.000258441482020348 0.000150463045725792 0.000162266510135779 0.00046056070806162 0.000499855892838314
"83" 1.84225167378283e-05 0.000231673037455017 -5.12791247504134e-05 0.000223022255824954 -2.62907560062828e-05 0.000143137821292361 6.66897097782206e-06 0.000169131019096413 0.000482902289728767 0.000287562120853283 0.000352939595250759 0.000258556414870978 0.000148778974492468 0.000154897731975318 0.000457696233362355 0.000497157552893806
"84" 5.36993569610425e-06 0.000226760393168987 -5.98587291301201e-05 0.000216226659764559 -3.61779842640032e-05 0.000132864175558665 -1.2016071820955e-05 0.000155505105952783 0.000475586807743152 0.00028782647645599 0.000351365747129643 0.000258340742622868 0.000147092861523539 0.000147432903102653 0.000455576254497782 0.000494163246466439
"85" -7.6678341445686e-06 0.000220835140918046 -6.86806243484033e-05 0.000209273463829576 -4.61794050488613e-05 0.000122484657639527 -3.04109407482506e-05 0.00014222836916887 0.000469347338902199 0.000287462696396035 0.000348863156953834 0.000257748069799773 0.000145324366073317 0.000139804526977753 0.000454064043867376 0.000490781726812967
"86" -2.06649589154411e-05 0.000213895420993416 -7.77389136376822e-05 0.000202164773387186 -5.62901962296086e-05 0.000111982451655629 -4.84898932820777e-05 0.000129299430092766 0.000464123941227957 0.00028641352002358 0.000345396083967496 0.00025673681053294 0.000143395656219146 0.000131974039854292 0.000453034417405104 0.000486935162802806
"87" -3.36003050460867e-05 0.000205946761628951 -8.70176138405627e-05 0.000194897651321337 -6.64933558621563e-05 0.000101341319366479 -6.62347239783189e-05 0.000116706612808254 0.000459845415421382 0.000284624765406274 0.000340933386375787 0.000255261101536598 0.00014123591920913 0.000123887829825171 0.000452355420106763 0.000482541658119432
"88" -4.64438181070546e-05 0.000197006074111791 -9.64999974825608e-05 0.000187475276599882 -7.67760706257912e-05 9.05436072886305e-05 -8.36221016178968e-05 0.000104438563495718 0.000456423826520283 0.000282051199712109 0.00033545656851595 0.000253278186334349 0.000138765143748779 0.000115502829835117 0.000451897450152062 0.000477520962434767
"89" -5.91574612614914e-05 0.000187098305943188 -0.000106167710461266 0.000179899973362555 -8.71250242264728e-05 7.95769033168472e-05 -0.000100640857327363 9.24844624237203e-05 0.000453767614869393 0.000278653778523663 0.000328955929658439 0.000250740686580341 0.000135919497712012 0.000106779457029583 0.000451538509099566 0.000471802476697344
"90" -7.17068583116969e-05 0.000176261413817667 -0.000115996223462515 0.000172180311877683 -9.7527015885918e-05 6.84284820925281e-05 -0.000117277133555597 8.08305698841982e-05 0.000451776777486359 0.000274401270785524 0.00032143101221144 0.000247607066287998 0.000132625789165041 9.76790807556877e-05 0.000451152743768508 0.000465312963738542
"91" -8.40542986513263e-05 0.000164543793103904 -0.00012595574061972 0.00016432354273083 -0.000107965013578644 5.70852150974509e-05 -0.000133523789245113 6.94719365792055e-05 0.000450335144816174 0.000269274611651957 0.000312897888640928 0.000243836101259204 0.000128826017220153 8.81731904723684e-05 0.000450627205234415 0.000457988521965019
"92" -9.61551097207365e-05 0.000151998880417712 -0.000136021504882464 0.000156335424902213 -0.000118429362606496 4.55388258545735e-05 -0.000149378043545578 5.83894360622997e-05 0.000449325235797278 0.000263255449052761 0.000303376301944365 0.000239382931695677 0.000124462880747426 7.82293619694932e-05 0.000449854062828387 0.000449767588275882
"93" -0.000107961120197923 0.000138691328977107 -0.000146158169714577 0.000148228679908523 -0.000128905988615834 3.37829414601992e-05 -0.000164835076028915 4.75774781032582e-05 0.000448623845177322 0.000256336255716593 0.000292901402529045 0.000234207943769401 0.00011948098663161 6.78299417734363e-05 0.000448728449242226 0.000440594997861742
"94" -0.000119420435155682 0.000124703543255955 -0.000156326521738491 0.000140015014763952 -0.000139378994294397 2.18047028647779e-05 -0.000179901210286436 3.70240217978362e-05 0.000448106262518011 0.000248520876760035 0.000281509386501068 0.000228270926725622 0.000113831532079166 5.69444363827195e-05 0.000447145845472311 0.000430417621072102
"95" -0.000130483050459517 0.000110113062393743 -0.000166485603267606 0.000131708368013173 -0.000149832581944349 9.60550978346159e-06 -0.00019457831284186 2.67154592693351e-05 0.000447633920641759 0.000239817626287639 0.000269257114515579 0.000221537949840188 0.000107474120582406 4.55646128292696e-05 0.000445022460373074 0.00041919475657062
"96" -0.000141090111532629 9.50170411373908e-05 -0.000176594670609538 0.000123324527475088 -0.000160260406113203 -2.82239823143904e-06 -0.00020887685462634 1.66467787505049e-05 0.00044708431119458 0.000230237202825613 0.000256201212690069 0.000213970764603099 0.000100366794756651 3.367026503421e-05 0.000442269579971375 0.000406882549814463
"97" -0.000151183583466047 7.95124726546399e-05 -0.000186603337817098 0.000114878365416519 -0.000170639691659536 -1.54780443551013e-05 -0.000222810475899912 6.80686059469168e-06 0.000446315640556173 0.000219808672154634 0.000242409667826924 0.000205541160033927 9.24814204996266e-05 2.12574327415744e-05 0.000438814922130974 0.000393452094632549
"98" -0.000160702180130659 6.37042081354901e-05 -0.000196468724856897 0.000106386230233187 -0.000180966740557267 -2.8362265154809e-05 -0.000236394280349898 -2.81300655249204e-06 0.000445203495868088 0.000208554782719276 0.000227950060108602 0.000196217320501329 8.37848926281416e-05 8.3159526135595e-06 0.000434588681355228 0.000378877094583378
"99" -0.000169589209024167 4.77053817685205e-05 -0.000206139267884329 9.78654893553956e-05 -0.000191225283650346 -4.14729786025019e-05 -0.000249646511638349 -1.22176090277924e-05 0.000443615738420761 0.00019651351371613 0.000212910817179356 0.000185975654249861 7.42602746915276e-05 -5.15195779243115e-06 0.000429536484274058 0.000363137644794195
"100" -0.000177774847335183 3.1634649547439e-05 -0.000215557024457504 8.9338275752948e-05 -0.000201399688840512 -5.48082594619928e-05 -0.000262588336890929 -2.14075266902993e-05 0.000441439708883648 0.00018372670852015 0.000197371499381844 0.000174794687685528 6.38832274699526e-05 -1.91558114756526e-05 0.000423597709675042 0.000346217410411574
"101" -0.000185205372806021 1.56089031025328e-05 -0.000224674950326048 8.08184652067169e-05 -0.000211481684660636 -6.83592763481361e-05 -0.000275240320197417 -3.0395007112226e-05 0.000438545325036681 0.000170243169982621 0.000181424517533228 0.000162655495779162 5.26501711050655e-05 -3.36846336982825e-05 0.000416739689829625 0.00032811636712161
"102" -0.000191811708297789 -2.47100803155457e-07 -0.00023343331071774 7.23310068444573e-05 -0.000221457270330118 -8.21213622446409e-05 -0.000287631958087801 -3.91773158165227e-05 0.000434829351157953 0.000156111164771605 0.000165161190288839 0.000149550792870637 4.05501986892293e-05 -4.87385419846902e-05 0.000408917674262155 0.000308829654610383
"103" -0.000197538445622074 -1.58109757960721e-05 -0.000241784214184351 6.3889458301975e-05 -0.00023131585882972 -9.60868102511307e-05 -0.000299788396843402 -4.77560479569216e-05 0.000430189638386909 0.000141387633337208 0.0001486758695763 0.000135468092042318 2.75812206053609e-05 -6.43058499563053e-05 0.000400109399076475 0.000288368061203164
"104" -0.000202327355833707 -3.0955539511414e-05 -0.000249669473960489 5.55149728832529e-05 -0.000241045728602489 -0.00011024244302927 -0.000311740153054778 -5.61310803578405e-05 0.00042453232950678 0.000126132035823044 0.000132070758203798 0.000120406547541232 1.37503089573698e-05 -8.03781132989999e-05 0.000390301163588331 0.000266745843225362
"105" -0.000206120499170707 -4.55570261505328e-05 -0.000257035894587528 4.72261468736726e-05 -0.000250631712950343 -0.000124578183661921 -0.000323514718603186 -6.43043851821128e-05 0.000417780404660744 0.000110411650563309 0.000115435859109545 0.000104374251561486 -9.43428167222169e-07 -9.69462354824882e-05 0.000379471757295806 0.000243983025842588
"106" -0.000208866516357963 -5.94943431251822e-05 -0.000263833683425431 3.90432601975852e-05 -0.000260065826868294 -0.00013907925265384 -0.000335145770641454 -7.22702765706472e-05 0.000409858670030064 9.42930558062897e-05 9.88787811521153e-05 8.73797529535311e-05 -1.64774297619255e-05 -0.0001139888341292 0.000367629152442639 0.000220109799077522
"107" -0.000210518652150793 -7.26456673724949e-05 -0.000270010767180838 3.09826220361011e-05 -0.00026934120660725 -0.000153729522063762 -0.000346666897481991 -8.0027244419609e-05 0.000400718063005127 7.78435177894426e-05 8.24924719699787e-05 6.94400878659073e-05 -3.28465115500502e-05 -0.000131498650948445 0.0003547674497977 0.000195159009541857
"108" -0.000211032302705924 -8.48985578729893e-05 -0.000275521989178465 2.30615785482575e-05 -0.00027844268934036 -0.000168513304693732 -0.000358105466695219 -8.75716946310013e-05 0.000390305280139924 6.11371039158494e-05 6.63671919264932e-05 5.05771509034298e-05 -5.00248001892325e-05 -0.000149449901118307 0.000340904364416746 0.000169175179636473
"109" -0.00021037111298466 -9.61396376347323e-05 -0.000280321945508247 1.52955657629554e-05 -0.000287359661625545 -0.000183413101920349 -0.000369497164627062 -9.48954404046065e-05 0.000378599316627301 4.42438764453108e-05 5.06041687778907e-05 3.0825424808163e-05 -6.79898897051924e-05 -0.000167825224229425 0.000326053398493348 0.000142204792054304
"110" -0.000208500531439733 -0.000106264478177614 -0.000284367271535986 7.70032406594059e-06 -0.000296078098542572 -0.000198406063752063 -0.000380870646533097 -0.000101992752938043 0.00036557671570226 2.72413876197445e-05 3.52858813483882e-05 1.02206592390094e-05 -8.67117411621849e-05 -0.000186605925587893 0.000310239320219626 0.000114301273474346
"111" -0.000205400857556959 -0.000115175316414299 -0.000287621629167873 2.89934359257537e-07 -0.000304597243044765 -0.000213470893830181 -0.000392258555188049 -0.000108860958335827 0.000351237352680728 1.02017164153571e-05 2.05006605563143e-05 -1.11926353295842e-05 -0.000106162411446688 -0.000205762820697035 0.000293490751791281 8.55274795274994e-05
"112" -0.000201044963694897 -0.000122781026302195 -0.000290051571611513 -6.92234477963024e-06 -0.000312897798706759 -0.00022858644018141 -0.000403687139428188 -0.00011548701786197 0.000335592621689383 -6.80001003953714e-06 6.32909340175091e-06 -3.33613547604103e-05 -0.000126308327423552 -0.000225277720050105 0.000275838003840515 5.59452742426772e-05
"113" -0.00019543067811219 -0.00012900048572713 -0.000291629411294765 -1.39230116719528e-05 -0.00032097109818967 -0.000243728366063288 -0.000415184535734052 -0.000121863602495596 0.000318674564266323 -2.36885315139456e-05 -7.1584408170499e-06 -5.62232161375539e-05 -0.00014711279418652 -0.000245123056529438 0.000257325645322106 2.56266736365678e-05
"114" -0.000188547637402765 -0.000133762638344278 -0.000292333545072042 -2.07031952301873e-05 -0.000328808626184457 -0.000258870085031671 -0.000426776842564886 -0.000127983144623806 0.000300516647261748 -4.03946902881415e-05 -1.98868363784176e-05 -7.97136863843045e-05 -0.000168534672077912 -0.000265270370389582 0.000237991742572013 -5.35037454451762e-06
"115" -0.00018040209935909 -0.000137002902040126 -0.000292140453727321 -2.72553492773716e-05 -0.000336401168541544 -0.000273980710398002 -0.000438484883353769 -0.000133836354093022 0.000281179390810378 -5.68419456215301e-05 -3.17973016203904e-05 -0.000103762214111968 -0.000190529407684145 -0.000285691338345059 0.000217887245575367 -3.69112238335167e-05
"116" -0.000171008703572581 -0.000138674318122317 -0.000291046751652482 -3.35695142044709e-05 -0.000343733844901932 -0.000289038847370601 -0.000450334200226631 -0.000139413306132107 0.000260717527664343 -7.29621374580542e-05 -4.28351729087861e-05 -0.000128285369052614 -0.000213054317938731 -0.000306347719314554 0.000197061798197598 -6.89665333875951e-05
"117" -0.000160389623035436 -0.000138730793885189 -0.000289040731753398 -3.9637576252468e-05 -0.000350801289655118 -0.000304010569668622 -0.000462335447014788 -0.000144700536469489 0.000239218826258206 -8.86887455783882e-05 -5.29471184407073e-05 -0.000153198264470637 -0.0002360633430309 -0.000327218413906318 0.000175568536831872 -0.000101434006984981
"118" -0.000148573880922231 -0.000137147128629587 -0.000286122791027538 -4.54546227610954e-05 -0.000357587669079596 -0.000318866753514759 -0.000474505571855351 -0.000149693814658218 0.000216771104545681 -0.000103955973744972 -6.20986754190915e-05 -0.000178406254831113 -0.000259501499790547 -0.00034826064813342 0.000153463447749446 -0.000134222125796292
"119" -0.000135598822195529 -0.000133905106238537 -0.000282300715295702 -5.10161029014411e-05 -0.000364085736356883 -0.000333577169143301 -0.000486855984688932 -0.000154382291418005 0.000193474136655275 -0.000118699018389157 -7.02519258414884e-05 -0.000203812748170491 -0.000283319581236989 -0.000369446376969196 0.000130805251339489 -0.00016723842368755
"120" -0.000121514763609206 -0.000129001681733152 -0.000277587716493504 -5.6319327397194e-05 -0.000370287030516839 -0.000348108883613059 -0.000499391617381326 -0.000158750874656616 0.000169429241665995 -0.000132863331987978 -7.73859196352305e-05 -0.000229317609850295 -0.000307460338284025 -0.000390730038832566 0.000107656431853262 -0.000200389612177503
"121" -0.000106374235118284 -0.000122446870024892 -0.000272002811951109 -6.13625159962671e-05 -0.000376181100815529 -0.000362427301295175 -0.000512118717916043 -0.000162794520150486 0.000144755184301251 -0.000146385995725339 -8.34762523993652e-05 -0.000254814853414959 -0.000331865934572661 -0.000412071594326834 8.4081249412335e-05 -0.000233577815849775
"122" -9.02405860832478e-05 -0.000114257030492526 -0.000265574255261004 -6.61441873143964e-05 -0.000381752139608589 -0.000376503042394977 -0.000525036468687016 -0.000166505598979987 0.000119583605652729 -0.000159219063027955 -8.85235361270152e-05 -0.000280190768265011 -0.000356482615466672 -0.000433437120298145 6.01359649688294e-05 -0.000266713528410127
"123" -7.31838415422364e-05 -0.000104466123122996 -0.000258330509629982 -7.066283993546e-05 -0.000387000053970427 -0.000390299690030795 -0.000538135815741895 -0.000169870186003137 9.40309164697868e-05 -0.000171314344406593 -9.25226188884256e-05 -0.000305334113213499 -0.000381248241913959 -0.000454781070868932 3.58896932315032e-05 -0.000299695285232914
"124" -5.52859696357753e-05 -9.3121342677127e-05 -0.00025031007980819 -7.49191764928719e-05 -0.000391907000163183 -0.000403786510869286 -0.000551414301387378 -0.000172884227440584 6.82355814585404e-05 -0.000182625072859762 -9.54767662346295e-05 -0.000330131524276016 -0.000406092832205037 -0.000476055054049374 1.14143973175571e-05 -0.000332431050372897
"125" -3.66265000121811e-05 -8.02767383923956e-05 -0.000241563003474849 -7.89148196301198e-05 -0.000396471651052561 -0.000416926020043899 -0.00056485740057676 -0.000175537742955904 4.23344727662757e-05 -0.000193110338671073 -9.74070227545482e-05 -0.000354463668492649 -0.000430961711565834 -0.000497215843157035 -1.32355967808894e-05 -0.000364825615210521
"126" -1.7300808739853e-05 -6.60038374653306e-05 -0.000232134120065519 -8.26513420738262e-05 -0.000400679927409268 -0.000429690004329628 -0.000578445977977065 -0.000177822507683553 1.64563165878087e-05 -0.000202736568695889 -9.8331154252468e-05 -0.000378214192658008 -0.000455780075266564 -0.000518213063231748 -3.79860102741686e-05 -0.000396785500106282
"127" 2.59791221727372e-06 -5.03804654948191e-05 -0.000222080495417802 -8.61303405391344e-05 -0.000404523305374938 -0.000442041536986482 -0.000592165869355049 -0.000179736295150119 -9.25775889956463e-06 -0.000211468091806844 -9.8282601046923e-05 -0.000401268694737317 -0.000480486580795239 -0.000538998242962846 -6.27751931543424e-05 -0.00042822096708559
"128" 2.29685204530205e-05 -3.34995176987677e-05 -0.000211463230435098 -8.93523122856039e-05 -0.000408001502572184 -0.000453947784891428 -0.000605988217971114 -0.000181268525336607 -3.4678094446444e-05 -0.000219279468437903 -9.72963689018059e-05 -0.000423513349779576 -0.000505008311644407 -0.00055951764621595 -8.75337752445437e-05 -0.000459044772794342
"129" 4.37043368451582e-05 -1.54575649714403e-05 -0.000200347945989918 -9.23237390214501e-05 -0.000411103819280796 -0.00046537860524809 -0.000619889211591179 -0.000182419644431634 -5.96662231851443e-05 -0.000226148514190925 -9.54165141194307e-05 -0.000444832821056814 -0.000529278412058329 -0.000579720321646134 -0.000112198309560145 -0.000489171806434979
"130" 6.47016780549877e-05 3.63215448592683e-06 -0.000188801825730006 -9.50438997194989e-05 -0.000413823673459148 -0.000476302071114558 -0.000633835647182189 -0.000183182055000899 -8.40959061212055e-05 -0.000232054402163001 -9.26946480872045e-05 -0.000465121243871668 -0.00055322577254244 -0.000599555623673794 -0.000136706128104689 -0.000518524990657552
"131" 8.58506461483615e-05 2.36552804765768e-05 -0.000176897522194352 -9.75144813519056e-05 -0.000416156854147028 -0.000486692734258881 -0.000647794121950363 -0.000183558382259121 -0.000107848283291349 -0.000236985259376307 -8.91855813426433e-05 -0.000484271246009326 -0.000576773662596684 -0.000618960790300675 -0.000160989559828148 -0.000547023682569986
"132" 0.000107038315195321 4.44835934343035e-05 -0.000164712249834073 -9.97436323508854e-05 -0.000418096884557969 -0.000496515292624132 -0.00066173113648729 -0.00018353989413425 -0.000130808788145141 -0.00024093120043681 -8.49476238539806e-05 -0.000502187206710925 -0.000599852718103652 -0.000637881614844344 -0.000184986433863539 -0.000574593160443769
"133" 0.000128159027074993 6.59881264012681e-05 -0.000152326324443613 -0.000101732401780107 -0.000419647883275941 -0.000505748918929979 -0.000675603888499986 -0.000183129031125963 -0.000152863232151073 -0.000243889902521896 -8.00571198890244e-05 -0.000518773861262524 -0.000622391923829006 -0.000656263242482894 -0.000208638759742182 -0.000601169883964271
"134" 0.000149100949251576 8.80287820168844e-05 -0.000139814813481606 -0.000103479967205834 -0.000420805535731468 -0.000514362450323964 -0.000689372704032008 -0.000182328537055261 -0.000173914978366818 -0.000245860761390826 -7.45789507131441e-05 -0.000533946236118978 -0.000644314828117041 -0.000674044115687016 -0.000231882340748563 -0.00062669143608464
"135" 0.000169755366293342 0.000110469140196838 -0.000127259309138527 -0.000104993585357287 -0.000421569767655565 -0.000522338716079937 -0.000702995915718262 -0.000181139149465164 -0.000193875501313476 -0.000246846649476346 -6.8583462717496e-05 -0.000547621771941304 -0.000665554360615991 -0.000691168018511144 -0.000254661168666562 -0.000651095613499132
"136" 0.000190022922005036 0.000133163776941951 -0.000114743673592239 -0.000106271247508506 -0.000421941867721492 -0.000529650335945993 -0.000716427342535935 -0.000179560749378064 -0.000212663139726503 -0.000246860881554982 -6.21586618587836e-05 -0.000559736987141246 -0.000686031684183286 -0.000707575685916696 -0.000276915564388235 -0.000674335392965972
"137" 0.000209799558700268 0.000155967697044988 -0.000102345041484691 -0.00010731733015732 -0.000421924462041539 -0.000536283936498931 -0.00072962386088037 -0.000177603649751825 -0.000230205179103437 -0.000245914311987238 -5.5380946301081e-05 -0.000570226590737499 -0.000705681899969484 -0.000723213051346509 -0.000298597754419594 -0.000696365063896243
"138" 0.000228997258107932 0.000178739761734559 -9.01435875762986e-05 -0.000108134007262596 -0.000421524182158235 -0.00054221812782252 -0.000742539982949735 -0.000175268054256562 -0.000246444158089258 -0.000244026979902194 -4.83360645208058e-05 -0.000579042569422199 -0.000724434203714674 -0.000738017345226721 -0.000319649040958228 -0.000717140701096363
"139" 0.000247521528347314 0.000201332911494913 -7.8219128779017e-05 -0.000108725190842281 -0.000420745853114737 -0.000547439011512045 -0.000755127014833258 -0.00017256183361508 -0.00026133874632908 -0.000241222682238374 -4.11065380262907e-05 -0.000586144220342908 -0.0007422249299916 -0.00075193678337094 -0.000340022441786645 -0.000736630903416995
"140" 0.000265292690017958 0.000223608854292655 -6.6641761735645e-05 -0.000109087092071363 -0.000419598462139412 -0.000551937639331614 -0.000767339681825703 -0.000169490908598032 -0.000274849997456801 -0.000237528764706192 -3.37790820377919e-05 -0.000591502726908586 -0.000758984294620313 -0.000764918746973479 -0.000359673021991617 -0.00075481088002637
"141" 0.000282239973866114 0.000245430677914518 -5.54848265897488e-05 -0.000109224520657894 -0.000418090149428336 -0.000555700220696634 -0.000779134067563226 -0.000166069034819069 -0.000286955292483349 -0.000232976951155941 -2.64414940713064e-05 -0.000595103826641753 -0.000774653053232009 -0.000776908428585141 -0.000378555965440322 -0.000771655447865802
"142" 0.000298298494170089 0.000266668267087177 -4.4813881251003e-05 -0.000109140226851705 -0.000416228769339149 -0.000558722525550456 -0.000790463539525518 -0.000162303338005129 -0.000297643367455767 -0.000227603973842209 -1.91773002968199e-05 -0.000596938541977507 -0.000789170340126378 -0.000787857384171559 -0.000396631066267006 -0.000787152470015948
"143" 0.000313408981426438 0.000287195218833719 -3.46970445964017e-05 -0.000108833232241282 -0.00041403742687205 -0.000561001582822598 -0.000801290427306545 -0.000158205849187445 -0.000306921819555396 -0.000221448447321964 -1.20705020776592e-05 -0.000597014970253684 -0.000802481058799996 -0.000797719249554439 -0.000413860972177908 -0.000801291860208389
"144" 0.000327527657399031 0.000306896206077169 -2.51912091802951e-05 -0.000108305409228531 -0.000411525033149229 -0.000562532930827312 -0.000811571425855538 -0.00015378967203533 -0.00031479920197066 -0.00021455433930027 -5.21063158540001e-06 -0.000595355297734901 -0.000814540421418382 -0.000806452118740076 -0.000430214184577868 -0.000814073438034935
"145" 0.000340616781759213 0.0003256647993429 -1.63444881170374e-05 -0.000107562023305498 -0.000408710594068379 -0.000563323872637839 -0.000821265750846102 -0.000149069165066723 -0.000321306423859931 -0.000206969016076887 1.32986049931712e-06 -0.00059198911020844 -0.000825297105171319 -0.000814013661812619 -0.000445660463238868 -0.000825499704034087
"146" 0.000352652871232633 0.000343401491743034 -8.20585693808691e-06 -0.000106601658733543 -0.000405608262110391 -0.000563378039407991 -0.000830340100026088 -0.000144060604385177 -0.000326474652853546 -0.000198742487827093 7.46481273432199e-06 -0.000586960304844743 -0.000834712750177243 -0.000820371998815485 -0.000460178117619415 -0.000835583901384707
"147" 0.000363618283657064 0.000360017432306367 -8.12037493822115e-07 -0.000105429514440534 -0.000402245771940539 -0.000562701022722821 -0.000838765764050162 -0.000138776116091513 -0.000330356342910904 -0.000189930520175151 1.31243243957059e-05 -0.000580324778010503 -0.000842747653902814 -0.000825495129455791 -0.000473741610807697 -0.000844337157457992
"148" 0.000373512084392246 0.00037544109689314 5.79883767693586e-06 -0.000104045532295338 -0.00039863724704744 -0.000561306633053136 -0.000846505707349565 -0.000133242297964518 -0.000333010925751147 -0.000180588320546233 1.82337659693609e-05 -0.000572153843311886 -0.000849383441986909 -0.000829361237467809 -0.000486342549503893 -0.000851787460487365
"149" 0.000382335741487913 0.000389608005929842 1.16042387493366e-05 -0.000102455302214207 -0.000394810849888145 -0.0005592092614087 -0.000853540371005177 -0.000127470254693571 -0.000334504992383027 -0.000170776568793549 2.27300610932235e-05 -0.000562523955689295 -0.000854585685050986 -0.000831948258268673 -0.000497964129867073 -0.000857958998035255
"150" 0.000390111032807034 0.000402467032011478 1.65871508288758e-05 -0.000100663548753136 -0.000390788144844091 -0.000556425134764202 -0.000859844820216193 -0.000121483292217234 -0.0003349126934698 -0.00016055502986258 2.65475411477652e-05 -0.000551522804523707 -0.000858345643067234 -0.000833246395612197 -0.000508609621747019 -0.000862887647711698
"151" 0.000396859922758816 0.000413981388497176 2.07346370146654e-05 -9.86742141285229e-05 -0.000386593518787345 -0.000552975674829363 -0.000865402071276177 -0.000115300063028247 -0.000334326493661233 -0.000149989868872293 2.96323754530718e-05 -0.00053925358292296 -0.000860654161351049 -0.000833244986501606 -0.000518271605380478 -0.000866609135192973
"152" 0.000402619463199863 0.000424126719990917 2.4041904961662e-05 -9.64938342922009e-05 -0.000382261074055779 -0.000548881795345326 -0.000870199304164286 -0.000108948558700939 -0.000332831763364743 -0.0001391478783177 3.19299908700013e-05 -0.000525827410072317 -0.000861510537829942 -0.000831947028531756 -0.000526961667404079 -0.000869169905497537
"153" 0.000407436826955412 0.000432892167464343 2.65166868619305e-05 -9.41281551159588e-05 -0.000377808418695316 -0.000544175781891441 -0.000874226447452796 -0.000102447290362265 -0.000330531363129636 -0.000128094434673952 3.33967812873294e-05 -0.000511358175223593 -0.000860921780644037 -0.000829362000703484 -0.000534692334450472 -0.000870616305745863
"154" 0.000411360142086722 0.000440278329877757 2.81694107956926e-05 -9.15842503913764e-05 -0.000373272215406889 -0.000538881195946938 -0.000877477404031865 -9.58235862066732e-05 -0.000327526819315609 -0.000116898498306321 3.39947818627236e-05 -0.000495976428964005 -0.000858899091743371 -0.000825501152074139 -0.000541478676276927 -0.000870998004553971
"155" 0.000414456483637897 0.000446302152671861 2.90174916404442e-05 -8.88725571776353e-05 -0.000368672282170432 -0.00053303355475624 -0.000879954166178911 -8.91024391486325e-05 -0.000323924550071541 -0.000105628299059817 3.36932858046144e-05 -0.000479807226991725 -0.000855475003784166 -0.00082039070933794 -0.000547348268042824 -0.000870376836563336
"156" 0.000416786996895002 0.000450988281159166 2.9083118725246e-05 -8.6000833900462e-05 -0.000364047267326377 -0.000526666874539545 -0.000881657249575199 -8.23119115885135e-05 -0.000319832082378602 -9.43547141618924e-05 3.24593350741347e-05 -0.00046299280548913 -0.000850673264102947 -0.000814060123800091 -0.000552329584859934 -0.00086880671778746
"157" 0.000418430167412723 0.000454377670391536 2.84048961369206e-05 -8.29830478739242e-05 -0.000359416938611249 -0.000519815550484843 -0.000882598226072059 -7.54775765483925e-05 -0.000315367282955751 -8.31455520180274e-05 3.02803588689761e-05 -0.000445673995935681 -0.000844537770697329 -0.000806546597033068 -0.000556459607187296 -0.000866353092448518
"158" 0.000419459384415183 0.000456516915469048 2.70163066361101e-05 -7.98257411817488e-05 -0.000354811353541233 -0.000512521067287311 -0.000882791335183876 -6.8628535454579e-05 -0.000310639154511734 -7.20695154260568e-05 2.71439366484817e-05 -0.000427996106625495 -0.000837119216969322 -0.000797894818634013 -0.000559778284571868 -0.000863080512846963
"159" 0.000419958730308179 0.000457466935770068 2.49597669408669e-05 -7.65441298564316e-05 -0.000350265736096202 -0.000504826172442639 -0.000882249382725106 -6.1794676930815e-05 -0.000305756491538196 -6.11959193528983e-05 2.30431837703207e-05 -0.000410102846547486 -0.000828468547639151 -0.000788164019429743 -0.000562339066756402 -0.000859055247579683
"160" 0.000420014695652934 0.000457297426682488 2.22848629599045e-05 -7.31519225859017e-05 -0.000345796527372909 -0.000496773061897629 -0.000880996309935467 -5.500520858776e-05 -0.000300833632204617 -5.0587562117939e-05 1.79818627881291e-05 -0.000392143312114492 -0.000818655672374386 -0.000777408373382133 -0.000564188594106397 -0.000854346313237865
"161" 0.000419710484743888 0.00045608595866084 1.9046346141388e-05 -6.9662932710224e-05 -0.000341435854979155 -0.000488404285342092 -0.000879055682487725 -4.82929176332175e-05 -0.000295967663272853 -4.03109360255029e-05 1.1965957438347e-05 -0.000374256704933743 -0.00080775160126066 -0.000765705592549957 -0.00056539293443316 -0.000849025835059969
"162" 0.000419133282080194 0.000453910695959653 1.5300705866436e-05 -6.60906430970134e-05 -0.00033721018821967 -0.000479770255671601 -0.000876456891154243 -4.16848042034824e-05 -0.000291272545485048 -3.04268841780137e-05 5.0156870220675e-06 -0.000356589835638951 -0.000795833155410006 -0.000753121197615951 -0.000566008209101814 -0.000843157832862023
"163" 0.000418369297124619 0.000450864500501808 1.11045190368313e-05 -6.2452827533778e-05 -0.000333134949641999 -0.000470917707711451 -0.000873226834847714 -3.52130983466924e-05 -0.000286838632109404 -2.09906245646824e-05 -2.84514791970105e-06 -0.000339277777594831 -0.000782989031761493 -0.000739739126890264 -0.000566103566809025 -0.000836816407349651
"164" 0.000417507148941522 0.000447045820514762 6.52398493815013e-06 -5.87667657717245e-05 -0.000329240902382996 -0.000461895646360215 -0.000869407780997091 -2.891222383802e-05 -0.000282752319506566 -1.20634481172474e-05 -1.15961767534256e-05 -0.000322453969738777 -0.000769317777492971 -0.000725653685332801 -0.000565759111070941 -0.000830071697062806
"165" 0.00041662310414606 0.000442543963986972 1.62136503854453e-06 -5.50471883688129e-05 -0.000325543023716911 -0.000452750262473641 -0.000865030904763471 -2.2809071823809e-05 -0.000279110208980551 -3.69552951387454e-06 -2.11924087789648e-05 -0.000306245253962154 -0.000754908538182508 -0.000710948524327835 -0.000565036811545829 -0.000822988892791987
"166" 0.000415801638441882 0.000437463648228995 -3.53491633902607e-06 -5.1310605535863e-05 -0.000322058146649341 -0.000443534882371908 -0.000860140917078109 -1.69372657638691e-05 -0.000275974140335152 4.06972696120599e-06 -3.15974873143413e-05 -0.000290768535676622 -0.000739873155320843 -0.000695727416156057 -0.000564019298542901 -0.000815633587837386
"167" 0.000415113387233006 0.000431904073809746 -8.87719344730142e-06 -4.75782029739063e-05 -0.000318803366360276 -0.000434294085785442 -0.000854774250402286 -1.13249722219072e-05 -0.000273422621867038 1.11866218328737e-05 -4.276072456276e-05 -0.000276133261218448 -0.000724315019631417 -0.00068008770760667 -0.000562787553015668 -0.000808071423086498
"168" 0.000414628245526346 0.000425964282024828 -1.4343212489931e-05 -4.38631833655339e-05 -0.000315791188649875 -0.000425079935530783 -0.000848975850744429 -5.99915535426407e-06 -0.000271510624419139 1.76160575392955e-05 -5.46300640589485e-05 -0.00026243865270042 -0.000708350716570544 -0.000664133780377095 -0.000561419077932361 -0.000800362263875164
"169" 0.000414414457487081 0.000419748288246859 -1.98631433897022e-05 -4.01840039222394e-05 -0.00031302851306567 -0.000415939525013994 -0.000842791214223218 -9.96132054923938e-07 -0.000270284356331721 2.33261318936956e-05 -6.71522605211964e-05 -0.000249770356719151 -0.000692090745173676 -0.000647973632189814 -0.000559995400079728 -0.000792565762823218
"170" 0.000414524646090713 0.000413348093826965 -2.53781466862885e-05 -3.65589198835757e-05 -0.000310525932081058 -0.000406918696240084 -0.000836263116293083 3.66355807893395e-06 -0.000269787550472521 2.82902315955988e-05 -8.0262575063414e-05 -0.000238200549909502 -0.000675658041338826 -0.000631714682719487 -0.000558597756970607 -0.000784734601978908
"171" 0.000415011523562497 0.000406860928234913 -3.08175396490102e-05 -3.30023273453302e-05 -0.0003082826864954 -0.000398063369332922 -0.00082943644361653 7.95284891544604e-06 -0.000270045988838825 3.24860588988103e-05 -9.38960447257361e-05 -0.000227795680776581 -0.000659160997515551 -0.000615459170734648 -0.000557302242565881 -0.00077691589280321
"172" 0.000415913461421634 0.000400369902188597 -3.61255921129233e-05 -2.95307552539527e-05 -0.000306306639350286 -0.000389415692148467 -0.000822356536203324 1.18460037573356e-05 -0.000271087312382042 3.58983290274431e-05 -0.000107980197307199 -0.000218602834293723 -0.000642723511019916 -0.000599312905915333 -0.000556181854861027 -0.000769152792840443
"173" 0.000417268592164359 0.000393969503590701 -4.12425707479764e-05 -2.61597464845922e-05 -0.000304589395915122 -0.000381020653288524 -0.000815067650404468 1.53213479621908e-05 -0.000272911302898193 3.85153834262546e-05 -0.000122446207163562 -0.00021065349648573 -0.000626465825904723 -0.00058338759694022 -0.000555319791954969 -0.000761493350818525
"174" 0.00041910448127094 0.000387727815634202 -4.61159688892101e-05 -2.29004784582491e-05 -0.00030312820534837 -0.000372911514445615 -0.00080761506507724 1.83586437193498e-05 -0.000275520503577324 4.03361241926563e-05 -0.000137221132105862 -0.000203969955288906 -0.000610497499942478 -0.000567776801115097 -0.000554774799805736 -0.000753965093100936
"175" 0.00042143471353121 0.000381724868706415 -5.06964241500477e-05 -1.97664611419796e-05 -0.00030191476906586 -0.000365126945510464 -0.000800037861706898 2.09368133001225e-05 -0.000278904294482359 4.13607314444678e-05 -0.000152225670695033 -0.0001985534606126 -0.000594931900105559 -0.000552582464700223 -0.0005546184571621 -0.000746600355242966
"176" 0.000424269702237383 0.000376021371036007 -5.4936981659495e-05 -1.6769461460212e-05 -0.000300938455158209 -0.000357696189221172 -0.000792376079874049 2.30478575890742e-05 -0.000283043672174574 4.16018607120893e-05 -0.000167383713847036 -0.000194393925765499 -0.000579877037520816 -0.0005378908435919 -0.000554905560857312 -0.000739420646429426
"177" 0.000427610054040052 0.000370675408648988 -5.87950569400373e-05 -1.39155131658217e-05 -0.000300176358363036 -0.000350653868097395 -0.000784667814782057 2.46704034052726e-05 -0.000287908557576912 4.10728788356632e-05 -0.000182616550770104 -0.000191469427771618 -0.000565433990069602 -0.000523789899292912 -0.000555689232562482 -0.000732444632000029
"178" 0.000431444849701785 0.000365739456543533 -6.22354893854349e-05 -1.12130594585476e-05 -0.000299623548383639 -0.000344020318190518 -0.000776951070350239 2.57982014992224e-05 -0.000293459612059756 3.97946455505408e-05 -0.000197846043851846 -0.000189734683752206 -0.00055170637870633 -0.000510364523697855 -0.000557019288048487 -0.000725686824847944
"179" 0.000435762817017447 0.000361252274662969 -6.52248812239395e-05 -8.6678046174828e-06 -0.000299246844831657 -0.000337819845034724 -0.000769261211461486 2.64242765535645e-05 -0.000299652032930197 3.77955032351557e-05 -0.000212991428184379 -0.000189141871179848 -0.000538777198707613 -0.000497677641208376 -0.000558926099893655 -0.000719150218653157
"180" 0.000440535631124834 0.000357245513315524 -6.77361672048113e-05 -6.28126240866799e-06 -0.000299030647708573 -0.000332070598005619 -0.000761621204551767 2.6544936672374e-05 -0.000306435871035381 3.51056800382671e-05 -0.000227979979244754 -0.00018962112451153 -0.000526736061128607 -0.000485794451999472 -0.000561444528400192 -0.000712838387277308
"181" 0.000445731894819636 0.00035374765581241 -6.97491643079686e-05 -4.05487536717566e-06 -0.000298940869512143 -0.000326782289257929 -0.000754063035787502 2.61574796996931e-05 -0.000313750082758885 3.17658776267473e-05 -0.000242737059947357 -0.000191092834691112 -0.000515654523823416 -0.000474773564878036 -0.000564597089159279 -0.000706748219684097
"182" 0.000451315170829503 0.000350775297718252 -7.12467392665516e-05 -1.98685328880218e-06 -0.000298955479828091 -0.000321968168845756 -0.000746608098149246 2.52651257157248e-05 -0.000321529701095083 2.78201732484494e-05 -0.000257182555735037 -0.000193463338620768 -0.00050560048473629 -0.000464653693802725 -0.000568393437292573 -0.000700868793258039
"183" 0.000457236283507571 0.00034833335070851 -7.22186636478652e-05 -7.49613050080115e-08 -0.000299040478428097 -0.000317632156859244 -0.000739277740031382 2.38727673094788e-05 -0.000329707647949923 2.33157444155271e-05 -0.000271252505603984 -0.00019663330274188 -0.000496627837249016 -0.000455472403632926 -0.00057283733546962 -0.000695186755375625
"184" 0.000463444107250789 0.000346428662189679 -7.26593583159882e-05 1.69152943391647e-06 -0.000299160192864259 -0.00031377565085132 -0.000732088241540416 2.19874415073771e-05 -0.000338201459470614 1.83031867000766e-05 -0.000284877669525524 -0.000200483729294519 -0.000488787310203033 -0.000447259818588946 -0.00057792882914982 -0.00068968948758775
"185" 0.000469882462540004 0.000345050331502536 -7.25664556836993e-05 3.31896671622968e-06 -0.000299283178302015 -0.000310393949667218 -0.000725050432894489 1.96198015935215e-05 -0.000346943741407254 1.28410711436798e-05 -0.000297992588729778 -0.000204901275270952 -0.000482114574811406 -0.000440024473643738 -0.000583652969852106 -0.000684352471538208
"186" 0.000476489113611952 0.000344181671764125 -7.19456612004134e-05 4.82025897058645e-06 -0.000299366776575314 -0.000307484685646734 -0.000718174819343283 1.67871843270694e-05 -0.000355855142922711 6.98560245575832e-06 -0.000310540164549571 -0.000209753621303962 -0.000476633196269044 -0.000433770878229117 -0.000589982835467978 -0.00067915136467682
"187" 0.000483199149233909 0.000343806808340859 -7.08015629861995e-05 6.20783738427793e-06 -0.000299378583796376 -0.000305030967373715 -0.000711465339517351 1.35044244456298e-05 -0.000364855107463032 8.0181437628797e-07 -0.000322464700936667 -0.000214905671961138 -0.000472360294108715 -0.00042849660408638 -0.000596889741288724 -0.000674060086474036
"188" 0.000489945636402601 0.000343897519968922 -6.91516445750857e-05 7.49952458822529e-06 -0.00029927807666635 -0.000303023713281235 -0.000704922995186748 9.79407553212087e-06 -0.000373862001699128 -5.65014785551823e-06 -0.000333712312536151 -0.000220221926290221 -0.00046929903763244 -0.000424187371076807 -0.000604339339251748 -0.000669050519174131
"189" 0.000496657868469508 0.000344418738032004 -6.70120144086991e-05 8.7146608676345e-06 -0.000299025986356847 -0.000301440334403569 -0.000698544394526317 5.67290608579646e-06 -0.00038279745869293 -1.23034154896862e-05 -0.000344246359702393 -0.000225557973055109 -0.000467443951783721 -0.000420818410021608 -0.000612281408261966 -0.000664094338796631
"190" 0.000503266304449927 0.000345334874293613 -6.44039264961769e-05 9.8716989184064e-06 -0.000298578948534338 -0.000300263897260297 -0.000692323722900566 1.16961329038059e-06 -0.000391585412221846 -1.90933368449474e-05 -0.000354018800306156 -0.000230774993198045 -0.000466778440874257 -0.000418355275080561 -0.000620661754193759 -0.000659159855534323
"191" 0.000509695787615097 0.000346605969284486 -6.13481248013411e-05 1.0993205414153e-05 -0.000297901826663909 -0.000299469118629853 -0.000686251002530075 -3.69131282765859e-06 -0.000400147240289081 -2.59502088329173e-05 -0.000362997251061339 -0.000235724467669723 -0.000467271677525077 -0.000416757116558857 -0.000629421596516169 -0.000654215234847744
"192" 0.000515879515745507 0.000348180466051084 -5.78752182905448e-05 1.21058237912685e-05 -0.000296952716514852 -0.000299030146941152 -0.000680315026804518 -8.87943736088381e-06 -0.000408416290765077 -3.281244872662e-05 -0.000371158788115698 -0.00024027186930701 -0.000468889842984473 -0.000415975525027598 -0.000638497971633403 -0.000649233888325855
"193" 0.00052174495698723 0.000350011400813492 -5.4014741463415e-05 1.32341131906237e-05 -0.000295696288917561 -0.000298919297243813 -0.000674495340290782 -1.43646109400684e-05 -0.000416321204090616 -3.96125479435996e-05 -0.000378477640357391 -0.000244277662021055 -0.000471580422325413 -0.000415952994169428 -0.000647814216933126 -0.000644181774007939
"194" 0.000527228290166385 0.000352050555637137 -4.97980264293311e-05 1.44067774077444e-05 -0.000294093322260048 -0.00029910301099486 -0.000668779682172871 -2.0117137504348e-05 -0.000423798819909585 -4.62897049726682e-05 -0.000384940186675795 -0.000247610754613646 -0.00047529734907157 -0.000416633472232782 -0.000657307931080669 -0.000639040052520578
"195" 0.000532267490592689 0.000354244380090623 -4.52620396554614e-05 1.56493230837572e-05 -0.000292106364754311 -0.000299553538536003 -0.000663141466184514 -2.61023957851772e-05 -0.000430790198747585 -5.27832788311458e-05 -0.00039053553861136 -0.000250141515487212 -0.00047996439788036 -0.000417944485827961 -0.000666888480325571 -0.000633775552548
"196" 0.000536797061403558 0.000356539144167256 -4.04408287286951e-05 1.69929732394588e-05 -0.000289706058501455 -0.000300235695558925 -0.000657558590225115 -3.22909050153077e-05 -0.000437245207884452 -5.90353914597842e-05 -0.000395265523277817 -0.000251756796351473 -0.000485517171403483 -0.000419819650579697 -0.000676486784307821 -0.000628369658422227
"197" 0.00054077008142159 0.000358884672426753 -3.53686399582257e-05 1.84664386280164e-05 -0.000286857755302969 -0.000301118286685625 -0.000652005466682509 -3.8648441025152e-05 -0.000443111004535428 -6.49926081814044e-05 -0.000399128988048707 -0.000252342188148757 -0.000491875798908558 -0.00042218717591972 -0.000686020272082778 -0.000622805746358604
"198" 0.000544132569436133 0.000361223979521329 -3.00873907459357e-05 2.01008117224211e-05 -0.000283534248950697 -0.000302165883602044 -0.000646458275735264 -4.51412666072631e-05 -0.000448358732916971 -7.06029243443983e-05 -0.000402136372431359 -0.000251802294960715 -0.000498952428823844 -0.000424967238550012 -0.000695404999425631 -0.00061706563434695
"199" 0.000546839819757782 0.000363508714329832 -2.46369174547444e-05 2.19234017597303e-05 -0.000279711536173966 -0.000303346985682332 -0.000640886487052278 -5.17332714278004e-05 -0.000452946922683615 -7.58223497236171e-05 -0.000404305066678434 -0.000250050319376445 -0.000506661207622525 -0.00042808480658954 -0.000704562583783133 -0.00061114106193285
"200" 0.000548854601792858 0.000365692278136655 -1.90482578463655e-05 2.3962353932148e-05 -0.000275367322477244 -0.000304629279314789 -0.000635265988208291 -5.83963021435853e-05 -0.000456851688021877 -8.06103817236559e-05 -0.000405655410368533 -0.00024700883406715 -0.000514908392339505 -0.000431467952252569 -0.000713418168603083 -0.000605024649501755
"201" 0.000550150477764241 0.000367724518804574 -1.33629936786498e-05 2.62481491329432e-05 -0.00027048126139099 -0.000305976000058451 -0.000629565617015204 -6.50964563954545e-05 -0.000460056884154536 -8.49301753173048e-05 -0.000406212997107426 -0.000242619648139602 -0.000523592996664247 -0.00043503660326247 -0.000721889466053912 -0.000598711113394694
"202" 0.000550701328559891 0.000369567084106821 -7.61605751677942e-06 2.88063765024433e-05 -0.00026503532192003 -0.000307360567787401 -0.000623756474759754 -7.1802607155905e-05 -0.00046254965655319 -8.87494887770045e-05 -0.000406007282256142 -0.00023682848061189 -0.000532618110964245 -0.000438720615261188 -0.000729910596111825 -0.00059220847904799
"203" 0.000550491424155857 0.000371178230489732 -1.8400199855464e-06 3.16607687904524e-05 -0.000259020135367303 -0.00030875613658787 -0.000617814897197411 -7.84873246320102e-05 -0.000464324025234404 -9.20479305973039e-05 -0.0004050799768743 -0.000229605320451863 -0.000541884960816184 -0.000442450870824289 -0.000737410141187595 -0.000585523247134005
"204" 0.000549508941645836 0.000372519654487911 3.9248826278428e-06 3.48360154615095e-05 -0.000252432767551731 -0.000310128585478864 -0.000611714422773317 -8.51162386919621e-05 -0.000465392956182198 -9.48016320071515e-05 -0.000403467543909475 -0.000220935789649959 -0.000551287851802752 -0.000446154708669846 -0.000744315839670433 -0.000578661791305145
"205" 0.000547758489377619 0.00037356691298834 9.64718795380573e-06 3.83498761442227e-05 -0.000245269759844915 -0.000311456586509081 -0.000605429519622106 -9.16685060021669e-05 -0.000465758419969211 -9.70020928043174e-05 -0.000401219311730459 -0.000210813477598124 -0.0005607349058411 -0.000449779327892835 -0.000750585291404787 -0.000571649524828267
"206" 0.000545241460363903 0.000374292415520126 1.53031480930853e-05 4.22235095105239e-05 -0.000237527293388922 -0.000312717963560528 -0.00059894168925871 -9.81160068193845e-05 -0.000465438927266427 -9.86420443538185e-05 -0.000398379422548203 -0.000199252239702103 -0.000570121420496442 -0.00045326733703376 -0.000756157412726091 -0.000564503567291557
"207" 0.000541973429509879 0.000374673935454004 2.08609733318946e-05 4.64712772859518e-05 -0.000229214479749924 -0.000313891429267395 -0.000592225504679878 -0.000104440631455874 -0.000464456767007099 -9.97196139519147e-05 -0.00039500413336869 -0.000186282364442614 -0.00057936159992024 -0.000456568923444421 -0.000760994119891271 -0.000557256338147039
"208" 0.000537970987637621 0.000374693641499093 2.62917344232871e-05 5.11039558869848e-05 -0.000220340842026017 -0.000314956708363808 -0.000585268968376868 -0.00011061714156702 -0.000462855509791506 -0.00010024139378456 -0.000391140102572593 -0.000171947748274311 -0.000588352010822489 -0.000459638777353623 -0.000765047906797915 -0.000549935157855576
"209" 0.000533266941841124 0.000374347394116686 3.15782633602825e-05 5.61300251614106e-05 -0.00021092465162141 -0.000315901973663771 -0.000578054907394816 -0.000116629369658631 -0.000460656354559937 -0.000100218887266965 -0.000386851105099159 -0.000156308656691883 -0.000597015928005742 -0.000462448795422729 -0.000768302534465477 -0.000542579152934073
"210" 0.000527891584186625 0.000373625171510358 3.66955949582409e-05 6.15558449889985e-05 -0.000200982294680441 -0.00031671456843813 -0.000570574990967581 -0.000122463789719761 -0.000457913915535047 -9.9671277846794e-05 -0.000382188402650533 -0.000139439477252841 -0.000605269458968967 -0.000464966328617283 -0.000770727994776863 -0.000535227239423423
"211" 0.000521882675288619 0.000372524478744291 4.16309482466518e-05 6.73828191481688e-05 -0.000190536425818583 -0.000317384081571502 -0.000562820436424873 -0.000128101926252738 -0.000454667621936233 -9.86201374738731e-05 -0.000377213895098996 -0.000121430654589702 -0.000613032929810131 -0.00046717221542639 -0.000772316981171868 -0.000527921900126233
"212" 0.000515286965471942 0.000371057618342673 4.63666550941332e-05 7.3604552354698e-05 -0.00017962080597959 -0.000317905254399063 -0.000554788745431185 -0.00013353635287337 -0.000450971148697448 -9.70949696683174e-05 -0.00037198695870992 -0.000102385708077454 -0.000620247140228501 -0.000469063896690477 -0.000773068195943582 -0.00052071422598958
"213" 0.000508149628332553 0.000369223512080714 5.08889138604138e-05 8.02164290803563e-05 -0.000168260440375165 -0.00031827546235969 -0.000546481240065544 -0.000138755572351407 -0.00044688573192563 -9.5130237877618e-05 -0.00036656245273305 -8.24187801019838e-05 -0.0006268384162381 -0.000470628536756593 -0.000772980865820044 -0.000513650770421154
"214" 0.000500524890365667 0.000367042555682695 5.51917520173177e-05 8.72079530265231e-05 -0.000156496778810477 -0.000318496704220466 -0.000537903327336674 -0.000143754950889002 -0.000442464490911321 -9.27630667836423e-05 -0.000361002360317218 -6.16584301000774e-05 -0.000632761170490695 -0.000471881822725617 -0.000772078695809456 -0.000506785420070104
"215" 0.000492470890910453 0.000364534330832119 5.92678071809862e-05 9.45621352685767e-05 -0.000144363357440312 -0.000318567420287387 -0.00052906281027908 -0.000148529684556151 -0.000437768645750058 -9.00382527684838e-05 -0.000355362134415227 -4.02409689385312e-05 -0.000637968227654809 -0.000472838919237324 -0.000770384382403284 -0.000500173281537927
"216" 0.000484045394403454 0.000361714808764787 6.31133943742043e-05 0.000102260459534899 -0.000131905403308186 -0.000318496212946776 -0.000519973582421735 -0.000153078154036688 -0.000432868151151515 -8.70022043511028e-05 -0.000349698269676907 -1.83159385509303e-05 -0.000642422182374722 -0.000473519127909046 -0.000767928436436741 -0.000493868736995491
"217" 0.000475306887661212 0.000358610645682745 6.67257088145333e-05 0.000110278333957393 -0.000119170052772445 -0.000318295801043369 -0.000510653914300935 -0.000157398327426658 -0.000427825575987502 -8.37032598577997e-05 -0.000344062072983394 3.96366124243719e-06 -0.000646093929710098 -0.00047396186798402 -0.000764755532423008 -0.000487928927432865
"218" 0.000466320338526175 0.000355249674165349 7.01091972168899e-05 0.000118586095781242 -0.000106204349696307 -0.000317970416014677 -0.000501125977099626 -0.000161495550679133 -0.000422711202142096 -8.01974257502531e-05 -0.000338504736341005 2.6431370840183e-05 -0.000648957913436765 -0.000474196059470686 -0.000760915216107148 -0.00048240732268632
"219" 0.000457147769189986 0.000351661196709896 7.32679756078084e-05 0.000127154687638082 -9.30569695832539e-05 -0.00031753572728313 -0.000491416355812977 -0.000165371416550406 -0.000417589359062917 -7.65400642208282e-05 -0.000333075809894655 4.89207207306534e-05 -0.000651011751929693 -0.000474279204946989 -0.000756467383876555 -0.00047736406719135
"220" 0.000447849344601031 0.000347883327824584 7.62060395229335e-05 0.000135948266841678 -7.97813621206466e-05 -0.000317010415689371 -0.000481552451883456 -0.000169030805214565 -0.000412520896301913 -7.27858836767982e-05 -0.000327816431945735 7.12645268530771e-05 -0.000652251461099251 -0.000474264428368338 -0.000751482671799147 -0.000472851532679205
"221" 0.000438486931566493 0.000343938114230096 7.8930706403551e-05 0.000144925740936792 -6.64368516350161e-05 -0.000316409303230493 -0.000471569893231043 -0.000172482893664603 -0.00040758647551491 -6.89949496803302e-05 -0.000322769382353578 9.3284464882885e-05 -0.000652675356432835 -0.000474202644971784 -0.000746022190123795 -0.000468922241350163
"222" 0.000429121584182493 0.0003398678512832 8.14516902190006e-05 0.000154046236578031 -5.30685926171118e-05 -0.000315753299945168 -0.000461504432609822 -0.000175734083139172 -0.000402838526119303 -6.5226648889299e-05 -0.00031797293671894 0.000114810613318435 -0.00065230672394795 -0.000474169801568209 -0.0007401810045171 -0.000465627848414636
"223" 0.000419806435313427 0.000335704056615189 8.37829351304132e-05 0.000163265031527889 -3.97363335456712e-05 -0.000315059592445939 -0.000451397264019267 -0.000178794433747615 -0.000398345733982407 -6.15394282628235e-05 -0.000313452955529933 0.000135670065933626 -0.00065115848863487 -0.00047422429376414 -0.000734030706309408 -0.000463012480115854
"224" 0.000410598084212527 0.000331483234013135 8.59368580185726e-05 0.000172533484811749 -2.65011388237049e-05 -0.000314354737658808 -0.000441290771055153 -0.00018167166309716 -0.000394165172724318 -5.79915222560193e-05 -0.000309243516694247 0.000155694328049934 -0.000649267410598798 -0.000474444782738827 -0.000727667158887884 -0.000461120515157276
"225" 0.000401548068862865 0.000327237939059243 8.79237716386068e-05 0.000181800786352567 -1.34113745492132e-05 -0.000313655052537845 -0.000431228595321138 -0.000184378317313816 -0.000390352228139585 -5.46403873739126e-05 -0.000305362241306242 0.000174718333850058 -0.000646667527662101 -0.000474902859680527 -0.000721182271059258 -0.000459992292614583
"226" 0.000392703232075154 0.00032300272720526 8.97622206644762e-05 0.000191016565843993 -5.20172139951353e-07 -0.000312987989599894 -0.000421260655481182 -0.00018692516483864 -0.000386959980004127 -5.15401932995349e-05 -0.000301832043621124 0.000192589562714128 -0.000643399341345608 -0.000475673693205712 -0.000714670737932275 -0.000459661079690925
"227" 0.000384102516603076 0.000318803781475849 9.14635051943505e-05 0.000200124073585461 1.21112972297881e-05 -0.000312372903151678 -0.00041143594285227 -0.00018931900396308 -0.000384045359047578 -4.87456306869481e-05 -0.000298663973387887 0.000209150180681459 -0.000639513057093857 -0.000476828646563364 -0.000708227018464196 -0.000460151717544493
"228" 0.000375782942786392 0.000314678172197158 9.30420323576052e-05 0.000209073557766635 2.44381744940957e-05 -0.000311833697059561 -0.000401801208577944 -0.000191573319824501 -0.000381638976463766 -4.63031403345115e-05 -0.000295865022197298 0.000224268271276468 -0.000635059552666283 -0.000478444808108913 -0.00070195036026308 -0.000461488616110201
"229" 0.000367778404700953 0.000310645295966792 9.45164398874743e-05 0.000217806567420791 3.64027845648038e-05 -0.000311388129678053 -0.000392411581151021 -0.000193700792130432 -0.000379789743883954 -4.42597618715096e-05 -0.000293440321229707 0.00023781184253126 -0.000630097483949541 -0.00048058956235473 -0.000695932171071951 -0.000463684429478554
"230" 0.000360112962725661 0.000306732154699351 9.58957665010779e-05 0.000226269725949652 4.79643997825379e-05 -0.000311059016372395 -0.000383312875485692 -0.000195707327534339 -0.000378526979986501 -4.2656349877894e-05 -0.000291386074864395 0.000249665830261707 -0.00062468674178566 -0.000483331157463046 -0.000690268569550044 -0.000466751155330762
"231" 0.000352804569091699 0.000302960205762976 9.71937811825318e-05 0.000234407212304013 5.90698112436293e-05 -0.000310867668790668 -0.000374561616883213 -0.00019760328740816 -0.000377878934291529 -4.15313214409164e-05 -0.000289697172403593 0.000259725418322115 -0.000618889558847995 -0.000486726136975799 -0.000685048710145044 -0.000470685283728441
"232" 0.000345871635346287 0.000299350239478609 9.84279423310209e-05 0.000242168342223444 6.96878730024261e-05 -0.000310824935525766 -0.000366202966655031 -0.000199397498570787 -0.000377867078004369 -4.09140477378363e-05 -0.000288360439258431 0.000267908241935387 -0.000612770000548152 -0.000490834416827763 -0.00068035497836937 -0.000475479921301742
"233" 0.0003393166157951 0.000295914108340372 9.96058640608814e-05 0.000249498856296733 7.97704789911462e-05 -0.000310952375331758 -0.000358286410971932 -0.00020109629650543 -0.000378507721648286 -4.08322333935991e-05 -0.000287362055025625 0.000274137448974021 -0.00060639910440888 -0.000495701474771226 -0.000676270879396592 -0.000481123440154905
"234" 0.000333144369726733 0.000292666137908906 0.000100739834273913 0.000256349254451999 8.92839944932827e-05 -0.000311256723696428 -0.000350857097117294 -0.000202705253136897 -0.000379805121082671 -4.13043967292037e-05 -0.000286682791723581 0.000278361903990651 -0.000599833445583294 -0.000501366495483237 -0.000672863932749484 -0.000487591516896188
"235" 0.000327346421835216 0.000289610371081532 0.000101835387736838 0.000262672992086659 9.82010789735286e-05 -0.00031175207060559 -0.000343962092289846 -0.000204230201689502 -0.000381762682385549 -4.23492355904342e-05 -0.000286297272093161 0.000280541222894167 -0.000593143210638695 -0.000507858348245035 -0.000670202865440892 -0.000494851422809926
"236" 0.000321911667897632 0.000286750056168972 0.000102897085949477 0.000268425844713527 0.000106491080286266 -0.000312444037338444 -0.000337640931174325 -0.000205675252119058 -0.000384381375367981 -4.39696459561758e-05 -0.000286179134455965 0.000280654941028344 -0.000586388729964044 -0.000515195150226256 -0.000668334821582637 -0.00050286188581377
"237" 0.000316825597395099 0.000284085418809847 0.000103934741092614 0.000273566491468003 0.00011413072176516 -0.000313338195841646 -0.00033193044574047 -0.000207042785842619 -0.000387644058709861 -4.61709096768677e-05 -0.000286294193176349 0.000278702327296874 -0.000579627330824932 -0.000523384768758974 -0.000667308064120459 -0.000511579904513205
"238" 0.0003120607750523 0.000281618836602949 0.000104947892689665 0.000278059516633411 0.000121102465472833 -0.000314434508145583 -0.000326863257249906 -0.000208332872551737 -0.000391525888698926 -4.89461771270992e-05 -0.000286616714560158 0.000274701482930779 -0.000572916002357963 -0.000532430806175947 -0.00066716155244031 -0.000520949065666277
"239" 0.000307594302361733 0.000279337241899259 0.000105935259954599 0.000281870973441186 0.000127394671425758 -0.000315731625279957 -0.000322471523480612 -0.000209543778116575 -0.000396012041810309 -5.22851925810639e-05 -0.000287105373817654 0.000268683520617002 -0.000566305777515005 -0.000542310794094831 -0.000667909856752581 -0.000530905876987035
"240" 0.000303387249917888 0.000277229108647351 0.000106893583780934 0.000284973243625048 0.00013299015685014 -0.000317222629059868 -0.000318778282599494 -0.0002106754232875 -0.000401065674552958 -5.61676042233512e-05 -0.000287720310848419 0.000260700437272173 -0.000559846426033536 -0.000552997706197661 -0.00066956453384358 -0.00054137963474308
"241" 0.00029940523608353 0.000275284774005225 0.000107818829715938 0.000287344490412146 0.000137896182406339 -0.000318897347931245 -0.000315800574334236 -0.000211725395363284 -0.000406646667915225 -6.05685724284507e-05 -0.000288424611119189 0.000250826351076718 -0.000553569251388276 -0.000564455290908823 -0.000672121309865017 -0.000552293322219878
"242" 0.000295601987628865 0.000273485995492447 0.000108706463563249 0.00028896854516112 0.000142103686955948 -0.000320745934972554 -0.000313558261461397 -0.000212691456575529 -0.000412711410137254 -6.54598026192218e-05 -0.000289176631777225 0.000239143488728599 -0.000547517063010697 -0.000576628118019834 -0.000675567296853798 -0.000563566288680587
"243" 0.00029193098744387 0.000271808577984808 0.000109538078276333 0.000289831673872156 0.00014561867480222 -0.00032275276808492 -0.000312057227304964 -0.000213566443623238 -0.000419212166887623 -7.08010918096577e-05 -0.000289933408393409 0.000225753847529191 -0.000541710145425172 -0.000589450159941458 -0.000679868100845818 -0.000575104732778055
"244" 0.000288348183941545 0.000270231910600133 0.000110308806751422 0.000289931093416246 0.000148451276690176 -0.000324897684883054 -0.000311298501193955 -0.000214344654451187 -0.000426085823950043 -7.65532782493526e-05 -0.000290655791909705 0.000210777590093424 -0.000536173139855982 -0.000602847053416226 -0.000684987567287372 -0.000586818250145674
"245" 0.000284794852247634 0.000268731857790505 0.000111000448235413 0.000289265462843072 0.0001506122818652 -0.000327156979441973 -0.00031128056483995 -0.0002150190422569 -0.000433278134448412 -8.26675024139033e-05 -0.000291296476503961 0.000194344245552793 -0.0005309132066309 -0.000616729500037052 -0.000690862459025609 -0.000598603002193547
"246" 0.000281221653668305 0.000267277551017969 0.000111594409915945 0.000287841343921713 0.000152122427729362 -0.000329506167126165 -0.000311995278196294 -0.000215588228225768 -0.000440721104211969 -8.90875065938188e-05 -0.000291814319657054 0.00017659985467651 -0.000525937917439287 -0.000630994430393943 -0.000697428568178918 -0.000610359802188115
"247" 0.000277570168774227 0.000265845333960079 0.000112070770540547 0.000285674545240982 0.000152998979353758 -0.000331918778990961 -0.000313423581667022 -0.000216041836586659 -0.000448341555179274 -9.57610272154531e-05 -0.000292171812477231 0.000157699359604064 -0.000521244640630297 -0.000645542993905402 -0.000704607224720879 -0.000621984357551285
"248" 0.000273786699275229 0.000264400913571903 0.000112408312796502 0.000282782749217543 0.000153272137478595 -0.000334366655866705 -0.000315546555710447 -0.000216372725352298 -0.000456067379889402 -0.000102623741738895 -0.000292327793167177 0.000137809934135987 -0.00051681754932362 -0.000660250953948025 -0.000712305810217299 -0.000633364073615283
"249" 0.000269810799635897 0.000262914484155926 0.000112585111472343 0.000279190806695755 0.000152963743824909 -0.000336810882555515 -0.000318333652215706 -0.000216578446379137 -0.000463820367828211 -0.000109614604480997 -0.000292245903360059 0.000117104631897692 -0.000512642611816987 -0.000674993528158791 -0.000720421660911174 -0.000644393793225402
"250" 0.000265592564973718 0.000261350733213007 0.000112572789534242 0.000274928662636852 0.000152106943567829 -0.000339223245407716 -0.000321751774557808 -0.000216648341835814 -0.000471528093955139 -0.000116664673904049 -0.000291882433164785 9.57645807304991e-05 -0.000508686169953383 -0.000689634313569308 -0.000728837623158292 -0.000654956497115711
"251" 0.000261073386801165 0.000259682263077194 0.000112341987021352 0.000270038497029791 0.000150739227344949 -0.000341563311542477 -0.000325764017252723 -0.000216581273102118 -0.000479097919965231 -0.000123706465078369 -0.000291216123272072 7.39743400190412e-05 -0.000504918713328927 -0.000704041690247385 -0.00073744066013678 -0.000664948456348867
"252" 0.000256201592624767 0.000257873013743635 0.000111866124904555 0.000264557896996393 0.000148894228963602 -0.000343796020170791 -0.000330320699281139 -0.00021637429777207 -0.000486458213998812 -0.000130670016526952 -0.000290201755820831 5.19279655168836e-05 -0.00050129569981259 -0.000718068567229207 -0.000746092262652752 -0.000674255562863179
"253" 0.000250928170292773 0.000255890945755797 0.000111118164422871 0.000258536077709103 0.000146609723275642 -0.000345886606614088 -0.000335373350075182 -0.000216020670287572 -0.000493521369688762 -0.000137485709384547 -0.000288822106937187 2.98136760042743e-05 -0.000497773966127731 -0.000731573566333524 -0.000754666940485964 -0.000682773716733969
"254" 0.000245209052397444 0.000253709466666378 0.000110064528999226 0.000252025943481396 0.000143928715625678 -0.000347794706223827 -0.000340861939882298 -0.000215521551456194 -0.00050020305266757 -0.000144081889467064 -0.000287047912886657 7.82671092037656e-06 -0.000494297331183804 -0.000744410233947082 -0.000763018982741606 -0.000690399501862704
"255" 0.000238998575592783 0.000251296149901075 0.000108672174591824 0.000245087791269973 0.00014089268725581 -0.000349481499382608 -0.00034673168443736 -0.000214876965901938 -0.000506419602825187 -0.000150389898240493 -0.00028485687600323 -1.38484869580951e-05 -0.000490808258675649 -0.000756435515966015 -0.000771008271357342 -0.000697031333029323
"256" 0.000232258958161602 0.000248626581582921 0.0001069130308752 0.000237778734114769 0.000137543508027732 -0.00035091402565765 -0.000352913992512452 -0.000214092132976263 -0.000512089581033199 -0.000156345239820572 -0.000282233181077867 -3.50190333574882e-05 -0.000487247287209846 -0.00076750320692523 -0.000778490099909532 -0.000702571287986942
"257" 0.000224957921076439 0.00024567081543434 0.000104757129933942 0.000230166053383418 0.000133928394662292 -0.000352053664723609 -0.000359340952304551 -0.000213166633391006 -0.000517137324035189 -0.000161877344501494 -0.000279158931721747 -5.55082140423707e-05 -0.000483541482041818 -0.000777469735827953 -0.000785310751367275 -0.000706930228235255
"258" 0.000217065322627758 0.0002424059392454 0.000102170026811328 0.000222315500551897 0.000130083095724414 -0.000352869630671981 -0.000365941273754263 -0.000212108557854833 -0.000521482152416356 -0.000166927142315905 -0.000275625284520588 -7.51385523489337e-05 -0.000479627747218213 -0.000786206185332753 -0.000791329881507195 -0.000710022989269502
"259" 0.00020855861434389 0.000238811722976745 9.91230426873302e-05 0.000214297106816811 0.000126059365038991 -0.000353322062119206 -0.00037263944110789 -0.000210923536397249 -0.000525056480317919 -0.000171436085156045 -0.000271624462639505 -9.37451335250998e-05 -0.000475432891553904 -0.000793573944286785 -0.000796401133175744 -0.000711768978005742
"260" 0.00019942315078438 0.000234867959363829 9.55874587995402e-05 0.00020618319792645 0.000121898329402022 -0.000353385816804008 -0.000379360841865778 -0.000209626195205832 -0.00052778377091117 -0.000175347489558884 -0.000267152785523205 -0.000111165656112952 -0.000470889102843298 -0.000799451291979962 -0.000800382336355543 -0.000712097329495265
"261" 0.00018964165391047 0.000230562429052651 9.15382252010514e-05 0.000198048185572278 0.000117638967437813 -0.00035303352023791 -0.000386023802111159 -0.000208225170725187 -0.000529603756793858 -0.000178612618894723 -0.000262208075333609 -0.000127259191689248 -0.000465921330500633 -0.000803724362196429 -0.000803137156203536 -0.000710942821522579
"262" 0.000179216731422807 0.000225878269748133 8.69423626329091e-05 0.000189963017707968 0.000113325477755022 -0.000352236916099896 -0.000392551245774341 -0.000206738202224027 -0.000530451324689622 -0.000181183790157642 -0.000256796365847281 -0.000141889166923288 -0.000460460120552737 -0.000806285484782881 -0.000804532316951144 -0.000708249467707498
"263" 0.000168145713787327 0.000220810357643652 8.17840795716818e-05 0.000182002888162081 0.000108994294297851 -0.000350976965071391 -0.000398864635084593 -0.00020517840977728 -0.000530272320455515 -0.00018302698042698 -0.000250923298620139 -0.000154932875827389 -0.000454439758383506 -0.000807040096804165 -0.000804445918572999 -0.000703971948783781
"264" 0.000156441642753424 0.000215352526032692 7.60410967526562e-05 0.000174238954199775 0.000104687123768074 -0.000349231302326211 -0.000404882227205145 -0.000203565382509956 -0.000529018772037607 -0.000184105308294806 -0.000244603191206887 -0.000166285491488906 -0.000447794816884372 -0.000805904719851329 -0.000802765746291916 -0.00069806929896671
"265" 0.000144118094543262 0.000209500295863226 6.9691192940266e-05 0.00016674093111714 0.000100438582705697 -0.000346987107022084 -0.000410522564686578 -0.000201917812484237 -0.000526649995501608 -0.000184391769160869 -0.000237841249983441 -0.000175850582515372 -0.000440458280888083 -0.000802801118557312 -0.000799373291202386 -0.000690513358122081
"266" 0.000131195397744798 0.000203258868991442 6.2721149602137e-05 0.000159579362357506 9.62827239889282e-05 -0.000344234788644216 -0.0004157139172042 -0.00020026088408577 -0.000523121162347389 -0.000183864490988888 -0.000230656846453906 -0.000183557824134372 -0.00043237917573629 -0.000797672778385859 -0.000794179490297933 -0.000681281888456233
"267" 0.000117701790073498 0.000196627517126859 5.51187820145045e-05 0.000152820544512306 9.22519994013987e-05 -0.000340962183752696 -0.000420376044745601 -0.00019861542847742 -0.00051841416052051 -0.000182513929226063 -0.000223069653227088 -0.000189339083046937 -0.000423500716619299 -0.000790466594252984 -0.000787089168346577 -0.000670366014797821
"268" 0.000103672632069895 0.000189617237663302 4.68753322767988e-05 0.000146526430750122 8.83714941534195e-05 -0.000337168036807694 -0.00042443812807848 -0.000197001688625677 -0.000512503755383541 -0.000180331200170674 -0.000215098825194602 -0.000193159172056899 -0.000413776262499169 -0.000781151115252192 -0.000778031403268592 -0.000657760967724951
"269" 8.91489970867385e-05 0.000182238362552316 3.79866287300282e-05 0.000140754595913523 8.46686469102284e-05 -0.000332855444634279 -0.000427832774794315 -0.000195451185582248 -0.000505374122435252 -0.00017731629680303 -0.000206766820489655 -0.000194984088477321 -0.000403169346566973 -0.000769704486770778 -0.000766940800730912 -0.000643478135797953
"270" 7.41754150801437e-05 0.000174505982979436 2.8451928751685e-05 0.000135560621286968 8.11666224032726e-05 -0.000328024705742195 -0.000430491142172869 -0.000193981261930251 -0.000497024384374099 -0.000173475693343178 -0.000198099409785709 -0.000194808854973305 -0.000391644301302195 -0.00075611686997939 -0.000753761075241866 -0.000627531469245652
"271" 5.88022317103525e-05 0.000166440239997103 1.82713784809344e-05 0.000130993881698739 7.78835733820089e-05 -0.000322685969650127 -0.000432354031179338 -0.000192623920762022 -0.000487450762018992 -0.000168826390439337 -0.000189126459577309 -0.000192641973134251 -0.00037918311466002 -0.000740404397949928 -0.000738460046566267 -0.00060995670933114
"272" 4.30890128346173e-05 0.000158061818894236 7.45855738305388e-06 0.000127101046776671 7.4837802351217e-05 -0.000316854019102194 -0.000433361644830757 -0.000191401120367525 -0.000476668834322001 -0.000163387662573312 -0.000179869097446607 -0.000188502283601325 -0.000365761049194098 -0.000722577368230026 -0.000721006396105676 -0.000590781966907217
"273" 2.7093474703775e-05 0.000149394666403927 -3.97924799994268e-06 0.000123919994242542 7.20429958603957e-05 -0.000310545720685897 -0.000433461256580138 -0.000190336793055935 -0.000464694445506582 -0.000157189390591826 -0.000170358187845322 -0.000182437742180413 -0.000351372836343101 -0.000702680641813661 -0.000701394043209157 -0.000570057146989616
"274" 1.08796604379304e-05 0.000140462246955277 -1.60217753192025e-05 0.000121479610414041 6.95096631675408e-05 -0.00030378005259222 -0.000432612385703743 -0.000189456421084126 -0.000451560041774979 -0.000150262791347991 -0.000160620458136559 -0.000174501792992043 -0.000336018893111525 -0.000680753031496626 -0.000679617738325155 -0.000547838613608682
"275" -5.48432577222981e-06 0.000131295265996344 -2.86499813407023e-05 0.00011980718145077 6.72403081700457e-05 -0.000296580899255079 -0.000430770051507497 -0.00018878346110776 -0.000437300173701073 -0.000142649332405966 -0.000150687694221271 -0.000164771000734933 -0.000319712614921352 -0.000656861476113944 -0.000655695463128327 -0.000524187129641307
"276" -2.19260942055413e-05 0.000121927649595855 -4.1837082707061e-05 0.000118923607577222 6.52456801834038e-05 -0.00028897864174476 -0.000427901613705313 -0.000188335722464374 -0.000421959041425498 -0.000134400097304491 -0.000140591269804847 -0.000153335525848853 -0.000302468449519163 -0.00063108306996808 -0.00062966125105412 -0.000499177659813714
"277" -3.83745571721535e-05 0.000112392882452623 -5.5549812311917e-05 0.000118841968647231 6.35264712026343e-05 -0.000281005588452251 -0.000423979195636966 -0.000188134955180867 -0.00040559222989103 -0.000125560037924315 -0.000130354754669251 -0.000140293627136402 -0.000284317556552151 -0.000603503882315135 -0.000601556375101835 -0.000472891941212237
"278" -5.47557671623084e-05 0.000102721530437599 -6.97559110806264e-05 0.000119563927659902 6.2082998222726e-05 -0.000272695867969153 -0.000418981526478515 -0.000188201174800633 -0.000388258958012223 -0.000116188883330837 -0.000120010574383295 -0.000125767938722095 -0.000265298651407313 -0.000574227841848655 -0.000571444688103958 -0.000445416235763198
"279" -7.0991043257161e-05 9.2956090472575e-05 -8.44113544551314e-05 0.000121092900452346 6.09075921510534e-05 -0.00026408843549218 -0.000412897012433869 -0.000188543312516235 -0.000370027772423392 -0.000106350494768501 -0.000109588446110358 -0.000109884091414093 -0.000245457180221544 -0.000543369188126645 -0.000539396078711321 -0.000416851751998566
"280" -8.70059601967629e-05 8.31298832797179e-05 -9.94771882629245e-05 0.000123416865957504 5.99958812875449e-05 -0.000255224036587164 -0.000405718172409578 -0.000189173571641451 -0.000350973847055553 -9.61088047946987e-05 -9.9110316115303e-05 -9.27826938238807e-05 -0.000224849806970847 -0.000511047635014079 -0.000505501949314146 -0.0003872945841837
"281" -0.000102724704414577 7.32831048979589e-05 -0.000114898893850683 0.000126520097114328 5.93403139275867e-05 -0.000246144223538857 -0.000397446275131635 -0.000190101299561658 -0.00033118519830462 -8.55308811675326e-05 -8.86055633986862e-05 -7.46182190624337e-05 -0.00020353998160202 -0.000477400874778017 -0.000469859676167243 -0.000356859897646737
"282" -0.000118075994914406 6.34531855189145e-05 -0.000130627573020187 0.000130380242031395 5.89308109471267e-05 -0.000236896714032877 -0.000388091230806844 -0.000191333889296269 -0.000310751756102143 -7.46904908154478e-05 -7.80955321722801e-05 -5.55474863233679e-05 -0.00018160200001695 -0.00044256946379105 -0.000432587726764878 -0.000325659169151416
"283" -0.000132981889366108 5.36825825032424e-05 -0.000146604406356136 0.00013496984057826 5.87578131340763e-05 -0.000227530433717719 -0.000377662032478676 -0.000192869981155561 -0.000289765664282757 -6.36606754976298e-05 -6.76108597086445e-05 -3.57370731982703e-05 -0.000159117194172407 -0.000406719803150803 -0.000393820964087234 -0.000293818014807017
"284" -0.000147372151443039 4.40077873305739e-05 -0.000162765520655044 0.000140249275539743 5.8805438445441e-05 -0.000218093584670997 -0.000366188533317677 -0.000194710236498904 -0.000268333088143454 -5.25174603259399e-05 -5.71667013802805e-05 -1.53620766770462e-05 -0.000136171834514218 -0.000370002183566548 -0.000353699371758806 -0.000261458887213995
"285" -0.000161177224024554 3.44666092961435e-05 -0.00017905691339665 0.000146179174546445 5.90625860910323e-05 -0.000208634772178294 -0.000353697772894794 -0.000196845100667648 -0.000246563863058949 -4.13371028876294e-05 -4.67882038450558e-05 5.40105981637583e-06 -0.000112860781273065 -0.000332588804822049 -0.000312376697922398 -0.000228715046722286
"286" -0.000174335534916884 2.50995494560154e-05 -0.000195402327031706 0.000152711583241807 5.95116318958807e-05 -0.000199208328018373 -0.000340227381749229 -0.000199268257962216 -0.000224563763508886 -3.01981014055639e-05 -3.64900321059285e-05 2.63714039107229e-05 -8.9289572054587e-05 -0.000294661565744109 -0.000270027415790529 -0.000195719162275248
"287" -0.000186778621169064 1.59448600217815e-05 -0.000211732920572624 0.000159793356963732 6.01414307625285e-05 -0.000189867321035125 -0.000325817089262226 -0.000201960270976522 -0.000202449821365622 -1.91734339763904e-05 -2.62918030528666e-05 4.73685586025355e-05 -6.55612614971856e-05 -0.000256397837747715 -0.000226828503502374 -0.000162606846912459
"288" -0.000198451714539609 7.03358398233227e-06 -0.000227983951632973 0.000167362092195685 6.09300197377428e-05 -0.000180659122966421 -0.00031052162033201 -0.000204906278124792 -0.000180345200849736 -8.34246956106439e-06 -1.62064138625276e-05 6.82052719969118e-05 -4.17878086521767e-05 -0.000217979193747773 -0.000182969309070611 -0.000129517577015349
"289" -0.000209304197877767 -1.59732498325709e-06 -0.000244078287911055 0.00017535501805128 6.18628741682005e-05 -0.000171639437786828 -0.00029439500467999 -0.000208082124679541 -0.000158366105630159 2.22489015551283e-06 -6.25033811498516e-06 8.87043594343728e-05 -1.80859608355219e-05 -0.000179599268458246 -0.000138654920132606 -9.6593264453746e-05
"290" -0.000219281122034222 -9.91512573393177e-06 -0.000259940405175678 0.00018370757803707 6.29293552659936e-05 -0.000162857445675084 -0.00027749671888955 -0.000211460979035682 -0.000136632281524032 1.24546506579943e-05 3.56741674358669e-06 0.000108689080909422 5.42928294700626e-06 -0.000141443587956081 -9.40954097837249e-05 -6.39711840070185e-05
"291" -0.000228346822051127 -1.78878826977922e-05 -0.000275496520779641 0.000192346775676127 6.41045596633042e-05 -0.000154366416074674 -0.000259899966342696 -0.000215013678274739 -0.000115266370530802 2.22789741098379e-05 1.32350353680293e-05 0.00012798461972621 2.86352437636872e-05 -0.000103707895855677 -4.95089159813186e-05 -3.17966993873908e-05
"292" -0.000236461313406898 -2.54941615803421e-05 -0.000290670095206132 0.000201194208671062 6.53806886222535e-05 -0.00014621200241434 -0.00024167407532554 -0.000218706175255398 -9.43944271112961e-05 3.16328430414465e-05 2.27452148896268e-05 0.000146424324326607 5.14152521031979e-05 -6.6571571296584e-05 -5.11852100040562e-06 -2.05979365481193e-07
"293" -0.000243593729169849 -3.2697138385974e-05 -0.000305386277837896 0.000210178783477209 6.67419836278689e-05 -0.000138445182212567 -0.000222897654022696 -0.00022249999032343 -7.4128477285683e-05 4.04548786934714e-05 3.2088628712652e-05 0.000163849826962644 7.36392833380903e-05 -3.02308282606e-05 3.88355318736501e-05 3.06614642006943e-05
"294" -0.000249719712538719 -3.9480852546754e-05 -0.000319567670277524 0.000219216232822331 6.81705243954915e-05 -0.000131107082057601 -0.000203648524957604 -0.000226353285781797 -5.45908683624466e-05 4.8688942219503e-05 4.12614440530755e-05 0.000180106896542327 9.51950091572921e-05 5.14380428199175e-06 8.21295637381781e-05 6.06706940243047e-05
"295" -0.000254821940850448 -4.58213283559559e-05 -0.00033314434700085 0.000228230567552386 6.9657111830001e-05 -0.000124241716445391 -0.000184013807110114 -0.000230223133775509 -3.58919153266541e-05 5.62835263125804e-05 5.02582144366092e-05 0.000195059443238896 0.000115961543199625 3.9369176425647e-05 0.000124517744726609 8.96910866835194e-05
"296" -0.00025888903947873 -5.17027273324544e-05 -0.000346044033789687 0.000237139433446135 7.11915963349834e-05 -0.000117890047785585 -0.000164081927358625 -0.000234061884250547 -1.8145892460453e-05 6.31900564367327e-05 5.90760247757383e-05 0.00020857296089221 0.000135822203279197 7.22799127306681e-05 0.000165768875943069 0.000117597863577073
"297" -0.000261916096563409 -5.71071084521992e-05 -0.000358194686841866 0.000245859112636463 7.27611935196372e-05 -0.000112088455677602 -0.000143943692065087 -0.000237823875346371 -1.45272932575026e-06 6.93686305279829e-05 6.77099541589725e-05 0.000220530768118738 0.000154668427766711 0.000103712655602667 0.000205637675379494 0.000144263384711801
"298" -0.000263902545280374 -6.20219500243401e-05 -0.000369531795716709 0.000254310190012116 7.43581322926959e-05 -0.000106868606505788 -0.000123690447326179 -0.000241454757282355 1.40884543816726e-05 7.47833338298734e-05 7.61577774715067e-05 0.00023082732964693 0.000172389285344269 0.000133521458584365 0.000243896593405797 0.00016957636733998
"299" -0.000264863554514231 -6.64421162914051e-05 -0.000379989797581661 0.000262414543922903 7.59718238806722e-05 -0.000102259678964042 -0.000103412536575784 -0.000244902313818473 2.83786129617774e-05 7.94070377759148e-05 8.4421520694835e-05 0.00023936701444107 0.000188890298728182 0.000161571548605067 0.000280319727180459 0.000193428873576591
"300" -0.000264812158379045 -7.03561984317463e-05 -0.000389510533063389 0.000270092559749617 7.75967068859506e-05 -9.82895486653397e-05 -8.32101218115347e-05 -0.00024811614640263 4.13392334344955e-05 8.32112531996947e-05 9.2496175617168e-05 0.000246075868741461 0.000204075114835219 0.000187735549693434 0.000314681997022629 0.000215717859781051
"301" -0.000263772146526403 -7.37577948641257e-05 -0.00039803569303259 0.000277268793789308 7.92282003720844e-05 -9.49805289776244e-05 -6.31720271551266e-05 -0.000251044743229352 5.28957961982561e-05 8.61822445094856e-05 0.000100377315902749 0.000250887604826311 0.000217853778454535 0.000211900480755871 0.000346769500481584 0.000236349770489384
"302" -0.000261772308743967 -7.66520822698892e-05 -0.000405516394758515 0.000283870863337844 8.08619884241556e-05 -9.23438034921797e-05 -4.33950186850923e-05 -0.000253632925789631 6.29748590561297e-05 8.83098711058514e-05 0.000108069215643313 0.000253750298114207 0.000230156585196206 0.000233978463918582 0.000376391871026098 0.000255248830216223
"303" -0.000258848767009093 -7.90353668477175e-05 -0.000411903052042095 0.000289829697652951 8.24941015727386e-05 -9.03989636946753e-05 -2.39709085348788e-05 -0.000255831000183844 7.15252714663019e-05 8.95856356632949e-05 0.000115563262219314 0.000254633943631554 0.00024090697470325 0.00025388379704793 0.000403353562123057 0.000272330442482773
"304" -0.000255042339249531 -8.09169440047797e-05 -0.000417160978394165 0.000295079709131171 8.41246869705685e-05 -8.91504483719551e-05 -4.98782314519319e-06 -0.000257587105076177 7.84931370792389e-05 9.00090791792829e-05 0.000122857957035465 0.000253515159721673 0.000250051941944603 0.000271560760624425 0.00042748973104821 0.000287538677580523
"305" -0.000250406072102306 -8.23002600928165e-05 -0.000421252284811008 0.000299557866513634 8.57484376583335e-05 -8.86005393162921e-05 1.34629863423327e-05 -0.000258852878997926 8.38444698509142e-05 8.95904067329307e-05 0.000129950536442421 0.000250386959744522 0.000257536278810896 0.000286971422240962 0.000448648722321951 0.000300820822807558
"306" -0.000244992497405403 -8.31973289915879e-05 -0.000424148360578232 0.000303209152420889 8.73661564783669e-05 -8.87503285195831e-05 3.12998760197773e-05 -0.000259581938143841 8.75484115581718e-05 8.83374776151928e-05 0.000136832824241675 0.000245260722792141 0.000263329568897062 0.000300084188861791 0.000466699154258944 0.000312133819946548
"307" -0.000238858325755105 -8.36178380122277e-05 -0.000425823206489411 0.000305981945545682 8.89821617077408e-05 -8.95956643258533e-05 4.84407454382188e-05 -0.00025973154367909 8.95963844783489e-05 8.62659656215392e-05 0.000143499648412127 0.000238157771359677 0.000267397780095904 0.000310896753761095 0.000481529078441509 0.00032144829107375
"308" -0.000232074393911692 -8.35795318859394e-05 -0.000426267080024944 0.00030782815035676 9.0589307381028e-05 -9.11230630833025e-05 6.48045829388934e-05 -0.000259265815814894 8.99778413227291e-05 8.34006894768137e-05 0.000149943723614355 0.000229112653225281 0.000269728284449804 0.000319428563574738 0.000493053628359989 0.000328747748646336
"309" -0.00022471015547504 -8.31009627860061e-05 -0.000425470549208348 0.000308707687321262 9.21969506156638e-05 -9.33197517324851e-05 8.03270847531643e-05 -0.000258144199652332 8.86968204424238e-05 7.9763147001216e-05 0.000156153711507663 0.000218173712442717 0.000270316071646569 0.000325709940102838 0.000501209890828345 0.000334026311989257
"310" -0.000216836139187848 -8.21941334946846e-05 -0.000423432056284228 0.000308586550462643 9.3801313812212e-05 -9.61671532213355e-05 9.49331922147651e-05 -0.000256341795276797 8.57810474675982e-05 7.53827379749366e-05 0.000162118504479163 0.000205402402133341 0.000269160433209268 0.00032978255699816 0.000505950744746151 0.000337282888238972
"311" -0.000208535051905944 -8.08899161020238e-05 -0.000420158079580752 0.000307434634747156 9.54055096527925e-05 -9.96440988607012e-05 0.000108567325434375 -0.000253829349587078 8.12527926421908e-05 7.02897977475271e-05 0.000167823961062185 0.000190867307680806 0.000266285377766499 0.000331724291687416 0.000507273992581182 0.000338537905008263
"312" -0.000199887500752382 -7.92081691767407e-05 -0.000415659000462812 0.000305229712091359 9.70120356245744e-05 -0.000103722579885686 0.000121172635552128 -0.000250587652083221 7.51581241997087e-05 6.45228011232573e-05 0.000173257602463162 0.000174649791141617 0.00026171542982867 0.000331618496834359 0.000505184905624962 0.000337819857506171
"313" -0.000190980509682205 -7.71766914758626e-05 -0.000409958892575107 0.000301955676889138 9.8617578578095e-05 -0.000108373546543664 0.000132697153331696 -0.000246604006487844 6.75470637260524e-05 5.81169696215907e-05 0.000178401415648467 0.000156840649249629 0.000255482587501134 0.000329559354053207 0.000499725688271219 0.000335165405517475
"314" -0.000181903508578538 -7.48205013161353e-05 -0.000403083675329266 0.000297601431777276 0.000100228593634867 -0.000113566206587303 0.000143102801856147 -0.000241873403152136 5.84832586401711e-05 5.11105898373373e-05 0.000183237605895492 0.000137536072047313 0.000247634478317809 0.000325660816504031 0.000490956156119632 0.000330621118938364
"315" -0.000172743630030964 -7.21763372873627e-05 -0.000395071696519733 0.000292162457213849 0.000101842595682463 -0.00011926521117675 0.000152356047085733 -0.000236389956679269 4.8041119100803e-05 4.35448634848175e-05 0.000187745311954682 0.000116840828318435 0.000238230032464554 0.000320051634798943 0.000478967982200415 0.000324248196976679
"316" -0.000163598314625862 -6.92704608399266e-05 -0.000385966946766808 0.000285643193304084 0.00010346469540146 -0.000125435051143547 0.000160422837559053 -0.000230164486028715 3.63049111266026e-05 3.54608976003551e-05 0.000191904345038713 9.48667730723115e-05 0.000227324766320632 0.00031285956059051 0.00046386680551737 0.000316113042512828
"317" -0.000154559285961439 -6.61452998496111e-05 -0.000375818977691663 0.000278047390877449 0.000105084234380956 -0.000132035160219292 0.000167289970554702 -0.000223207321768125 2.33656616801083e-05 2.68994053216913e-05 0.00019569242486271 7.17267710187466e-05 0.000214992350837672 0.000304235238121294 0.000445791099883179 0.000306289979106779
"318" -0.000145719770053246 -6.28291742659668e-05 -0.00036468071291059 0.000269394173944795 0.000106709032894197 -0.000139027026219257 0.00017294051094749 -0.000215540137787633 9.33230484245595e-06 1.79045977546408e-05 0.00019908371286021 4.75438614238132e-05 0.000201302918623015 0.000294318157596474 0.000424889537304851 0.000294861059031426
"319" -0.000137179133433425 -5.93689679841832e-05 -0.000352627198624042 0.000259698558521993 0.000108331991411243 -0.000146370822234716 0.000177368069887205 -0.000207189788454224 -5.68672646231974e-06 8.51326035856762e-06 0.000202052245042728 2.24355479477253e-05 0.000186338549058791 0.000283267907705981 0.000401332583380145 0.000281914931736986
"320" -0.000129027543222816 -5.58022960607882e-05 -0.000339716084499596 0.000248989691647631 0.000109956334257813 -0.00015402509082659 0.0001805800311795 -0.000198192706327292 -2.1571395398878e-05 -1.22827629761017e-06 0.000204576630194793 -3.47147075031258e-06 0.000170186655387096 0.000271230549033059 0.000375302433171393 0.000267543965558869
"321" -0.000121362827798892 -5.2170373918196e-05 -0.000326036422670592 0.000237294242287765 0.000111571650302571 -0.000161949184442655 0.000182582141422362 -0.000188586641026444 -3.81968975561031e-05 -1.12881194963508e-05 0.000206622870246212 -3.00586724788208e-05 0.000152924495403936 0.000258365135323008 0.000347002120924301 0.000251848220678513
"322" -0.00011427633118728 -4.85227318131868e-05 -0.000311664489017291 0.000224648561252347 0.000113178969335131 -0.00017010367108779 0.00018339253740794 -0.000178426412564312 -5.54274353986399e-05 -2.16256251123469e-05 0.000208169570275594 -5.72017322472375e-05 0.000134649713677111 0.000244821896207537 0.000316640581968367 0.000234928224995944
"323" -0.000107854286084164 -4.49025089826681e-05 -0.000296689523490186 0.000211093796324908 0.000114772012206744 -0.000178448473105054 0.000183038262269392 -0.000167763634569079 -7.31212918831647e-05 -3.22023590233562e-05 0.000209185743474247 -8.47738757381528e-05 0.00011544827174119 0.000230740964224216 0.000284434705082948 0.000216884499578447
"324" -0.00010218869954657 -4.13599860963864e-05 -0.000281204643059354 0.000196674104627452 0.000116346061221586 -0.00018694743307962 0.000181548767380625 -0.000156660545286716 -9.11415470080021e-05 -4.29892046250563e-05 0.000209644671280166 -0.000112661922922887 9.54102439831859e-05 0.00021626787664044 0.000250606516459607 0.000197826568931065
"325" -9.73618946345043e-05 -3.79457663120662e-05 -0.000265312136766964 0.000181434490737457 0.000117894626243203 -0.000195562707713887 0.000178961409457142 -0.000145186486194538 -0.000109332647027882 -5.39550073190057e-05 0.000209518497123834 -0.000140750060017861 7.46236455848262e-05 0.000201527828084058 0.00021537924023205 0.000177854292749044
"326" -9.34557538106752e-05 -3.47141260183071e-05 -0.000249107982138227 0.000165429797591267 0.000119412984221569 -0.000204262667283991 0.000175321943138406 -0.000133417683949862 -0.000127550863515652 -6.50687323910375e-05 0.00020878243190532 -0.000168922686734363 5.31723097103647e-05 0.000186644411817633 0.000178985118470062 0.000157072385379389
"327" -9.05469236283961e-05 -3.17158444797198e-05 -0.000232701040517179 0.00014871214666935 0.000120890730543738 -0.000213016362085021 0.000170681085477754 -0.000121427435270345 -0.000145642010463729 -7.6306835221696e-05 0.000207407237374619 -0.000197074341096978 3.11419920646345e-05 0.000171725567148032 0.00014164266980324 0.000135585195613291
"328" -8.87049378334916e-05 -2.90071227472067e-05 -0.000216196828899132 0.000131338926902129 0.000122324322699282 -0.000221789951857401 0.000165093476578754 -0.000109301843479178 -0.000163447950415621 -8.76422744518092e-05 0.000205370594600596 -0.000225106170861226 8.61458874100386e-06 0.000156868931792599 0.000103574138510623 0.000113489482284216
"329" -8.79960644132514e-05 -2.6639882561845e-05 -0.000199707675960905 0.000113370463462108 0.000123702008142792 -0.000230563370199009 0.000158621008823379 -9.71284190939676e-05 -0.000180824559688683 -9.90578459044615e-05 0.000202646984579065 -0.000252916122419859 -1.43348192010431e-05 0.000142157141065828 6.4994959014162e-05 9.08825984698494e-05
"330" -8.84784519864718e-05 -2.46723449146821e-05 -0.000183339192229575 9.48682282856836e-05 0.000125019312433159 -0.000239312605315395 0.000151327632153919 -8.50008465814192e-05 -0.000197610661021798 -0.000110533844258442 0.000199213125671453 -0.000280416392845994 -3.7634984559096e-05 0.000127657365270297 2.61027702786064e-05 6.78526797485347e-05
"331" -9.02119204988997e-05 -2.31657637239249e-05 -0.000167209369501523 7.58899628016073e-05 0.000126268539424425 -0.000248014016525486 0.000143282175931073 -7.30064454995157e-05 -0.000213668630920022 -0.000122055747130773 0.0001950544979845 -0.000307527540218247 -6.12163939590512e-05 0.000113434235910282 -1.2891212569335e-05 4.44964727156509e-05
"332" -9.32351315970101e-05 -2.21720666349484e-05 -0.000151424819562797 5.65020382033725e-05 0.000127435707094312 -0.000256656029700257 0.000134560598565518 -6.12455030224679e-05 -0.000228850465780703 -0.00013360943028319 0.00019014898543901 -0.00033417080735725 -8.50164583038853e-05 9.95193029924972e-05 -5.18113708830158e-05 2.08903607971838e-05
"333" -9.75916494376159e-05 -2.17475509669784e-05 -0.000136097953292643 3.67683620496287e-05 0.000128514463965959 -0.000265223300594392 0.000125233287236538 -4.98133223289291e-05 -0.00024301026921587 -0.000145183622503061 0.000184482163127486 -0.000360275318044516 -0.00010897889873944 8.59437057068011e-05 -9.04792518360252e-05 -2.88433128619212e-06
"334" -0.000103308317542193 -2.19478705462033e-05 -0.000121333878591415 1.67515900084776e-05 0.000129499557628169 -0.000273705688488124 0.000115378299101715 -3.88038171911733e-05 -0.000256022927548198 -0.00015677288761827 0.000178041264381102 -0.00038578301608777 -0.000133050944408317 7.27216519794486e-05 -0.000128731150550795 -2.67588860129985e-05
"335" -0.000110411581686424 -2.28213040776016e-05 -0.000107242560927994 -3.48601055443114e-06 0.000130381840359023 -0.000282097740380851 0.000105074546047766 -2.83179414452388e-05 -0.000267755892818473 -0.00016836602282153 0.000170816246444322 -0.00041063751533044 -0.000157186220605203 5.98441839382544e-05 -0.00016642261352882 -5.06626939952651e-05
"336" -0.000118916354171052 -2.44283042004669e-05 -9.39235151550977e-05 -2.38844835810276e-05 0.000131154325421185 -0.000290394639971482 9.44010580749335e-05 -1.84431989782004e-05 -0.000278097908003407 -0.000179962413090666 0.000162801046791137 -0.000434794883847811 -0.000181339469848503 4.73151653975234e-05 -0.000203404187331639 -7.45334341412437e-05
"337" -0.00012882447858777 -2.6808177549776e-05 -8.14721495527585e-05 -4.43788203858801e-05 0.000131803739920522 -0.000298595200174218 8.34344497158222e-05 -9.27588598704843e-06 -0.000286938001444477 -0.000191555941945269 0.000153993142803923 -0.000458213447094789 -0.000205474123119662 3.50991430866711e-05 -0.000239558622147828 -9.83150321581757e-05
"338" -0.000140137995694947 -3.00129662612467e-05 -6.99877489495503e-05 -6.49119555451148e-05 0.000132324770003762 -0.000306700275901404 7.22543214258378e-05 -9.01806639957674e-07 -0.000294184260260777 -0.000203147273142497 0.000144391028342453 -0.000480866060381291 -0.000229552572241991 2.3169137705908e-05 -0.000274769697860532 -0.000121953676111051
"339" -0.000152835720688564 -3.40760035129581e-05 -5.95489105068352e-05 -8.54266914853582e-05 0.000132715219190868 -0.000314716941928313 6.09377489545696e-05 6.59386962168241e-06 -0.000299743312728132 -0.000214731079995693 0.000133995782062522 -0.00050272380371036 -0.000253546141411046 1.14745048291912e-05 -0.000308944210736496 -0.000145403481585334
"340" -0.000166905264526391 -3.90418642068269e-05 -5.02433259618798e-05 -0.000105867505291538 0.000132958929251008 -0.000322650379730136 4.95578774023953e-05 1.31322498258859e-05 -0.000303554742062393 -0.00022630952949985 0.000122820970125134 -0.000523774267845598 -0.000277426363467818 -2.18132628012817e-08 -0.000341979698535491 -0.000168619550059441
"341" -0.000182313955291091 -4.49384094576318e-05 -4.21400650486681e-05 -0.000126183543217587 0.000133054276139723 -0.000330508154682735 3.81886942071561e-05 1.8641578531287e-05 -0.000305558865892363 -0.000237882415311035 0.000110873922439581 -0.000544004453550842 -0.000301164294245248 -1.13803621583426e-05 -0.000373802988644845 -0.000191564259815292
"342" -0.000199019116540799 -5.17892869569405e-05 -3.53038362618241e-05 -0.000146323604656427 0.000132998000246012 -0.000338300377486399 2.68967561681982e-05 2.30549725965305e-05 -0.000305711197068951 -0.000249448644658907 9.81723399689423e-05 -0.000563406959413803 -0.000324741750349519 -2.26642346536298e-05 -0.000404346096899757 -0.000214198865677935
"343" -0.000216976073145109 -5.9616891761075e-05 -2.97957530168699e-05 -0.000166241192140126 0.000132776928542493 -0.000346034870644789 1.57458788943734e-05 2.63141106429908e-05 -0.000303988839082963 -0.000261007261190135 8.47330010442096e-05 -0.000581992179618843 -0.000348126863617954 -3.39288233027396e-05 -0.00043354203305886 -0.000236488225866919
"344" -0.000236127586818422 -6.84346979465766e-05 -2.56577293233054e-05 -0.000185891796368352 0.000132392404690586 -0.000353728855802543 4.79925353759855e-06 2.83705897920809e-05 -0.000300380971796555 -0.000272558951216634 7.05820150737341e-05 -0.000599758647769378 -0.000371299791907788 -4.52423512812109e-05 -0.000461342819179333 -0.000258405581792861
