"V1" "V2" "V4" "V5" "V7" "V8" "V10" "V11" "V13" "V14" "V15" "V17" "V18" "V20" "V21" "V23"
"1" 0.00135128989240574 -0.000121997804082667 -0.000158531127751074 0.000307705167627598 -0.000359495700030536 -0.000267166746598111 -0.000444278038112332 -0.000366208410529787 -0.00071297376467146 0.000282021336958553 -0.000289419554486449 -5.79976819945686e-05 8.05237142836746e-05 0.000773946405875994 0.000411759993682486 -0.000246260222626364
"2" 0.00134187502523751 -0.000134441378770482 -0.000165596262415791 0.000294050178496198 -0.000359560242935837 -0.000263095330432614 -0.000442529506758055 -0.000367203422507811 -0.000698072104182562 0.000275270291068772 -0.00028402359051332 -6.3324532969845e-05 7.9251025723225e-05 0.000757652656210516 0.000403136882330885 -0.00024222243988282
"3" 0.00133067083110897 -0.000147585535402132 -0.000172590909492345 0.000279958974953702 -0.000359348010619447 -0.000258708667302521 -0.000440462321378125 -0.000368026737601486 -0.000682465991804296 0.00026804693133794 -0.000278157653904228 -6.82665015877167e-05 7.82214979071137e-05 0.000741011035035155 0.000394840124170472 -0.000237785092039023
"4" 0.0013176660867532 -0.000161372961958023 -0.00017950564343889 0.000265472932510107 -0.000358880023528513 -0.000254049974233107 -0.000438125721419008 -0.000368663075056162 -0.000666249041699502 0.000260318365631611 -0.000271849875622121 -7.28350106163013e-05 7.73994174873261e-05 0.000724068426354304 0.000386885269014518 -0.000232989463077055
"5" 0.00130287226398302 -0.000175741012788261 -0.000186324618269189 0.000250628251950357 -0.000358168954192727 -0.00024916355464234 -0.000435564061265164 -0.000369106845868019 -0.000649531613284057 0.000252046236972558 -0.000265128248173648 -7.70482709617583e-05 7.67547483366979e-05 0.000706880537496079 0.000379276154747881 -0.000227884025452232
"6" 0.00128631795597824 -0.000190620691391745 -0.00019303961548636 0.000235472412996581 -0.000357242168643593 -0.000244101339536086 -0.000432820480443081 -0.00036935010822257 -0.00063242563190564 0.000243200036486474 -0.000258025986354327 -8.09202051196601e-05 7.62549921433939e-05 0.000689498579284274 0.00037201760693897 -0.000222513551968107
"7" 0.00126805470430787 -0.000205931989257496 -0.000199633955032707 0.000220049870496297 -0.000356112500759148 -0.000238914176130964 -0.000429939767019108 -0.000369384118807864 -0.000615050742621261 0.000233752505302698 -0.00025058366226728 -8.44688203951599e-05 7.58634513245562e-05 0.000671983031334994 0.000365114371697726 -0.000216924953725521
"8" 0.00124814335518863 -0.000221597812407118 -0.000206093381337892 0.000204409659184105 -0.000354805879713566 -0.000233652779702853 -0.000426964374618761 -0.000369204936384526 -0.000597531586273127 0.000223686852926282 -0.000242840962622753 -8.77117413901427e-05 7.55500271347246e-05 0.000654392672591439 0.000358565819097014 -0.000211168013794568
"9" 0.00122666464770809 -0.00023753080482465 -0.000212405827484209 0.00018860089211325 -0.000353343891608607 -0.000228372482981976 -0.000423934292820228 -0.000368810114811726 -0.000580008470152535 0.00021297916018779 -0.000234846282256625 -9.06676917678205e-05 7.52753276205229e-05 0.00063678191774663 0.000352372711339251 -0.000205286714880204
"10" 0.00120371924293927 -0.000253645464575822 -0.00021855920819228 0.000172670418136268 -0.000351744626669 -0.000223127390677932 -0.00042088716798536 -0.00036819588325299 -0.000562606130762457 0.000201626033519395 -0.000226648649491887 -9.33551774970323e-05 7.50147546488522e-05 0.000619216600730401 0.000346529486937936 -0.000199336276061106
"11" 0.00117941324678306 -0.000269850638956253 -0.000224534542711433 0.000156672254452909 -0.000350032359698131 -0.000217974463348571 -0.000417854001380462 -0.000367360240526804 -0.000545460660432982 0.00018961471672008 -0.000218299166196643 -9.57911894526761e-05 7.47319923846631e-05 0.000601755990954584 0.000341031015442284 -0.000193356913307542
"12" 0.00115387275065776 -0.000286057576699903 -0.000230322918477806 0.000140653281661735 -0.000348228304900204 -0.000212964876204972 -0.000414871003212789 -0.00036630910453779 -0.000528707163404122 0.000176953212683453 -0.000209852256211546 -9.79964571335479e-05 7.43977086292604e-05 0.000584457219844259 0.00033587173347071 -0.000187398987240165
"13" 0.00112723258803688 -0.00030217568792361 -0.000235915516080789 0.000124660259608915 -0.000346350664901328 -0.000208153172327565 -0.000411961759060372 -0.000365043842351723 -0.000512471681803519 0.000163646943800957 -0.000201360879668886 -9.99887683034437e-05 7.39856965911293e-05 0.000567381272724419 0.000331041509791126 -0.000181508762829897
"14" 0.00109963428994429 -0.000318111832729337 -0.000241295396131452 0.000108744808294913 -0.000344420753517902 -0.000203591230180149 -0.00040915563519939 -0.000363569786839797 -0.000496883936134569 0.000149711344468322 -0.000192878479104359 -0.000101786890057386 7.34673228421565e-05 0.00055058541795691 0.000326525417111037 -0.000175727516846237
"15" 0.00107123229497439 -0.000333777501954457 -0.000246457432157931 9.29500969893454e-05 -0.000342456875268174 -0.000199327453892502 -0.000406468525652375 -0.000361898642806764 -0.000482056762161415 0.000135170013836949 -0.000184462247516307 -0.000103408018944803 7.28162156044727e-05 0.000534125719196196 0.000322315360386161 -0.00017009781846258
"16" 0.0010421775779074 -0.000349093105079661 -0.000251386123754771 7.73169551300466e-05 -0.000340481196747058 -0.000195409575987456 -0.000403918637315146 -0.000360038144738765 -0.000468107382115768 0.000120053550997923 -0.000176163123852462 -0.000104870314540428 7.20144869751269e-05 0.000518059951213259 0.000318389412433692 -0.000164662553180169
"17" 0.00101264141643219 -0.000363965638462484 -0.000256081226943637 6.18893925399867e-05 -0.000338510069401754 -0.000191880452696374 -0.000401518528658648 -0.000358001001487409 -0.000455130489422225 0.00010439691715475 -0.000168031808674442 -0.000106192111935892 7.10368054632158e-05 0.000502434071404344 0.000314736813950264 -0.000159458308978716
"18" 0.000982781024652666 -0.000378329268720287 -0.00026053096385364 4.67034742989338e-05 -0.0003365557130355 -0.000188781974102232 -0.000399279512279272 -0.000355802755760912 -0.00044322203691847 8.82457577058821e-05 -0.000160118548931418 -0.000107388051945241 6.98653300075668e-05 0.000487303839944766 0.00031133346998337 -0.000154519534238252
"19" 0.000952761480006635 -0.0003921055029129 -0.000264730707740763 3.17933020864864e-05 -0.000334638045006846 -0.000186147780209983 -0.000397201227780462 -0.000353464433689437 -0.000432453850649592 7.16532300780231e-05 -0.000152469379903986 -0.000108476762837268 6.84854806618719e-05 0.000472711837971249 0.00030815853922982 -0.000149877876739103
"20" 0.000922749188846672 -0.000405233236854503 -0.000268682599935514 1.71882170123041e-05 -0.000332770665922069 -0.000184010836651098 -0.000395290625037137 -0.000350999617621793 -0.000422894006585686 5.46749031747537e-05 -0.000145125805811683 -0.000109471739526389 6.68832425280159e-05 0.000458702695176228 0.000305193918003039 -0.000145562466121117
"21" 0.000892905087799698 -0.000417652575152739 -0.000272380740962596 2.91443729297766e-06 -0.000330965700048224 -0.000182398436896003 -0.000393542608933682 -0.000348434662118189 -0.000414590522894368 3.73766755655595e-05 -0.000138131881684283 -0.000110392057535067 6.50435815550766e-05 0.000445314125460483 0.00030241373937898 -0.000141601063801665
"22" 0.000863386029979307 -0.000429315200635349 -0.000275827974187352 -1.10020807583674e-05 -0.000329237487822845 -0.000181328889692866 -0.000391949438009455 -0.000345791216973782 -0.000407577083568898 1.98271136035094e-05 -0.000131517607643221 -0.000111252170672586 6.29607083786308e-05 0.000432581074877073 0.000299794508464083 -0.000138010538162728
"23" 0.000834344938875452 -0.000440180370811531 -0.000279029766002229 -2.45489737957102e-05 -0.000327595368732819 -0.000180822468752037 -0.00039050578083562 -0.000343095832332908 -0.000401873589241996 2.10470612730207e-06 -0.00012531665899659 -0.000112067325627239 6.06256939935998e-05 0.000420535998276789 0.000297311976519977 -0.000134811381314507
"24" 0.000805926965007398 -0.000450218105231658 -0.000281989342346908 -3.77083631645485e-05 -0.000326046875305507 -0.000180887733236405 -0.000389199678798847 -0.00034037815331981 -0.000397475658715894 -1.57152919504998e-05 -0.000119553460269467 -0.000112851494310901 5.8033072851601e-05 0.000409204016995968 0.000294938561165437 -0.000132015876628378
"25" 0.000778269334598358 -0.000459404311531899 -0.000284711824078954 -5.04723240475911e-05 -0.000324605280689051 -0.000181529892448078 -0.000388014616770412 -0.000337665426103735 -0.000394373888863006 -3.3549104588043e-05 -0.000114246276036508 -0.000113620661261226 5.51776633475439e-05 0.00039860475526066 0.000292654400438642 -0.000129632479356479
"26" 0.000751499915954233 -0.000467732796810445 -0.000287211964239367 -6.28382927445487e-05 -0.00032327291959022 -0.000182747777326615 -0.000386936741042038 -0.000334986913593771 -0.000392530717495219 -5.13086131913549e-05 -0.000109414793779888 -0.000114389917021984 5.20609749888992e-05 0.000388754197060741 0.000290429868468572 -0.000127663101636731
"27" 0.000725734999556491 -0.000475202647878784 -0.000289497915468895 -7.4805405850278e-05 -0.000322056185821342 -0.000184536854793811 -0.000385950348690185 -0.000332378838252719 -0.000391899741144924 -6.89053160601783e-05 -0.000105063481745105 -0.000115174212151459 4.8683321603395e-05 0.000379666401028571 0.000288240955930335 -0.000126108114617712
"28" 0.000701086586096162 -0.000481819855849202 -0.000291584032713481 -8.63761186594369e-05 -0.000320962332130744 -0.000186882852244978 -0.000385031174507644 -0.000329871311941369 -0.000392415625956534 -8.62563166085897e-05 -0.000101202604129204 -0.000115986659160414 4.50417360759557e-05 0.000371342076577812 0.000286062985175316 -0.000124962860974993
"29" 0.000677645487063285 -0.000487611959049693 -0.000293491774372513 -9.75608039615278e-05 -0.000319997752910202 -0.000189768124651738 -0.000384166039914793 -0.000327499958354404 -0.000393994496931448 -0.000103266600450161 -9.78260586411246e-05 -0.000116843078561063 4.11448761925089e-05 0.000363786335421512 0.000283873711977002 -0.000124215157797972
"30" 0.000655496050913443 -0.00049260848731434 -0.000295234964614329 -0.000108373184737915 -0.000319158199876448 -0.000193169269479239 -0.000383329278438721 -0.000325298846480875 -0.000396537336389888 -0.000119851514811628 -9.49290922180898e-05 -0.000117757679535036 3.69943414837706e-05 0.000356991503506781 0.000281647828920551 -0.000123852056377641
"31" 0.000634710254461925 -0.000496851121535716 -0.000296833953831767 -0.000118829466492903 -0.000318452070478475 -0.000197058801777451 -0.000382504760990774 -0.000323301483354215 -0.000399938757482035 -0.000135924997059721 -9.249618637825e-05 -0.000118746307011838 3.25942240708326e-05 0.000350945650666806 0.000279364932377953 -0.000123851472672078
"32" 0.000615345293670721 -0.000500395148870859 -0.000298312176325966 -0.000128952527129484 -0.00031787990193229 -0.000201402086515927 -0.000381666544013848 -0.000321543650591686 -0.000404076363020374 -0.000151412323749249 -9.05153458976433e-05 -0.000119821549538986 2.79566079541928e-05 0.000345632186737571 0.000277005424799866 -0.000124189371879803
"33" 0.000597444905898587 -0.000503304267227339 -0.000299696065110989 -0.000138761765053207 -0.000317440555129001 -0.000206159857444946 -0.000380803378080156 -0.000320060377516874 -0.000408812530475554 -0.000166228081029534 -8.89611189868407e-05 -0.000120999681866116 2.30845267084417e-05 0.000341031616917498 0.000274553836731394 -0.000124839096705572
"34" 0.000581036830023062 -0.000505655005002242 -0.000301012025677969 -0.000148288834162312 -0.000317130524788847 -0.000211289000267688 -0.000379890241316907 -0.00031888260540088 -0.000414005589236016 -0.000180305520606115 -8.78060636070567e-05 -0.00012229463436012 1.79886278171144e-05 0.000337114835022019 0.000271989916504812 -0.000125766041672864
"35" 0.000566139109948207 -0.000507521344766185 -0.000302283051077198 -0.000157563031255551 -0.000316954389313536 -0.000216745144401567 -0.000378914126710096 -0.000318045852380156 -0.00041950265367028 -0.000193580353168472 -8.70236708892187e-05 -0.000123719955197019 1.2678207021853e-05 0.000333848860764485 0.000269300065817159 -0.000126931984853452
"36" 0.000552757329140758 -0.000508998040470992 -0.000303541648658493 -0.000166615605491507 -0.000316907340523089 -0.000222474945349525 -0.00037786003172836 -0.000317578405100485 -0.000425149690248981 -0.000205995188580123 -8.65726100348775e-05 -0.000125291821915747 7.16096463520339e-06 0.000331197944005504 0.000266474650551106 -0.000128295290320529
"37" 0.000540874978366117 -0.000510187490380282 -0.000304819843325121 -0.000175481455688393 -0.000316989441945331 -0.000228427952535596 -0.0003767122651057 -0.000317511885317118 -0.000430777745037906 -0.000217503323868317 -8.64215419928822e-05 -0.000127019687859904 1.44975278328239e-06 0.0003291191024116 0.00026350411071428 -0.000129813178412036
"38" 0.000530472907321959 -0.000511187862648167 -0.000306141113171359 -0.000184198092964136 -0.000317195298373764 -0.000234546367672159 -0.000375460411448901 -0.000317874004390465 -0.00043622724870954 -0.000228063798083706 -8.65241722641757e-05 -0.000128920003238534 -4.44425659361861e-06 0.000327561430042694 0.000260380392869208 -0.000131437756273732
"39" 0.000521517969837214 -0.000512104604485353 -0.000307538079017262 -0.000192801156786151 -0.000317522521189212 -0.000240772598344083 -0.0003740950776408 -0.000318686861306969 -0.000441327660231587 -0.0002376495902296 -8.68356760872156e-05 -0.000131004400357673 -1.05131623018353e-05 0.000326479099910455 0.000257102300975511 -0.00013311961618359
"40" 0.00051395160774921 -0.000513062302249435 -0.000309046422320494 -0.000201329356380478 -0.000317970273348288 -0.000247048182897634 -0.000372611203132201 -0.000319974733679049 -0.000445914005578006 -0.000246240065609746 -8.7313224430711e-05 -0.000133282266332436 -1.67426882747183e-05 0.000325814370490733 0.000253664493736636 -0.000134807042635648
"41" 0.000507723230467918 -0.000514168719241785 -0.000310694108262762 -0.00020981916765748 -0.000318532074030057 -0.000253312627690738 -0.000371006737437106 -0.000321757029491164 -0.000449822858120475 -0.000253830137563871 -8.79094254521123e-05 -0.00013576704747748 -2.31212810924204e-05 0.000325507964866325 0.000250069539397288 -0.000136443872737089
"42" 0.000502754966735105 -0.000515545675654979 -0.000312510506961045 -0.000218308411445615 -0.000319205530088627 -0.000259506141210089 -0.000369275910077849 -0.000324050365802659 -0.000452896000960804 -0.000260424823065895 -8.85719017567283e-05 -0.000138464879993611 -2.96390848693727e-05 0.000325498251207026 0.00024632277307783 -0.000137977873516505
"43" 0.000498967511963146 -0.0005173109106813 -0.000314526859226433 -0.000226836918262543 -0.000319984775248285 -0.000265566747426563 -0.000367423200039037 -0.000326866175500753 -0.00045498114263607 -0.000266038923716632 -8.92516627178211e-05 -0.000141385827000126 -3.62799716022177e-05 0.000325721055429629 0.000242428199942439 -0.000139352138148199
"44" 0.00049627257944843 -0.00051957740335905 -0.000316772990890528 -0.000235434793737618 -0.000320863368122202 -0.000271438216470385 -0.000365454541336214 -0.000330215236452292 -0.000455931913585699 -0.000270703549586081 -8.99004240701884e-05 -0.000144534664407515 -4.30354322574571e-05 0.000326109759581894 0.000238399665419825 -0.000140511789436468
"45" 0.000494562797498757 -0.000522468420091913 -0.000319276763983681 -0.000244140578031522 -0.000321839589555075 -0.000277058562225766 -0.000363371838056003 -0.000334096330362738 -0.000455608432824287 -0.000274456141427536 -9.0466305085e-05 -0.000147915682207326 -4.98893849609891e-05 0.000326593994214545 0.000234246703260277 -0.000141405040847954
"46" 0.000493736969413368 -0.00052608636443576 -0.000322065705815352 -0.000252983865526434 -0.000322909136039923 -0.000282375384158441 -0.000361186089387754 -0.000338516449026566 -0.000453886386549166 -0.000277349797147643 -9.08998891671422e-05 -0.000151529707294298 -5.68286279077141e-05 0.000327104142871803 0.000229983569544448 -0.000141973856350503
"47" 0.000493677150382461 -0.000530540928306198 -0.000325160300375123 -0.000261994266677086 -0.000324063761435664 -0.000287333665099139 -0.000358912609234029 -0.000343465583604356 -0.000450650147595278 -0.000279450974491779 -9.11567484595906e-05 -0.000155378778367875 -6.38408146568354e-05 0.000327570728641272 0.000225626476201344 -0.000142170519759796
"48" 0.000494265165036125 -0.000535929267683484 -0.000328585517584133 -0.000271196829595062 -0.000325296137339035 -0.000291881602708746 -0.000356559286049261 -0.000348941110693814 -0.000445796879199694 -0.000280828613427105 -9.11850465643079e-05 -0.000159457127120778 -7.09099278056795e-05 0.000327920423275288 0.000221195157693327 -0.000141944544783838
"49" 0.000495375129680727 -0.000542341019760644 -0.000332364395831368 -0.000280615665929377 -0.000326606621455192 -0.000295972098967325 -0.000354147067836529 -0.000354923178196027 -0.000439235773057235 -0.000281575263148681 -9.09421654711927e-05 -0.000163760744334225 -7.80208733734236e-05 0.000328084043329126 0.000216707868484227 -0.000141251310991241
"50" 0.000496881524104942 -0.000549856329085628 -0.000336509756721674 -0.000290268569501208 -0.000327981889953087 -0.000299563002783787 -0.000351689534985509 -0.000361400521853463 -0.00043088619445868 -0.000281778090709509 -9.03848715656885e-05 -0.000168282008796377 -8.51585824757366e-05 0.000327990102426677 0.00021218754128977 -0.000140048840865696
"51" 0.000498657068041823 -0.000558541109244609 -0.000341041334762337 -0.000300171822815441 -0.000329422748764078 -0.000302614912579396 -0.000349210592419242 -0.000368343813755801 -0.000420694431903759 -0.000281545633643679 -8.94718223123392e-05 -0.000173006271076706 -9.23066268694574e-05 0.00032757198655496 0.000207657446283875 -0.000138298728646842
"52" 0.000500570375345284 -0.000568455099954862 -0.000345969991817176 -0.000310336780727358 -0.000330915726035388 -0.000305090836811117 -0.000346722899879607 -0.000375728665041437 -0.000408608788757705 -0.000280987771790005 -8.81681809904739e-05 -0.000177921722078488 -9.94475097542669e-05 0.000326761319797034 0.000203142630397425 -0.000135968646648512
"53" 0.000502494081054249 -0.000579635855319536 -0.000351303960752838 -0.000320765863445078 -0.00033246000360392 -0.000306961467922083 -0.000344256029920641 -0.000383523402348131 -0.000394598060971888 -0.000280221526848495 -8.64333126440672e-05 -0.000183008919313932 -0.000106564852067577 0.000325496102678437 0.000198667412055378 -0.000133034299935373
"54" 0.000504303335549438 -0.000592113742606852 -0.000357051752008519 -0.000331463082340987 -0.000334046169409814 -0.000308201038119336 -0.000341826022864967 -0.000391691236138309 -0.000378651785184279 -0.000279371571612059 -8.42428251792517e-05 -0.000188246961790991 -0.000113636910781768 0.000323714992292211 0.000194258210445671 -0.000129469533079097
"55" 0.000505873731854709 -0.000605898612957669 -0.000363213863484368 -0.000342424813095428 -0.000335665414519795 -0.000308791889129891 -0.000339458352049937 -0.000400190669497873 -0.000360768547369637 -0.000278568752123352 -8.15655803791096e-05 -0.000193609872146997 -0.000120645800286372 0.000321362774569613 0.000189942959576803 -0.000125262025157467
"56" 0.000507088459591791 -0.00062098743172584 -0.000369791506171349 -0.00035364417142426 -0.000337311401848545 -0.000308718700815523 -0.000337175429111327 -0.000408978270961153 -0.000340964300293119 -0.000277937207633677 -7.83734818950203e-05 -0.000199071061928724 -0.000127568927647559 0.000318383696489195 0.000185742771675444 -0.000120403308538967
"57" 0.000507834130016312 -0.000637359220867424 -0.000376776438043555 -0.000365105268674573 -0.000338979660593241 -0.000307971472348632 -0.000334996458888636 -0.000418006556428221 -0.0003192713220386 -0.000277611042780091 -7.46490918639263e-05 -0.000204599639188852 -0.000134386890802066 0.000314733572122914 0.000181686666608375 -0.000114892011934375
"58" 0.000508010046712952 -0.000654973260665591 -0.000384167301745147 -0.000376793206422186 -0.000340655296249373 -0.000306549905508923 -0.000332944923883708 -0.00042722261855478 -0.000295738190477409 -0.000277721780164872 -7.03713465595289e-05 -0.000210161779651519 -0.000141075950416402 0.000310368768599167 0.00017779792926105 -0.000108733636497332
"59" 0.000507513822836372 -0.000673777055586581 -0.000391949672900852 -0.000388682194943471 -0.000342337467007293 -0.00030445390216546 -0.000331040539080911 -0.000436570305047303 -0.000270432073276234 -0.000278400600983231 -6.55313150059821e-05 -0.000215719335816521 -0.000147612712414683 0.00030525216016496 0.000174104676276645 -0.000101939892379393
"60" 0.000506259867147148 -0.000693697189555668 -0.000400107304780248 -0.000400747033964868 -0.000344011222751595 -0.000301692293931039 -0.000329302104370763 -0.000445996745204536 -0.00024342474916205 -0.000279767477878938 -6.01172771927063e-05 -0.000221235013251517 -0.000153971072363652 0.000299354323983618 0.000170624349732892 -9.45333300936894e-05
"61" 0.000504172467475621 -0.000714639916067809 -0.000408620619838121 -0.000412953095089954 -0.000345671425191932 -0.000298280304042404 -0.000327746199820771 -0.000455437518563923 -0.000214813754466998 -0.000281946600521672 -5.41227970351577e-05 -0.000226666708263145 -0.00016012650928814 0.000292650165650959 0.000167384888606771 -8.6536221851324e-05
"62" 0.000501182586424788 -0.000736501553122967 -0.000417470838213569 -0.000425263167979041 -0.000347308735482918 -0.000294238005837479 -0.000326388954739698 -0.00046483513168158 -0.000184700387386116 -0.000285049394424863 -4.75430807819165e-05 -0.000231969906042561 -0.000166056695344382 0.000285125386649352 0.000164401904887938 -7.79887066511304e-05
"63" 0.000497233773634005 -0.000759161717880447 -0.000426629249341901 -0.000437639277831872 -0.00034891418107554 -0.000289588001315934 -0.000325245076391726 -0.000474126751820742 -0.000153204482234472 -0.000289182798412098 -4.03840304046154e-05 -0.000237101112829647 -0.000171728902366474 0.000276765637431284 0.00016169372862778 -6.8930192486887e-05
"64" 0.000492286134779211 -0.000782481611075072 -0.000436069887530202 -0.000450033246171038 -0.000350477058047506 -0.000284359566073339 -0.000324322535832893 -0.000483249947290202 -0.000120453339020875 -0.000294440181917987 -3.26486018240127e-05 -0.00024201284575519 -0.000177121953317564 0.000267573449684925 0.000159281447736089 -5.94107285170797e-05
"65" 0.000486304274249252 -0.00080631071463533 -0.000445754338650827 -0.000462397515975098 -0.000351987478693718 -0.000278591811852918 -0.00032363001010906 -0.000492141866744904 -8.6592718000558e-05 -0.000300909181114711 -2.43478952129133e-05 -0.000246659800897591 -0.000182203683160655 0.000257548351847881 0.000157177908573713 -4.94792016217837e-05
"66" 0.000479268423371981 -0.000830485615310503 -0.000455652384846328 -0.000474681374929758 -0.000353437336670918 -0.000272319567393978 -0.000323172456458441 -0.00050073794914277 -5.17694370822776e-05 -0.000308658840775463 -1.54891043794767e-05 -0.000250991963551725 -0.000186950734487071 0.000246705493140621 0.000155392747400977 -3.92046079262666e-05
"67" 0.000471171885194444 -0.000854835377734756 -0.00046572597679028 -0.000486831806259967 -0.000354817992993769 -0.000265589814551409 -0.000322951961583041 -0.000508977895225587 -1.61405121350082e-05 -0.000317745900327688 -6.09313160099588e-06 -0.000254965258046812 -0.000191334542298297 0.000235063138915306 0.000153936835618105 -2.86499219815033e-05
"68" 0.000462017917126965 -0.000879176591728255 -0.000475932986795498 -0.000498789891262354 -0.000356117372887082 -0.00025844826468582 -0.000322965129646078 -0.000516804499991784 2.0123351806096e-05 -0.000328216144617823 3.82151243829516e-06 -0.000258531039815002 -0.000195325502662978 0.000222649929333048 0.000152817640891719 -1.7885159910365e-05
"69" 0.000451823289641662 -0.000903322467375329 -0.000486230981117716 -0.000510499015253509 -0.000357325629279329 -0.000250946305737706 -0.000323210378264534 -0.000524158922606946 5.68515932417499e-05 -0.00034009652068064 1.42333358749095e-05 -0.000261642669193809 -0.000198898256446043 0.00020949668055699 0.00015203908463504 -6.98946199272857e-06
"70" 0.000440613903437471 -0.000927072245700607 -0.000496574577245289 -0.000521897518704506 -0.000358436558026588 -0.000243139740854098 -0.000323679389884009 -0.000530984350541762 9.38666786836432e-05 -0.000353400562419607 2.51172019536263e-05 -0.000264257769390997 -0.000202027861780449 0.000195646448176153 0.00015160445484733 3.95860044338031e-06
"71" 0.000428428978066248 -0.000950237485035514 -0.000506913379880742 -0.000532926776507339 -0.000359439156356565 -0.000235083047923465 -0.000324357798852521 -0.000537230579374876 0.000130985358258615 -0.000368124941180787 3.64432690471403e-05 -0.000266334124119291 -0.000204686090994449 0.000181147844508787 0.000151510272648444 1.48788966444564e-05
"72" 0.000415316016489265 -0.000972612908739729 -0.000517203608140841 -0.000543526167756043 -0.000360324920956655 -0.000226836455165088 -0.000325236275617233 -0.000542848160745693 0.000168030512192765 -0.000384243403216165 4.818390942332e-05 -0.000267831737544163 -0.000206852178139787 0.000166055602077698 0.000151756532997372 2.5682611469084e-05
"73" 0.000401333034197785 -0.000994006777117555 -0.000527396945581637 -0.000553636173547197 -0.000361088868709505 -0.000218457878491479 -0.00032629479286903 -0.000547796437360822 0.000204815653158767 -0.000401724340347268 6.03027189010835e-05 -0.000268711589829548 -0.000208500242567621 0.000150428504960416 0.000152335243748615 3.62845646009363e-05
"74" 0.000386542283622117 -0.00101422458529902 -0.000537441743286608 -0.000563197746876655 -0.000361716486984607 -0.000210011959455829 -0.000327509714040665 -0.000552031531946352 0.000241156789040701 -0.000420509244981693 7.27660630158287e-05 -0.000268942530409256 -0.00020961266754996 0.00013433639379504 0.000153242494765487 4.65997853374027e-05
"75" 0.000371019325968348 -0.0010330811142543 -0.000547288346537897 -0.000572151775337411 -0.000362207916576772 -0.000201558509698819 -0.000328866208431133 -0.000555520911869387 0.000276874059908794 -0.000440531708300929 8.55380043014853e-05 -0.000268492152830262 -0.000210168393070478 0.000117847883809075 0.000154464000866485 5.65381190514229e-05
"76" 0.00035484327409645 -0.00105039775670816 -0.000556890517226298 -0.000580445010044161 -0.000362553791828635 -0.000193160678154512 -0.000330331381306526 -0.000558234882481002 0.00031179578377868 -0.000461707093141954 9.8573606124595e-05 -0.000267335471183099 -0.000210149333170769 0.000101041942601163 0.000155990565431506 6.6017162221749e-05
"77" 0.00033809443034749 -0.00106600682312676 -0.000566197191010578 -0.000588025322212178 -0.000362751407396815 -0.000184875435690878 -0.000331885015405298 -0.000560148869064602 0.000345750616909958 -0.000483932900798492 0.000111838385949533 -0.00026544840302882 -0.000209541031277989 8.39989134152553e-05 0.000157802326437577 7.49478294132786e-05
"78" 0.00032086735266349 -0.00107975200824989 -0.000575165637675752 -0.000594843001373772 -0.000362790463121053 -0.000176766022427263 -0.000333494337616027 -0.000561244968664704 0.000378571308364246 -0.000507102167949697 0.000125286602046346 -0.000262815677798291 -0.000208331345964868 6.68023707539539e-05 0.000159890983747088 8.32565770949463e-05
"79" 0.000303248142411929 -0.00109149324486479 -0.000583745551871468 -0.00060085235985609 -0.000362673446614209 -0.000168887358491462 -0.00033513063676013 -0.000561511136437729 0.000410103149631701 -0.000531091466035692 0.000138877950030502 -0.000259422109226861 -0.00020650917358596 4.95406398464289e-05 0.000162233409101897 9.08611938734194e-05
"80" 0.000285333115243647 -0.00110110504544744 -0.000591899076254525 -0.000606013510060285 -0.000362401046427514 -0.000161295282908026 -0.000336763625343458 -0.00056094365380491 0.000440204108042698 -0.000555762978272782 0.000152565050242512 -0.000255261032345613 -0.000204071736998878 3.23022082776281e-05 0.000164809634968174 9.76927589795633e-05
"81" 0.000267213743523185 -0.00110847587095054 -0.000599586334075847 -0.00061028809774152 -0.000361962972378939 -0.000154043656828625 -0.000338359237661333 -0.000559541318134507 0.000468734523880891 -0.000580978230525306 0.000166308703826244 -0.000250327154932747 -0.000201011838087074 1.51789174657262e-05 0.000167606112517632 0.000103684685093052
"82" 0.000248978531609368 -0.00111352356870943 -0.000606769528410469 -0.000613649841788247 -0.000361369017016439 -0.000147181171482973 -0.000339888982941403 -0.000557309062760696 0.000495574121542594 -0.000606589842335984 0.000180059453458662 -0.000244625275655317 -0.000197328652664962 -1.73786978165933e-06 0.000170593554902154 0.000108773899762605
"83" 0.000230724195626765 -0.00111617387082866 -0.000613416960499707 -0.000616068231393361 -0.000360615854588121 -0.000140749378812554 -0.000341317040786376 -0.00055426158050273 0.000520609811003568 -0.000632443114881714 0.000193778061638951 -0.00023815983946675 -0.00019302948001553 -1.83558273625671e-05 0.000173758213261713 0.000112912017322819
"84" 0.000212537017984345 -0.00111637663093597 -0.000619498256376153 -0.000617526357426692 -0.000359712724656918 -0.00013479370518469 -0.000342620462536027 -0.000550418131668093 0.000543744541645561 -0.000658386722187292 0.000207418290008713 -0.00023094436633984 -0.000188115406705125 -3.45858136783329e-05 0.000177070807081912 0.000116052222072275
"85" 0.000194498524279467 -0.00111410184337864 -0.000624988070627203 -0.000618010018676865 -0.000358657452784895 -0.000129348373159867 -0.000343761307309304 -0.000545806596938131 0.000564893424453335 -0.000684260355171676 0.000220938779546844 -0.000222995331254612 -0.000182601610555172 -5.03363975149617e-05 0.00018051263193262 0.000118157752421792
"86" 0.000176692791175513 -0.00110934634198127 -0.000629869842013101 -0.000617511753322212 -0.000357458950251924 -0.000124445935432171 -0.000344717872706 -0.000540455515821201 0.000583983977295795 -0.000709914317327151 0.000234293833423866 -0.000214336124568154 -0.000176496708193717 -6.55219161786239e-05 0.000184062734859908 0.000119202352712237
"87" 0.000159195191008126 -0.00110211982993089 -0.00063412433680319 -0.000616030248435434 -0.00035612821201126 -0.000120111760787139 -0.00034546025699386 -0.0005344048401088 0.000600965691405627 -0.000735190953126468 0.000247444370947043 -0.000204993376519794 -0.000169823404756161 -8.00588164755715e-05 0.000187695303394322 0.000119167998911907
"88" 0.000142070810037511 -0.00109245919772479 -0.000637741367806572 -0.000613570252860615 -0.000354669720369815 -0.000116366989460938 -0.000345965621895843 -0.000527695254613957 0.000615787692613797 -0.000759952706742854 0.000260348309372659 -0.000194997006623074 -0.000162598391975523 -9.38660400210091e-05 0.00019139309515199 0.000118047610649795
"89" 0.000125386098454303 -0.00108042032423307 -0.000640714789200395 -0.000610141363733489 -0.000353099127944611 -0.000113228292461331 -0.000346214350179375 -0.000520378836032 0.000628425871218546 -0.000784058002169343 0.000272969498099988 -0.000184386830795717 -0.00015485268041504 -0.000106868588656904 0.000195131606677699 0.00011584570060362
"90" 0.000109197097437436 -0.00106607669451906 -0.00064304537224724 -0.000605764399355266 -0.000351423378124364 -0.000110705497269799 -0.00034618694488295 -0.000512506970460371 0.000638870892008024 -0.00080737733828966 0.000285269893846389 -0.000173202928098768 -0.000146610449835167 -0.000118994292253341 0.000198894914849153 0.000112574095233338
"91" 9.35560551892707e-05 -0.00104951978924321 -0.000644736254732095 -0.000600459463184747 -0.000349659381347943 -0.000108804582381879 -0.000345864903892777 -0.000504139733741717 0.000647116874302925 -0.000829792450487248 0.000297216727828643 -0.000161489329739187 -0.000137903696996241 -0.000130180356108906 0.000202660153528143 0.000108255881152218
"92" 7.84993216863965e-05 -0.00103086587683951 -0.000645797468802228 -0.00059425561492207 -0.000347819816890049 -0.00010752197511242 -0.000345236952430593 -0.00049533809414426 0.000653176457935861 -0.000851193986252917 0.000308775420392701 -0.000149296048045312 -0.000128773195277535 -0.000140367090250188 0.000206414334818591 0.000102928648392252
"93" 6.40705107194697e-05 -0.0010102383505212 -0.000646239591605489 -0.000587187771090012 -0.000345924095268567 -0.000106852645443015 -0.000344295439107533 -0.000486169235436198 0.000657077280845823 -0.000871491832029388 0.000319913222611473 -0.000136674390502452 -0.000119256626891358 -0.000149501454796804 0.00021014170295094 9.6637523799339e-05
"94" 5.02945224289893e-05 -0.000987790057880351 -0.000646085145387924 -0.000579297406086221 -0.000343982250199188 -0.000106784962511747 -0.000343034539319576 -0.000476703313675941 0.000658854731618676 -0.000890601690673453 0.000330607641860623 -0.000123679235760741 -0.000109396916559145 -0.00015754154654488 0.000213827478580414 8.9437294264312e-05
"95" 3.71898038820048e-05 -0.000963670568856826 -0.000645355915891692 -0.000570623397992711 -0.000342014543250218 -0.000107304218365502 -0.000341452154563059 -0.00046701065868406 0.000658559512628743 -0.000908461460146683 0.000340829461488672 -0.000110370236851968 -9.92405177945009e-05 -0.000164449610972935 0.000217459322735077 8.13966744412637e-05
"96" 2.47729658719126e-05 -0.000938053061107142 -0.000644079434881846 -0.000561219883864551 -0.000340042858908411 -0.000108387793742141 -0.000339547239172689 -0.000457167535159392 0.000656248624396412 -0.000925020067003954 0.000350557029100418 -9.68081428481596e-05 -8.88362222006682e-05 -0.00017019944511583 0.000221024759057555 7.25889918790752e-05
"97" 1.30554309936317e-05 -0.000911116164304731 -0.00064228702270812 -0.000551135971889333 -0.000338078670660917 -0.000110008882815494 -0.000337329109672896 -0.000447245672337812 0.000651991141382803 -0.000940244799127474 0.000359772410639238 -8.30535412994726e-05 -7.82385549529091e-05 -0.000174767254177617 0.000224520015708264 6.3097597371247e-05
"98" 2.02865219911099e-06 -0.000883050657460392 -0.000640013007012637 -0.000540426408800971 -0.000336148063181082 -0.000112138762179254 -0.000334802732062194 -0.000437325813120403 0.000645862073914605 -0.000954121110333407 0.000368456002322702 -6.91715240537287e-05 -6.74978784914582e-05 -0.00017814721357813 0.000227931985245733 5.30180322589115e-05
"99" -8.30243015872055e-06 -0.000854052027331866 -0.000637298197461162 -0.00052915406415241 -0.000334265800710419 -0.000114743452328683 -0.000331979149123983 -0.000427482740480185 0.000637949943918898 -0.000966640433602331 0.000376600132690497 -5.52271078857631e-05 -5.66727664729381e-05 -0.00018033268386072 0.000231260570028072 4.24478668964155e-05
"100" -1.7957425652163e-05 -0.000824326811953625 -0.000634180891503191 -0.000517377226755792 -0.000332454224216184 -0.000117787051148355 -0.000328878715210774 -0.000417788811721291 0.000628342014048778 -0.000977827861641255 0.000384187332060059 -4.12852289100439e-05 -4.58208376860076e-05 -0.00018133513213257 0.000234500108940919 3.14940062300259e-05
"101" -2.69498011271236e-05 -0.000794074825279133 -0.000630707853597509 -0.000505160953719691 -0.000330728653875796 -0.000121226640990552 -0.000325516630425052 -0.000408321762869721 0.000617138852169914 -0.000987706806276786 0.000391215523246394 -2.7410548248614e-05 -3.49989466258888e-05 -0.00018116732556433 0.000237646733120799 2.0267523930759e-05
"102" -3.5305988288954e-05 -0.000763505548376476 -0.000626923831572108 -0.000492568887737827 -0.000329110828910681 -0.000125022835557312 -0.000321914084577576 -0.000399151219554536 0.000604439869846696 -0.000996330173851157 0.000397678133324937 -1.3669265413396e-05 -2.42652772099816e-05 -0.000179858179799114 0.000240702798783579 8.88449751571047e-06
"103" -4.30506891231531e-05 -0.000732828091335878 -0.000622877235845136 -0.000479667250501161 -0.000327621553964798 -0.000129129305306083 -0.0003180959272302 -0.000390347463965277 0.000590354185664669 -0.00100375485335888 0.000403574541749056 -1.23704168056216e-07 -1.36822980902609e-05 -0.000177442112174519 0.000243669499219959 -2.53617573820847e-06
"104" -5.02179093010374e-05 -0.000702244412045709 -0.000618617118483024 -0.000466524589832434 -0.000326272861842411 -0.000133498591162781 -0.000314091907984684 -0.000381975352073083 0.000574992202514987 -0.00101005576239725 0.000408910273712457 1.31647265086617e-05 -3.30641409301218e-06 -0.0001739619128244 0.000246542590433156 -1.3871490623316e-05
"105" -5.6842627505292e-05 -0.000671961499954645 -0.000614191820975195 -0.000453206288558372 -0.000325086851370963 -0.00013808632963377 -0.000309925069914382 -0.000374095411957852 0.000558466726967939 -0.00101532118098439 0.00041368705972104 2.6132770477638e-05 6.80273080490483e-06 -0.00016947208612901 0.000249332422762645 -2.50026506120384e-05
"106" -6.29610372431358e-05 -0.000642172353032488 -0.00060965258382242 -0.000439778122125849 -0.000324076843602695 -0.000142841857992127 -0.000305631932758027 -0.000366762917751695 0.000540892864777664 -0.00101964960527707 0.000417917743569121 3.87245933773479e-05 1.65916396115535e-05 -0.000164031059594084 0.000252038125619577 -3.58089396008803e-05
"107" -6.86204659535614e-05 -0.000613072141660204 -0.000605049705998273 -0.000426307830479478 -0.000323258840050489 -0.00014771915889145 -0.000301240888100392 -0.00036002916627591 0.000522386958413222 -0.00102314872102357 0.000421610257502339 5.08853311871113e-05 2.60049211957659e-05 -0.000157711304964979 0.000254666378955244 -4.61689791384555e-05
"108" -7.3867894531945e-05 -0.000584844184245221 -0.000600432177616896 -0.000412858312059859 -0.000322642814971069 -0.000152668377312978 -0.000296787605521796 -0.000353937101094559 0.000503066601591007 -0.00102593437501722 0.000424781428354364 6.25623017578814e-05 3.49934584247628e-05 -0.000150588883249966 0.000257216750278764 -5.59684668852845e-05
"109" -7.87462447924609e-05 -0.000557661086660202 -0.000595850599354842 -0.000399492649301185 -0.000322241761613981 -0.000157642941301485 -0.000292309139744046 -0.000348524683491205 0.0004830511309501 -0.00102812969809992 0.000427450588699042 7.37106809667128e-05 4.35069784912217e-05 -0.000142747830127477 0.000259694509133359 -6.50933339440968e-05
"110" -8.33054281863286e-05 -0.000531684295748617 -0.000591348353890728 -0.000386270773219978 -0.000322066427143616 -0.000162598508719605 -0.00028783458808399 -0.000343822607268592 0.000462454191173407 -0.00102986358971507 0.000429637262501373 8.42836245223489e-05 5.15046428810671e-05 -0.000134276542830099 0.000262105106413241 -7.34412899951185e-05
"111" -8.75919218406684e-05 -0.000507069525731225 -0.000586970338180261 -0.000373252829983049 -0.000322125066223842 -0.000167488522634717 -0.000283401985954076 -0.000339850238956028 0.000441399420686479 -0.00103126540344791 0.000431362726907227 9.42443518643802e-05 5.89453775129318e-05 -0.000125275624179393 0.000264452941856003 -8.09124441546366e-05
"112" -9.16633288320525e-05 -0.000483955585696085 -0.000582764260904612 -0.000360492765755866 -0.000322421147822318 -0.000172271517311072 -0.000279048778886008 -0.0003366233088123 0.000419997569407981 -0.00103246942632092 0.000432655028379276 0.000103556891860558 6.57953913519166e-05 -0.000115841344608357 0.000266736825113292 -8.74139293429011e-05
"113" -9.55613832262834e-05 -0.000462462383099063 -0.000578760722435093 -0.000348042314287816 -0.000322957397926295 -0.000176905725965874 -0.000274803058030441 -0.000334147332695651 0.000398362435415798 -0.00103360766468968 0.000433541172764634 0.000112192047875091 7.20251169046827e-05 -0.000106087312690882 0.000268962243811135 -9.28658876542088e-05
"114" -9.93382033168976e-05 -0.000442706218518275 -0.000575002621602136 -0.000335950733485701 -0.000323733133599458 -0.000181352787865461 -0.000270701322444408 -0.000332417584002166 0.00037660645351491 -0.00103480799342537 0.000434049723718592 0.000120124965874617 7.76149257064953e-05 -9.6115623527256e-05 0.000271125801408305 -9.71950933276413e-05
"115" -0.000103042694211626 -0.000424776104301539 -0.000571517527452144 -0.000324263516719552 -0.000324751094441481 -0.000185578650887771 -0.000266775741471675 -0.000331424679574852 0.000354839062859014 -0.0010361967740388 0.000434214615379981 0.000127336933654792 8.25417753363082e-05 -8.60446777059636e-05 0.000273229431578826 -0.000100339516644773
"116" -0.000106717392683285 -0.000408745217726813 -0.000568334306412996 -0.000313018119843946 -0.000325998104837105 -0.000189550969072675 -0.000263050385616132 -0.000331148714637868 0.000333172424522959 -0.00103788606154313 0.000434071681040458 0.000133814106310401 8.68000910295029e-05 -7.59844026020303e-05 0.000275272792460728 -0.000102248837470432
"117" -0.000110410187538592 -0.000394678504707161 -0.000565479173192592 -0.000302253578159378 -0.000327477089211249 -0.000193238677351033 -0.000259552777161069 -0.000331560116180277 0.000311706569559854 -0.00103999251678149 0.000433653631111454 0.000139546794227571 9.03850552949436e-05 -6.6052608970403e-05 0.000277250025066157 -0.000102888721437301
"118" -0.000114153386281782 -0.000382612803357672 -0.000562963351900631 -0.000292001000616195 -0.000329166968789358 -0.000196618453965051 -0.000256308892228067 -0.000332621800486283 0.000290543644498873 -0.00104261309662006 0.000432993504256642 0.000144531311809619 9.32977995207318e-05 -5.63648566140565e-05 0.000279160193291112 -0.0001022314253785
"119" -0.000117993555349147 -0.000372571495230281 -0.000560801762595877 -0.000282283356256953 -0.00033105996435679 -0.000199668285392234 -0.000253337331482089 -0.00033429041971445 0.000269781387736748 -0.00104583686191418 0.000432134367670678 0.000148768873220661 9.55486757743277e-05 -4.70334030110143e-05 0.000280992934960279 -0.000100261014140045
"120" -0.000121954161610618 -0.000364552392514652 -0.000559006253393789 -0.00027312387373751 -0.000333135502840663 -0.000202366969413012 -0.000250653469525748 -0.000336513413344242 0.000249518916618839 -0.00104973328645406 0.000431113000378881 0.000152266324572309 9.71563393577624e-05 -3.81726776931596e-05 0.000282743252459531 -9.69842181960313e-05
"121" -0.000126066091063536 -0.0003585352125726 -0.000557571304795829 -0.000264537611822759 -0.000335375012557936 -0.000204698979215956 -0.000248268016512291 -0.000339231449991546 0.000229843333265705 -0.00105436614410652 0.000429965394136937 0.000155034313348981 9.8140216244709e-05 -2.98879982895777e-05 0.000284400341567357 -9.24116440822547e-05
"122" -0.000130354512223023 -0.000354491044765778 -0.000556495748216737 -0.000256533452008786 -0.000337754871287415 -0.000206653675187815 -0.000246190822685455 -0.000342376046270511 0.000210846981743777 -0.00105977599808155 0.000428732535999795 0.000157087004716919 9.85343317995028e-05 -2.2288864150544e-05 0.000285955035486464 -8.65694967075688e-05
"123" -0.00013483081664499 -0.000352354781780935 -0.000555766877537959 -0.000249118177175728 -0.000340248029034631 -0.000208222855455183 -0.000244424771285784 -0.000345878309415247 0.000192610726172786 -0.00106598967842828 0.000427455355636308 0.000158444452118929 9.83749061828292e-05 -1.54733380499153e-05 0.000287397270129518 -7.94996601217754e-05
"124" -0.000139509656633228 -0.000352054144560736 -0.000555371502285837 -0.000242288076997319 -0.000342824936544738 -0.000209401093071502 -0.00024296613616865 -0.000349660440853325 0.00017521897670334 -0.00107301351607067 0.000426169255401936 0.000159129530881286 9.77003253263626e-05 -9.53397087355282e-06 0.000288711715606759 -7.12530400526166e-05
"125" -0.000144394827147826 -0.000353489214377521 -0.000555278799286338 -0.000236036008114932 -0.000345449913949299 -0.000210187041617218 -0.000241810880713932 -0.000353639411764606 0.000158741964126975 -0.00108083403249235 0.000424913534275624 0.000159167315880086 9.65580062969308e-05 -4.56017275990592e-06 0.000289883745728725 -6.18934666358182e-05
"126" -0.000149483875519215 -0.000356542102465008 -0.000555466577912805 -0.000230349913730953 -0.000348092505306166 -0.000210580807634189 -0.000240943388470851 -0.000357733286856044 0.000143260073663121 -0.00108942192848301 0.000423727235651697 0.000158585835013867 9.50062070555102e-05 -6.31478911437467e-07 0.000290899967519643 -5.14987314491624e-05
"127" -0.000154768335626556 -0.000361079896701651 -0.000555893085176928 -0.000225209974703735 -0.000350709802328095 -0.000210587841293592 -0.00024034975141455 -0.000361852516909402 0.000128834612413903 -0.0010987269177427 0.000422643564652885 0.000157419226322479 9.30987364911437e-05 2.18266731917875e-06 0.000291745422667179 -4.01529456946698e-05
"128" -0.000160235194024918 -0.000366954883760101 -0.000556518820642154 -0.0002205919554965 -0.000353265255028723 -0.000210215848092282 -0.00024000425407453 -0.000365906758042889 0.000115528097142517 -0.00110867896836936 0.000421697122067222 0.000155697199511576 9.08954299651765e-05 3.81746576025483e-06 0.000292405943014091 -2.79536384471022e-05
"129" -0.000165859468240062 -0.000373997232399136 -0.0005572964611067 -0.000216467031330057 -0.000355713305011786 -0.000209473767235829 -0.000239880558194634 -0.000369807762551338 0.000103400440228238 -0.00111919061031714 0.000420921855020556 0.000153454757162223 8.84628774581336e-05 4.2225671254475e-06 0.000292861808744763 -1.50053012642747e-05
"130" -0.000171615575150193 -0.000382028749801922 -0.000558176010697924 -0.000212799443732951 -0.000358011614491601 -0.000208373747382212 -0.000239943817084295 -0.000373464534859266 9.25052518862132e-05 -0.00113015457694187 0.000420349284681031 0.000150728468181951 8.58698116951254e-05 3.35336344196902e-06 0.000293099436108329 -1.4224366173551e-06
"131" -0.000177466887912246 -0.000390853845459845 -0.000559097348207675 -0.000209551271259576 -0.000360114189506971 -0.000206930400476463 -0.000240160951474809 -0.000376788102902361 8.28922099752505e-05 -0.00114144196200774 0.000420006680494359 0.00014755417195307 8.31843130317338e-05 1.1826337838808e-06 0.000293101073213216 1.26745402190278e-05
"132" -0.00018337984530952 -0.000400269621113422 -0.000560004265218199 -0.000206679554162431 -0.00036197397084192 -0.000205160030418293 -0.000240488342226416 -0.000379691182152078 7.45944889999033e-05 -0.00115291877480413 0.000419921760818299 0.000143967383779279 8.04763304593534e-05 -2.31180984493967e-06 0.000292855621577661 2.71631561995352e-05
"133" -0.000189308298209265 -0.00041006499362514 -0.000560829052723536 -0.000204134892728878 -0.000363545640052602 -0.000203081539168568 -0.000240876716634152 -0.000382092186173574 6.76598413512191e-05 -0.00116442587203757 0.000420119510132458 0.000140003193730001 7.78197072491961e-05 -7.13927931258431e-06 0.000292344094984095 4.19087029625714e-05
"134" -0.000195203963179707 -0.000420018785117828 -0.000561504809078313 -0.000201866134467059 -0.000364779830964808 -0.000200714166569479 -0.000241282443599471 -0.000383909507638206 6.21058841080675e-05 -0.00117579792154867 0.000420614063449596 0.000135696011340177 7.52833331704664e-05 -1.32969485819895e-05 0.000291559242029772 5.67850106959393e-05
"135" -0.000201010725586432 -0.000429908704295233 -0.000561964343632742 -0.00019982248833451 -0.00036563322073661 -0.000198076125418288 -0.000241647357539412 -0.000385065808445048 5.79652544062076e-05 -0.00118685348650067 0.000421431040132609 0.000131081205920267 7.29371082341459e-05 -2.07679754843648e-05 0.000290481981663855 7.16498083063729e-05
"136" -0.000206680814501072 -0.000439513319831324 -0.00056213721249254 -0.000197946100723113 -0.000366059158285793 -0.000195190000218467 -0.000241919322355604 -0.000385494059461475 5.52517299187127e-05 -0.00119740499772537 0.000422579836721583 0.000126188726427989 7.08508755968851e-05 -2.95274607963668e-05 0.000289106619020989 8.63702150650029e-05
"137" -0.000212154898163828 -0.000448608315008231 -0.000561950739442886 -0.00019618085496737 -0.000366010245937062 -0.000192078654127576 -0.00024203973846666 -0.00038513209607576 5.39719389460589e-05 -0.00120725563100737 0.000424071890515548 0.00012105007824392 6.90916463914543e-05 -3.95391719850671e-05 0.000287422379772993 0.000100813393771789
"138" -0.000217373920823137 -0.000456980261237149 -0.00056134040542004 -0.000194467012093995 -0.000365448972018472 -0.000188762201129586 -0.000241951615569025 -0.00038391891361719 5.41336233132987e-05 -0.00121620203173902 0.000425917295589386 0.000115694884775622 6.77231396970605e-05 -5.07519791375498e-05 0.000285424019233834 0.000114844369319578
"139" -0.000222287417368804 -0.000464416606006552 -0.000560230792902134 -0.000192749577676199 -0.000364336367863128 -0.000185263570453613 -0.000241593271424617 -0.000381809627916025 5.5724935904023e-05 -0.00122404491082478 0.00042811496247906 0.000110145856656376 6.68051361636249e-05 -6.31097142536503e-05 0.000283103382037335 0.000128336820343177
"140" -0.000226839828637364 -0.000470716828565497 -0.000558562883658024 -0.000190968531863667 -0.000362631745175019 -0.000181604725706178 -0.000240911053140447 -0.000378759628948764 5.87419615229195e-05 -0.00123057547950434 0.000430665451114575 0.000104430106773 6.63941056837763e-05 -7.65414805978823e-05 0.000280458937563731 0.000141164671510003
"141" -0.000230971125044788 -0.000475694395524605 -0.000556268764259252 -0.000189067176722072 -0.000360307512819988 -0.000177807525839678 -0.000239840378681329 -0.000374741214342458 6.31550656436137e-05 -0.00123559570943596 0.000433567911120153 9.8565808128557e-05 6.65396933145432e-05 -9.09699194017302e-05 0.0002774906997812 0.000153212618982152
"142" -0.00023463997207193 -0.000479176878519702 -0.000553294726553524 -0.00018699394932844 -0.000357330676008378 -0.00017389073194054 -0.000238327675753907 -0.000369727182009165 6.89445729741629e-05 -0.00123890059582738 0.000436813981407291 9.25743754616086e-05 6.72911874620792e-05 -0.000106305882450496 0.000274194379758493 0.000164362104619429
"143" -0.000237801953408652 -0.000481009570891428 -0.000549583589906494 -0.000184694974570997 -0.000353677763051397 -0.000169877123491712 -0.000236321032924219 -0.000363706773018399 7.60690023431059e-05 -0.00124030850285967 0.000440392037124406 8.64686680106251e-05 6.86858490649127e-05 -0.000122453212435799 0.000270580585145993 0.000174519158274206
"144" -0.000240408161329516 -0.000481054131911013 -0.000545090427424378 -0.000182121762332217 -0.000349334606925901 -0.000165784300118019 -0.00023376611790476 -0.000356671912515946 8.44884231687496e-05 -0.00123962867485195 0.000444287203429925 8.02634878731464e-05 7.07624355484695e-05 -0.000139312778651318 0.000266652219077791 0.000183585343783757
"145" -0.000242431154979542 -0.000479197923794796 -0.000539774599800961 -0.000179231220646978 -0.000344278415741424 -0.000161627645832408 -0.000230615186005458 -0.000348629017240406 9.41546260629714e-05 -0.0012366909078234 0.000448482268300875 7.39696557886803e-05 7.35461572449532e-05 -0.000156773561647289 0.000262415027316856 0.000191473362398039
"146" -0.000243838947945442 -0.000475342889788304 -0.000533601412950839 -0.000175981979469871 -0.000338505015971679 -0.000157426199316255 -0.000226826027273579 -0.000339591209401633 0.00010500956614875 -0.00123133677639766 0.0004529583068634 6.75964371601126e-05 7.70590396652643e-05 -0.00017472237727976 0.000257883051996278 0.000198112118866859
"147" -0.000244614123343826 -0.00046942436267147 -0.000526546308585906 -0.00017233774390956 -0.000332010190568443 -0.000153193066864883 -0.000222360257218747 -0.000329580913951881 0.000116990105082491 -0.00122341865485402 0.000457692840913284 6.11482955838382e-05 8.13197422909232e-05 -0.000193042656008902 0.000253061814805972 0.000203436355331951
"148" -0.000244734195532178 -0.000461394843669708 -0.00051859415027995 -0.000168270524160677 -0.000324795218524631 -0.000148939426523944 -0.000217186289633872 -0.000318632805851541 0.000130027394468018 -0.00121280809932006 0.000462655458040978 5.46309030853897e-05 8.63335582288416e-05 -0.000211612589337955 0.000247969687049667 0.000207396074068668
"149" -0.00024419876569363 -0.000451227064075767 -0.000509733030183293 -0.000163752590984914 -0.000316870921482765 -0.000144679106289258 -0.000211276025811655 -0.000306785382151173 0.000144050992660535 -0.00119939358525166 0.000467824214247914 4.80460077203547e-05 9.21007401687328e-05 -0.000230309055904166 0.000242618704790256 0.000209946354320641
"150" -0.000242997116717024 -0.000438926058336543 -0.000499969477955432 -0.000158768132942215 -0.000308245391525949 -0.000140421349645537 -0.000204605986700296 -0.00029408837925574 0.000158977413574929 -0.00118308578285525 0.000473167614401211 4.13938096778969e-05 9.86161449596021e-05 -0.000249012164464011 0.000237026719620639 0.000211061380427547
"151" -0.000241137501304002 -0.000424515599441899 -0.000489306397317692 -0.000153298376185768 -0.000298940560161203 -0.000136171691776883 -0.000197164534275235 -0.000280600188802976 0.000174729068310408 -0.00116380609367031 0.000478653054658992 3.46734403537217e-05 0.000105868092055259 -0.000267596761406796 0.000231210724301343 0.000210722767979616
"152" -0.000238635160102644 -0.000408042861509417 -0.000477766881374015 -0.000147339980436504 -0.000288982543814147 -0.000131936647832352 -0.000188942846994278 -0.000266386132688114 0.000191216660824998 -0.00114150821986525 0.000484254769650114 2.78855025592127e-05 0.000113834530622069 -0.000285944798641219 0.000225190522968384 0.000208923255838071
"153" -0.000235503044653164 -0.000389573306909935 -0.000465380109097678 -0.000140889526647625 -0.000278398299953319 -0.000127719935540438 -0.000179943088569225 -0.000251514801680212 0.000208359678286336 -0.00111615810241061 0.000489939433763098 2.1024157621817e-05 0.00012248844990391 -0.00030393513988431 0.000218985064113232 0.000205670893379916
"154" -0.000231761683662914 -0.000369199126408797 -0.000452184287682381 -0.000133950108129308 -0.0002672233255562 -0.000123524754639576 -0.000170167848738816 -0.000236064799210399 0.000226067579691113 -0.00108775470746459 0.00049567409157954 1.40887855822603e-05 0.000131795991015627 -0.000321458022260287 0.000212611872925009 0.000200978776546726
"155" -0.000227441968110876 -0.000347022847866841 -0.000438221914376894 -0.000126530662412625 -0.000255496821344537 -0.000119351588567771 -0.000159631335501397 -0.000220120845543237 0.00024424960609668 -0.00105630848499788 0.000501425846696349 7.0751300356686e-06 0.000141715975226561 -0.000338401368876906 0.000206094762839117 0.000194878118693356
"156" -0.000222573995318944 -0.000323169910951794 -0.000423553965567421 -0.000118646502448163 -0.000243261833428757 -0.000115198374526662 -0.000148356328109453 -0.000203765406415024 0.000262823468905757 -0.00102185930679167 0.00050717073832438 -1.86298218936583e-08 0.000152202449623363 -0.000354661822490316 0.000199449143152005 0.000187398447458884
"157" -0.000217192237912092 -0.000297776206963796 -0.00040823659728863 -0.000110315468228821 -0.000230570336918873 -0.000111062844449451 -0.000136367093634512 -0.000187093807242462 0.000281701519146601 -0.000984472104205332 0.000512876042274713 -7.19746831043357e-06 0.000163201470672299 -0.000370146106733149 0.000192698559175506 0.000178592645118798
"158" -0.000211335237561619 -0.000270991377706589 -0.000392345167410984 -0.00010156381569004 -0.000217468705370742 -0.000106943532346498 -0.000123700643344051 -0.000170196924405632 0.00030080109446954 -0.00094423338803349 0.000518516478642345 -1.4462614840605e-05 0.00017465994156048 -0.000384762791946637 0.000185860107076183 0.000168512414067916
"159" -0.000205048034007795 -0.000242975903297276 -0.00037595709278937 -9.24192069996185e-05 -0.000204014851778338 -0.000102834458714523 -0.000110397258618396 -0.000153170796077733 0.000320046952330555 -0.000901248162197485 0.000524066812658901 -2.18149855078992e-05 0.000186508666069489 -0.000398433493666069 0.000178950471534078 0.000157219881740502
"160" -0.000198368479558277 -0.000213898338030628 -0.000359149782223673 -8.29135998467002e-05 -0.000190264362001234 -9.87302092074628e-05 -9.65024548386098e-05 -0.000136112135587236 0.000339359670346933 -0.000855650350366295 0.000529500578991433 -2.92541614725916e-05 0.000198682219867793 -0.000411086284711807 0.000171987669310727 0.000144783089409779
"161" -0.000191342144907659 -0.000183931404776791 -0.000342015263177258 -7.30829262998115e-05 -0.000176278649982561 -9.46258500826816e-05 -8.20685497422518e-05 -0.00011911336957678 0.000358672068669215 -0.00080759310903089 0.000534803213444696 -3.67801185090002e-05 0.000211111057051207 -0.000422662820477472 0.000164986242381872 0.00013128002684152
"162" -0.000184018708440738 -0.000153257194316535 -0.000324646106624705 -6.29688748011633e-05 -0.000162117559138503 -9.0515522397096e-05 -6.71532625759903e-05 -0.000102273086336625 0.000377922504354229 -0.000757249587226589 0.000539952335271089 -4.439034480571e-05 0.000223721248706638 -0.000433110121073094 0.000157959430049766 0.000116786665917917
"163" -0.000176440113319099 -0.000122054465362476 -0.000307141092512587 -5.26117058251829e-05 -0.000147847546254527 -8.63911552052494e-05 -5.18224553758386e-05 -8.56830771616433e-05 0.000397054817056728 -0.000704816621380481 0.00054493328572618 -5.20790789417789e-05 0.000236433167184385 -0.00044238897687149 0.000150917291988524 0.000101392084519112
"164" -0.000168656411138885 -9.05054285685587e-05 -0.000289593771346842 -4.20575403792044e-05 -0.000133530163659672 -8.22488093603077e-05 -3.61432512824903e-05 -6.94322633759454e-05 0.000416019480431551 -0.000650499450138723 0.00054973594900815 -5.98422016964404e-05 0.000249170581339136 -0.000450470061901999 0.00014386820151304 8.51780777280496e-05
"165" -0.000160715266222287 -5.87934997712502e-05 -0.000272110898095792 -3.13535303708026e-05 -0.000119228781186074 -7.80813991992236e-05 -2.01847246663851e-05 -5.36084756695684e-05 0.000434775013576638 -0.000594533360828752 0.000554348385146252 -6.76715879551033e-05 0.000261850290913653 -0.000457335686970726 0.000136821197134674 6.82367834816079e-05
"166" -0.000152668735663422 -2.70938061756255e-05 -0.000254789869329304 -2.05489507777632e-05 -0.000105011781804049 -7.38859922062322e-05 -4.02510071782852e-06 -3.82934914489357e-05 0.000453285761060019 -0.000537163693625873 0.000558766587476277 -7.55594880339862e-05 0.000274392965584202 -0.000462979975574477 0.000129780829083411 5.06608330066798e-05
"167" -0.000144563726250388 4.41933170785104e-06 -0.000237732177768941 -9.69074135508701e-06 -9.09392181962222e-05 -6.96589087482278e-05 1.22588709058188e-05 -2.35629079311973e-05 0.000471522944488365 -0.000478645521079825 0.000562984196827044 -8.34914582503496e-05 0.000286720158945524 -0.000467405578316681 0.000122748213625662 3.25404291774545e-05
"168" -0.000136450228395321 3.55679626799646e-05 -0.000221044591622168 1.16453111127984e-06 -7.70758216252567e-05 -6.53960911351526e-05 2.85842892500517e-05 -9.48968695799426e-06 0.000489471338231909 -0.000419249816303109 0.00056699982492415 -9.14576118011846e-05 0.000298751293943496 -0.000470631663488143 0.000115721614126488 1.39663666038869e-05
"169" -0.00012837735247196 6.61963017402965e-05 -0.000204820482158384 1.19715807316368e-05 -6.3486510441888e-05 -6.10977777174627e-05 4.48716272920537e-05 3.86500143312098e-06 0.000507122043166525 -0.000359253519243419 0.000570815034735183 -9.94432330817414e-05 0.000310407723557331 -0.000472679878945234 0.000108698997148003 -4.96939579933083e-06
"170" -0.000120398533965107 9.61411526438877e-05 -0.000189155218718233 2.26742757531636e-05 -5.02334809445462e-05 -5.67643920627378e-05 6.10331684508435e-05 1.64436052499717e-05 0.000524463458932027 -0.000298944190151973 0.000574428095757196 -0.00010743203174733 0.000321612303976188 -0.000473591812242837 0.000101671788821208 -2.41807539111063e-05
"171" -0.000112563377784298 0.000125260370937357 -0.000174143490612109 3.3222565210905e-05 -3.73706567588481e-05 -5.23977461538556e-05 7.69895165301707e-05 2.819277049962e-05 0.000541505758356452 -0.00023860662114147 0.000577848183418764 -0.000115407172384234 0.000332297806791011 -0.000473410807636877 9.46326690700285e-05 -4.35786788335484e-05
"172" -0.000104924567125999 0.000153405587559183 -0.00015987230621192 4.35653839264302e-05 -2.49587222724191e-05 -4.80041862339476e-05 9.26537105646332e-05 3.90766244937494e-05 0.000558252112965408 -0.000178532515315058 0.000581077062162453 -0.000123350779075184 0.000342390767248568 -0.000472194728461245 8.75708368947019e-05 -6.30809311695779e-05
"173" -9.75388585131719e-05 0.000180443399751253 -0.00014642673429534 5.36510287399503e-05 -1.30522753801377e-05 -4.35901040883938e-05 0.000107940541229096 4.90562483015971e-05 0.000574720061657412 -0.000119010534410332 0.000584120191607141 -0.000131245163165043 0.000351830270218952 -0.000470008332462545 8.04719498523721e-05 -8.26084974475811e-05
"174" -9.04572234629665e-05 0.00020625229978966 -0.000133873918507319 6.34335509741886e-05 -1.70347956535501e-06 -3.91636355269463e-05 0.000122770319807392 5.81113983897319e-05 0.000590928222437816 -6.03236760437831e-05 0.000586986508641298 -0.00013906800900196 0.000360555144601625 -0.000466923491503695 7.3323606207891e-05 -0.000102080684139468
"175" -8.3741792463307e-05 0.0002307141100561 -0.000122293012404844 7.28648099180622e-05 9.04091803975661e-06 -3.47373007370397e-05 0.000137062385680263 6.62212494322813e-05 0.000606899414381022 -2.74145577633408e-06 0.000589680849583719 -0.000146803037656912 0.000368512650442418 -0.000463022906622693 6.61048095820362e-05 -0.000121430801018959
"176" -7.74440630719214e-05 0.000253728007511483 -0.000111734774380412 8.18983726849398e-05 1.91313178216979e-05 -3.03230660488855e-05 0.000150737507698559 7.33800953060689e-05 0.000622655612257362 5.34666278521246e-05 0.000592210908978442 -0.00015442712745265 0.000375652434640564 -0.000458389114030045 5.87964758048111e-05 -0.000140583507542947
"177" -7.16337377586209e-05 0.000275191919925662 -0.00010226236207238 9.04908021054309e-05 2.85298256339227e-05 -2.59387877428511e-05 0.000163723398412886 7.95858381000031e-05 0.000638229509890245 0.000108052893496359 0.000594578936276316 -0.000161924018674484 0.00038193621844866 -0.000453114864340401 5.13820199260138e-05 -0.000159481087040767
"178" -6.6364044958945e-05 0.000295021736160582 -9.39116528970742e-05 9.86038655121415e-05 3.71955169500841e-05 -2.16017048659156e-05 0.000175947453545155 8.4846197449635e-05 0.000653641091417897 0.000160783815266302 0.000596788906486149 -0.000169271324737297 0.000387326519511035 -0.000447295422441337 4.38407521838422e-05 -0.000178059557684706
"179" -6.16997890154784e-05 0.000313138994080487 -8.67214810023684e-05 0.000106196815693134 4.50990133362444e-05 -1.73321519925951e-05 0.000187347190607458 8.91775984185955e-05 0.000668920142741232 0.000211441026398622 0.000598846628724851 -0.0001764524918128 0.000391796017406778 -0.000441032376480161 3.61491229723166e-05 -0.000196263073364363
"180" -5.77067600770847e-05 0.000329474977415499 -8.07205081046152e-05 0.000113235566915509 5.22005168519242e-05 -1.31503848624822e-05 0.00019785537158224 9.25996896853974e-05 0.000684090845682774 0.000259835387145862 0.000600752099706906 -0.000183450670607459 0.000395323668754556 -0.000434423581802539 2.82869122601741e-05 -0.000214047073123982
"181" -5.4455689246465e-05 0.000343970396168211 -7.59223730105848e-05 0.000119689661110811 5.84840637821468e-05 -9.08404964762904e-06 0.000207420877906869 9.51447380748113e-05 0.000699172099866403 0.000305794940858707 0.000602500823057262 -0.000190248350837317 0.000397895478760785 -0.000427568962754033 2.02326847583409e-05 -0.00023136151696133
"182" -5.20080504746132e-05 0.000356575364760337 -7.23320718522704e-05 0.000125530101499831 6.39201491916291e-05 -5.15566182651466e-06 0.000215990347690384 9.68453266580481e-05 0.000714178300518399 0.000349176639217582 0.000604090395053785 -0.000196834433136729 0.000399501837252799 -0.000420573720768574 1.19693400192875e-05 -0.000248164509033102
"183" -5.04355499055762e-05 0.000367251723006396 -6.99457983979782e-05 0.000130732940006263 6.84995127047218e-05 -1.39241428889133e-06 0.000223521383965441 9.77450769496743e-05 0.000729120355524365 0.000389858631570282 0.000605514780923092 -0.000203192195273749 0.000400145208427324 -0.000413536347568002 3.47461320125267e-06 -0.000264419730728097
"184" -4.9804556164107e-05 0.000375967577446904 -6.87577877593057e-05 0.000135278203683895 7.22024524131304e-05 2.17746326195089e-06 0.000229974524218542 9.78854643050729e-05 0.000744005509317282 0.000427751507260983 0.000606762200342826 -0.000209313766203228 0.000399831116645267 -0.000406553831639784 -5.26660585420721e-06 -0.000280094968029143
"185" -5.01832673665662e-05 0.000382704568493078 -6.87342006381616e-05 0.000139149802210631 7.50277643248825e-05 5.52903687950467e-06 0.00023532497296051 9.73192326727444e-05 0.000758822672402503 0.000462790801741235 0.00060782055529143 -0.000215190107049679 0.000398575617675179 -0.000399719534760403 -1.42714374051798e-05 -0.00029515832721098
"186" -5.16405876420387e-05 0.000387442837667718 -6.98524148261336e-05 0.000142337302972432 7.69655626863539e-05 8.63034161000031e-06 0.000239545216602157 9.60987519884035e-05 0.000773563086173339 0.000494946721866315 0.000608672998512649 -0.000220814905153983 0.000396397529240505 -0.000393125444032035 -2.35486809806855e-05 -0.000309588212941594
"187" -5.42448345996123e-05 0.000390182212609159 -7.20652321376582e-05 0.000144830661268219 7.80271124175301e-05 1.14553237214971e-05 0.000242619783335271 9.42794199755711e-05 0.000788201509220006 0.000524201575344183 0.000609302546187586 -0.000226185464674435 0.000393323447217035 -0.000386854349701209 -3.31112838450622e-05 -0.000323360376887395
"188" -5.80494657726579e-05 0.000390939954670451 -7.53222289611631e-05 0.000146631306158791 7.82115225851357e-05 1.39793948182731e-05 0.000244543531527012 9.19203394538177e-05 0.000802708931265857 0.000550587840426607 0.000609686025201467 -0.000231299620475618 0.000389382726705521 -0.000380983254423664 -4.29665245523273e-05 -0.000336458261253823
"189" -6.3122998947047e-05 0.000389721755122808 -7.95655851375893e-05 0.000147738881881468 7.75340448124783e-05 1.61718858595605e-05 0.000245317718845786 8.90794984868751e-05 0.000817041212949221 0.000574147111105115 0.000609800185835966 -0.000236160580999843 0.000384615790140647 -0.000375584942032327 -5.31154923803682e-05 -0.000348867196523622
"190" -6.95207926271719e-05 0.000386554562243072 -8.47315827520238e-05 0.000148160870216583 7.60123092171393e-05 1.80135495798041e-05 0.000244948873393227 8.58195401108634e-05 0.000831144399688846 0.000594944197309418 0.000609616684151704 -0.000240770812314401 0.000379064761766714 -0.000370718994247691 -6.35561968204967e-05 -0.000360572689531645
"191" -7.72931378681143e-05 0.000381479882249347 -9.07394630379269e-05 0.000147913088236827 7.36641857929217e-05 1.94777457952798e-05 0.000243455612236279 8.21952905654352e-05 0.000844959762087166 0.000613082850725672 0.000609108346036916 -0.000245137398451593 0.000372773603457294 -0.000366441936006859 -7.42899150471801e-05 -0.000371565848800427
"192" -8.64852994229623e-05 0.000374540974327735 -9.75161909424408e-05 0.000147006969626834 7.0520882815218e-05 2.05480550753761e-05 0.000240861831889599 7.82660212160764e-05 0.000858407210869579 0.000628670781062917 0.000608243295360208 -0.000249268553989747 0.000365792718095256 -0.00036279806869871 -8.53053997514871e-05 -0.000381841334548416
"193" -9.71323132628263e-05 0.000365795716074305 -0.000104967623392031 0.000145469019309109 6.66063842775112e-05 2.12030327908897e-05 0.00023719945041877 7.40924842989958e-05 0.000871406895954302 0.000641842970935235 0.00060698865497434 -0.000253176880837538 0.000358175363483577 -0.0003598234965251 -9.65913869453835e-05 -0.000391391623635397
"194" -0.000109272550849658 0.000355305303607225 -0.000113010306927888 0.000143321950579335 6.19598767131893e-05 2.14329509122325e-05 0.000232509705550146 6.97274839948985e-05 0.00088386644677467 0.000652750143222063 0.000605313848071322 -0.000256876260131317 0.000349978354308748 -0.000357546380495054 -0.000108129356249906 -0.000400217479849424
"195" -0.00012291718764942 0.000343151103965196 -0.000121543052900588 0.000140597932355038 5.66197643839085e-05 2.12228110126664e-05 0.000226839935987178 6.52224977136554e-05 0.00089568257276613 0.000661555464826599 0.000603182075469816 -0.000260379939241709 0.000341257402634939 -0.000355981010280963 -0.000119903866797498 -0.000408316926159279
"196" -0.000138087176008504 0.000329414692110398 -0.000130468593284284 0.000137332505929595 5.06275219888093e-05 2.05705494070836e-05 0.000220248468546732 6.06262046178278e-05 0.000906748266954398 0.000668429956501799 0.000600561473738773 -0.000263707545255609 0.00033207041839914 -0.000355135328015241 -0.000131886944982441 -0.00041568860823862
"197" -0.000154777058546882 0.000314194041309986 -0.00013968616215253 0.000133565646164548 4.40298622725421e-05 1.94694168855938e-05 0.000212792531017902 5.59859202600286e-05 0.000916944860543646 0.000673553281806904 0.000597418830210667 -0.000266876027291656 0.000322476106071812 -0.000355006007113212 -0.00014405274797719 -0.000422338773772175
"198" -0.000172980465854122 0.000297593193524967 -0.000149092733556375 0.000129339161185712 3.68787924271394e-05 1.79243074233101e-05 0.000204543361105774 5.13419663686223e-05 0.000926154632563335 0.000677114951543619 0.000593721388856293 -0.000269905783192323 0.000312532478030282 -0.000355580039449292 -0.000156369998643114 -0.000428270316333285
"199" -0.000192665202117937 0.00027973010404802 -0.000158585619110367 0.000124701774950502 2.92218724648316e-05 1.59393542985149e-05 0.000195574009642536 4.67320506556437e-05 0.000934252152256836 0.000679304289604893 0.000589441569012466 -0.000272818645149475 0.000302301267580124 -0.000356836695005914 -0.000168805067644575 -0.000433489241013223
"200" -0.000213803561761427 0.000260723011799609 -0.000168062472677632 0.000119703781419397 2.11212333888084e-05 1.35252957907625e-05 0.000185966420739319 4.21867748907815e-05 0.000941109649476136 0.000680308926897209 0.000584551525662214 -0.00027563672968535 0.000291837279983405 -0.000358742629845774 -0.000181316007332898 -0.00043800540372824
"201" -0.000236343226412592 0.00024070497139649 -0.000177419001980392 0.000114395438427863 1.26296947485469e-05 1.06999083919452e-05 0.000175804624470847 3.77372677671514e-05 0.000946600140022491 0.000680315372049591 0.000579027755879765 -0.000278380620788571 0.000281199162332887 -0.000361261847800983 -0.00019386770736216 -0.000441825080005889
"202" -0.000260218440659078 0.000219813953098058 -0.000186563659202337 0.000108835531243275 3.80884732270969e-06 7.48262203219808e-06 0.000165174747509616 3.34067241486995e-05 0.000950598674359478 0.000679507336041194 0.000572848376604365 -0.000281072148683514 0.000270435350634495 -0.000364346160426075 -0.000206418475264583 -0.000444959939981126
"203" -0.000285351366942297 0.000198201149644933 -0.00019539140306327 0.000103080664359473 -5.27944664389401e-06 3.89928525741932e-06 0.000154172730155611 2.92112922932016e-05 0.000952983340755054 0.000678061360718596 0.000565997403269255 -0.000283735117068335 0.000259601166949828 -0.000367942851898325 -0.000218920609371377 -0.000447422894650879
"204" -0.000311643849289341 0.000176014769758925 -0.000203817596937143 9.71898768515734e-05 -1.45735668440295e-05 -2.03794208832888e-08 0.000142891250661798 2.51672047507152e-05 0.000953635128818231 0.000676142442326464 0.000558465187010919 -0.000286387806050808 0.000248744036174403 -0.000371990494383913 -0.000231331035348147 -0.000449231666612577
"205" -0.000338996099227094 0.000153415065411506 -0.00021175052910578 9.1223307363648e-05 -2.40078585630509e-05 -4.24007952585306e-06 0.000131430468963742 2.12850647664488e-05 0.000952446561592981 0.000673910018936846 0.000550246939752986 -0.000289052467965203 0.000237909397544756 -0.000376425096862275 -0.000243607419349856 -0.000450396052537522
"206" -0.000367279292501151 0.000130564068273716 -0.000219110154253344 8.52431193997882e-05 -3.35176922944944e-05 -8.72367581013326e-06 0.000119886763210241 1.75667889635305e-05 0.0009493149560241 0.000671508120141851 0.000541339134097806 -0.000291748540108082 0.000227135631498152 -0.000381176197099739 -0.000255698705593884 -0.000450938695125554
"207" -0.000396357539078877 0.000107631179549051 -0.000225822461253254 7.93092101714164e-05 -4.30421759822019e-05 -1.34238129446922e-05 0.000108362700459613 1.40137257372802e-05 0.000944151322447245 0.000669069359240601 0.000531752463059796 -0.000294491039024087 0.000216463915960137 -0.00038617286063396 -0.000267561955394221 -0.000450876701549274
"208" -0.000426087175822154 8.47808873848628e-05 -0.00023181600142504 7.3483160240359e-05 -5.25114664328355e-05 -1.82972500617934e-05 9.69561715958993e-05 1.06271620038381e-05 0.0009368745716138 0.000666711696343298 0.000521496403278904 -0.000297296098664563 0.000205929931593361 -0.000391334987575756 -0.000279152667022283 -0.000450233620158815
"209" -0.000456298258987227 6.21854524217806e-05 -0.000237030851934023 6.78255149490066e-05 -6.18677403267432e-05 -2.32890071812005e-05 8.57676797747271e-05 7.39733976625451e-06 0.000927430038420491 0.000664539366302348 0.000510593700225913 -0.000300177014464175 0.000195559465170283 -0.00039658691934624 -0.000290428167756268 -0.000449033630753605
"210" -0.000486829048429069 4.00121887673448e-05 -0.000241411951086235 6.23936901200234e-05 -7.10444587084214e-05 -2.83485760329706e-05 7.48942671254907e-05 4.31586004761182e-06 0.000915762589256833 0.000662642888455853 0.000499068061383352 -0.000303145699541814 0.000185382437010147 -0.000401850341037369 -0.0003013447197125 -0.000447302216141656
"211" -0.000517488470707179 1.84287774865943e-05 -0.000244917154766762 5.72453077589829e-05 -7.99826324759617e-05 -3.34197022801465e-05 6.44321021963781e-05 1.37092470095436e-06 0.000901850790890152 0.00066109245902787 0.00048695260139595 -0.00030621130865659 0.000175419922263406 -0.000407046995234209 -0.000311867272843056 -0.000445070329064231
"212" -0.000548084192191523 -2.39959505859268e-06 -0.000247505686123162 5.24346158215484e-05 -8.86221408289538e-05 -3.84433506167408e-05 5.44717524620147e-05 -1.45124753498343e-06 0.000885679864438126 0.000659943643722472 0.00047429129348732 -0.000309378314697009 0.000165690645095959 -0.000412100324467732 -0.000321956151535709 -0.000442365758796413
"213" -0.000578427301202512 -2.23132443113742e-05 -0.000249147546381774 4.8012354771732e-05 -9.69064989688033e-05 -4.3358459290196e-05 4.51039165080818e-05 -4.16684992416432e-06 0.000867266153228792 0.000659243792345652 0.000461132689285792 -0.000312649774818673 0.000156207392183033 -0.000416935949911792 -0.000331582696580093 -0.00043922478789836
"214" -0.00060830430876685 -4.11587380681323e-05 -0.000249825921824046 4.40268888137162e-05 -0.000104780535801829 -4.81079248594595e-05 3.64117766786208e-05 -6.79143950008956e-06 0.000846638672116045 0.000659008517223921 0.000447527528027046 -0.000316028254725112 0.000146984095476139 -0.000421482753528659 -0.000340712961029993 -0.000435681081231751
"215" -0.000637511103404285 -5.87886347996933e-05 -0.000249523376244217 4.05244158538905e-05 -0.000112188858958861 -5.26268257656496e-05 2.84753997982436e-05 -9.34373949605451e-06 0.000823853418549661 0.000659253187330124 0.000433537448448214 -0.000319509353377636 0.000138026129870725 -0.000425671905872614 -0.000349327111973775 -0.000431774998822152
"216" -0.000665837590545442 -7.50607992615526e-05 -0.000248242735221674 3.754400667727e-05 -0.00011908780382065 -5.68565317400212e-05 2.13696159581551e-05 -1.18418744438012e-05 0.000798986462802275 0.000659970157410447 0.00041923083851033 -0.00032308853696953 0.000129337521626141 -0.000429444673315104 -0.000357401753863055 -0.000427546453504243
"217" -0.000693073786419763 -8.98501270227753e-05 -0.000245986708728876 3.5121660956148e-05 -0.000125428476647107 -6.07377209042892e-05 1.51625600194518e-05 -1.43047444673377e-05 0.000772135468024519 0.000661138586978561 0.000404676655241447 -0.000326758481194669 0.000120919726847932 -0.000432739849271932 -0.000364919149866103 -0.000423034860773787
"218" -0.000719015781667272 -0.00010303824628343 -0.000242769334868088 3.3288809052177e-05 -0.000131171002333388 -6.42129406681046e-05 9.91429779651496e-06 -1.67487460835604e-05 0.000743424586906188 0.000662727415411993 0.000389958736045075 -0.000330505940503388 0.000112770356251111 -0.000435509441508692 -0.000371872507971248 -0.000418288585651666
"219" -0.000743456186424373 -0.000114511735468156 -0.000238606442424297 3.207377833185e-05 -0.000136272300136558 -6.72240330538084e-05 5.68401937208126e-06 -1.91877293630413e-05 0.000712997153670548 0.000664689730613496 0.000375154242836287 -0.00033432127119269 0.000104885421060022 -0.000437705864650482 -0.000378254476304782 -0.000413351664223744
"220" -0.000766199416704127 -0.000124183250890684 -0.000233531860929466 3.14940410108768e-05 -0.000140706124602855 -6.97223051214739e-05 2.51210761782781e-06 -2.16411981153338e-05 0.00068102247791202 0.000666967460216864 0.000360350942930926 -0.000338185024544511 9.72599809562342e-05 -0.000439296697554877 -0.000384065292777724 -0.00040827023677597
"221" -0.000787055054266726 -0.000131963478964779 -0.000227577184083994 3.15702689988742e-05 -0.000144433059132912 -7.16542547901843e-05 4.42546781605538e-07 -2.41168232299108e-05 0.000647681715425441 0.000669495991933537 0.000345638223606758 -0.00034208025481589 8.98846632470254e-05 -0.000440250940465153 -0.00038930678895408 -0.000403092067979616
"222" -0.00080584546147384 -0.000137791622531162 -0.000220782928652489 3.23114640810534e-05 -0.000147435398642872 -7.29784484410437e-05 -4.92776147419536e-07 -2.66308860372427e-05 0.000613183368862023 0.000672197794666305 0.000331105213960433 -0.000345988714772626 8.27485469891855e-05 -0.000440547170790478 -0.00039398788594459 -0.0003978637118679
"223" -0.000822406797700234 -0.000141610691268258 -0.000213200794429563 3.3721725847627e-05 -0.000149690039682724 -7.36535814747046e-05 -2.75437758837549e-07 -2.91893970077605e-05 0.000577745773362588 0.000674993018776975 0.00031684233584001 -0.000349888020600485 7.58445704655385e-05 -0.000440174449333905 -0.000398121065891938 -0.000392631576381093
"224" -0.000836579798515205 -0.000143384568187822 -0.00020487771541709 3.58019542702933e-05 -0.00015117658296437 -7.3646642946386e-05 1.11531191403761e-06 -3.17973909450913e-05 0.00054161269424846 0.000677790713624894 0.000302944272253407 -0.000353752924288049 6.91567750963786e-05 -0.00043912576843342 -0.000401728266148379 -0.00038744316437197
"225" -0.000848228018740259 -0.00014308054768104 -0.000195873902135591 3.85452994756829e-05 -0.000151888016026476 -7.29262552919825e-05 3.68074129245909e-06 -3.44585468796295e-05 0.00050503747913847 0.000680501942381003 0.000289500691019027 -0.000357560577480587 6.26761791023333e-05 -0.000437409407513277 -0.000404833689113954 -0.00038234306689797
"226" -0.00085723037792128 -0.000140701219831105 -0.000186246574325316 4.19403764830972e-05 -0.000151816577048848 -7.1471490084245e-05 7.41954256848668e-06 -3.71752013711229e-05 0.000468282492504173 0.000683037747573729 0.000276600746394209 -0.000361284091784147 5.6392283880234e-05 -0.00043503420080335 -0.000407459320564581 -0.000377374590207423
"227" -0.000863486841008447 -0.000136245496088684 -0.000176061503517934 4.5970154222813e-05 -0.000150961513499827 -6.92657641867674e-05 1.23215919546478e-05 -3.99435484511593e-05 0.000431619243058367 0.00068530434153965 0.000264332970859522 -0.000364899681661186 5.02903607352594e-05 -0.000432025269673834 -0.000409641727818295 -0.000372576030250207
"228" -0.000866905991041504 -0.000129734639099463 -0.00016538333628977 5.06143881067825e-05 -0.000149319337814593 -6.6302576810562e-05 1.8366026126362e-05 -4.27584140026191e-05 0.000395327144301155 0.000687211896974935 0.000252777171513957 -0.00036838010376041 4.43608191841373e-05 -0.00042840986973221 -0.000411411743124859 -0.000367983766262267
"229" -0.000867430253523921 -0.000121203832882136 -0.000154282427161591 5.58436849783942e-05 -0.000146906427459755 -6.25767693332968e-05 2.55217304732143e-05 -4.56101797543267e-05 0.000359688864924598 0.000688678074585255 0.000242014144555046 -0.00037169860052297 3.85949552050194e-05 -0.000424224566900627 -0.000412810655788753 -0.000363631370914088
"230" -0.000865017749373165 -0.000110703414291736 -0.000142827838909643 6.16259519911801e-05 -0.00014372644177267 -5.80981239949579e-05 3.37557697830129e-05 -4.84896199030722e-05 0.000324986709312201 0.000689625462286914 0.000232115129499193 -0.000374831944998449 3.29809272608615e-05 -0.000419514668940939 -0.000413875839952762 -0.000359548055118325
"231" -0.000859639388605189 -9.82880617360008e-05 -0.000131085088384378 6.7927519642597e-05 -0.000139801121187765 -5.2877720790511e-05 4.30210020856977e-05 -5.13848343108123e-05 0.0002915052617339 0.00068998416914626 0.000223144179977144 -0.000377752088737579 2.7513358715098e-05 -0.000414330231929613 -0.000414650865210084 -0.000355753950337845
"232" -0.000851302338168598 -8.40370584227008e-05 -0.000119126283158849 7.47070637977533e-05 -0.000135149801188758 -4.69371567061309e-05 5.3264098852549e-05 -5.42769150145601e-05 0.00025951292035746 0.00068969266694494 0.000215160840559434 -0.000380436037985361 2.21874386246009e-05 -0.000408730007744324 -0.000415181333025022 -0.000352266408237326
"233" -0.000840033661357174 -6.80370138109797e-05 -0.000107020312615986 8.19197845291407e-05 -0.000129798562859481 -4.03046821154213e-05 6.4430040907831e-05 -5.71488606438784e-05 0.00022927803757518 0.000688708529180156 0.000208215852753966 -0.000382863964036829 1.69955670054847e-05 -0.000402775248698866 -0.000415508441501195 -0.000349097936082148
"234" -0.000825876714427812 -5.03821524289316e-05 -9.48333392497975e-05 8.95158058584989e-05 -0.000123775971684106 -3.30171258776206e-05 7.64445903228358e-05 -5.99814981284498e-05 0.000201059252125743 0.000686998656299128 0.000202351145171034 -0.000385014196521905 1.19393177126922e-05 -0.000396535028132368 -0.000415682899280784 -0.000346255231271163
"235" -0.000808901122428875 -3.11819197788878e-05 -8.26318152471466e-05 9.74492377363158e-05 -0.000117114138405948 -2.51173638191349e-05 8.92415352759429e-05 -6.27545983913499e-05 0.000175096217838595 0.000684542398663175 0.000197597818035396 -0.00038686708171501 7.01459424791041e-06 -0.000390082459605088 -0.000415746233470607 -0.000343734861277923
"236" -0.000789198762829239 -1.05473798901404e-05 -7.04769512079775e-05 0.000105663846251426 -0.000109852989439991 -1.66551681362164e-05 0.000102738037965361 -6.54457382773386e-05 0.00015161343632102 0.000681337723612913 0.000193976088192387 -0.000388407862381564 2.22595618873161e-06 -0.000383488000770352 -0.000415745943671854 -0.00034152830005922
"237" -0.000766880728708341 1.13909353600129e-05 -5.84288990728548e-05 0.000114104526161191 -0.000102026270922379 -7.68559733861395e-06 0.000116850948751213 -6.80314688480219e-05 0.000130818352279442 0.0006773990982304 0.000191500738166553 -0.000389623209848615 -2.4246942663955e-06 -0.000376831686204878 -0.000415724563185325 -0.000339624208428527
"238" -0.000742086118285698 3.45059950285664e-05 -4.65461975043593e-05 0.000122715048052804 -9.36813357044907e-05 1.73071000895155e-06 0.0001314943486377 -7.04896145748426e-05 0.000112897127690747 0.00067276178343534 0.000190171900829554 -0.000390503210305464 -6.93341638183067e-06 -0.00037019160129656 -0.000415725903569837 -0.000338000609260789
"239" -0.000714972330757185 5.86580410858909e-05 -3.48788041571735e-05 0.000131438919970674 -8.48599990622601e-05 1.15239330673585e-05 0.000146573001936096 -7.27986252808867e-05 9.80162305311984e-05 0.00066747441190678 0.000189980705121213 -0.000391040031043141 -1.12897702588229e-05 -0.000363646337098143 -0.000415786076676414 -0.000336631063306179
"240" -0.000685709038691498 8.37036596003878e-05 -2.34801935648873e-05 0.000140215480713316 -7.56083060572689e-05 2.16259776227597e-05 0.000161994306820774 -7.49341957612084e-05 8.63105800308364e-05 0.00066160311495285 0.000190908112983829 -0.000391231334079711 -1.54882049135444e-05 -0.000357272982929826 -0.000415943697128598 -0.00033548022780578
"241" -0.000654490097429938 0.000109498025382373 -1.23924402506073e-05 0.000148987766898091 -6.59773816207088e-05 3.19569008647857e-05 0.000177659846925882 -7.68757028457274e-05 7.78978579024444e-05 0.000655232741486676 0.000192922551256507 -0.000391073750533938 -1.95177186622373e-05 -0.000351147713956764 -0.000416231177926866 -0.00033451248674354
"242" -0.000621534666693961 0.000135886024763501 -1.65652126250541e-06 0.000157698478616447 -5.60163472873836e-05 4.24420837546883e-05 0.000193473726847146 -7.8605657134065e-05 7.28638132029692e-05 0.000648468209925543 0.000195987936390383 -0.000390574319069352 -2.33668587488524e-05 -0.000345344672106102 -0.000416678448441788 -0.000333681802055712
"243" -0.000587064977818255 0.000162718368286912 8.68880330295614e-06 0.000166290946398551 -4.57737144376171e-05 5.29974863012995e-05 0.000209336691559668 -8.01031314003171e-05 7.12650235786433e-05 0.000641425293776182 0.000200045507918564 -0.000389738066258772 -2.7025132267609e-05 -0.000339934745573042 -0.000417310472350174 -0.000332937442412407
"244" -0.000551326306501911 0.000189838235141385 1.86146435241316e-05 0.00017471058106378 -3.5303901868245e-05 6.35436771052401e-05 0.000225149276671547 -8.13576987317962e-05 7.31371833989535e-05 0.000634237823440774 0.000205041921068608 -0.000388579205198181 -3.04777841444635e-05 -0.000334981538618484 -0.000418153316063234 -0.000332229149768024
"245" -0.000514570948088809 0.000217094218650782 2.80905922884304e-05 0.00018290382343861 -2.46556673546278e-05 7.39941389726999e-05 0.00024081424386613 -8.23538634622954e-05 7.84811181336305e-05 0.000627052877526821 0.000210908396477362 -0.000387108331389944 -3.37133366282449e-05 -0.000330546747367506 -0.000419213868413773 -0.000331499896117591
"246" -0.000477066363616162 0.000244331405375754 3.70987237425501e-05 0.00019082297183349 -1.38849189509411e-05 8.42658924712414e-05 0.000256243012884877 -8.30839284323695e-05 8.72721147097642e-05 0.00062002662729581 0.000217563070650623 -0.000385348015050047 -3.6719777083511e-05 -0.000326682991270514 -0.00042050636462509 -0.000330688088942213
"247" -0.000439093361484314 0.000271393439733132 4.56206260232027e-05 0.000198420154421361 -3.03812717542467e-06 9.42787979042426e-05 0.00027133848622448 -8.35390839326452e-05 9.94526894518363e-05 0.000613326161574278 0.000224922684465862 -0.000383319571461565 -3.94814848313773e-05 -0.000323439256975445 -0.000422039660461714 -0.000329731964046447
"248" -0.000400934737879339 0.000298137080193813 5.36396195394133e-05 0.00020565120804698 7.8314605981119e-06 0.000103951217094518 0.000286014616228302 -8.37198804760357e-05 0.000114950305401721 0.000607133216857368 0.000232897100838561 -0.00038105051712949 -4.19897443055589e-05 -0.000320856117425096 -0.000423807460949624 -0.00032857005433453
"249" -0.000362874439684212 0.000324412908658165 6.11464382783598e-05 0.000212477857971914 1.8679554758927e-05 0.000113205687487691 0.000300188204902861 -8.36265133130448e-05 0.00013364861322717 0.000601624666299604 0.000241384611630047 -0.000378571920745574 -4.42310882298867e-05 -0.000318961850594191 -0.000425809314123938 -0.000327134267109803
"250" -0.000325210159296935 0.000350081984515928 6.81418779404922e-05 0.000218865840032785 2.94511471999162e-05 0.000121967035439803 0.000313782930515507 -8.32669544188691e-05 0.000155413269854074 0.0005969871874803 0.000250283012851862 -0.000375916157785389 -4.61947663002419e-05 -0.000317784685617202 -0.000428028759822883 -0.000325364362246352
"251" -0.000288228324110315 0.000375005080811848 7.46210375404158e-05 0.000224784036186235 4.01048590472438e-05 0.000130167621448511 0.000326721666901263 -8.26465687058919e-05 0.000180089985282897 0.000593407815991933 0.000259487026286205 -0.000373120931799411 -4.78743842458325e-05 -0.000317336899107491 -0.000430451499214117 -0.000323196331192408
"252" -0.000252226425524399 0.000399055452399422 8.05869928288425e-05 0.000230208375011928 5.05983913692329e-05 0.000137741906681354 0.000338944450530376 -8.17825340550847e-05 0.000207488130221357 0.000591074562445738 0.000268882182617509 -0.000370225701811223 -4.92601936523269e-05 -0.000317625487628761 -0.000433055237164851 -0.000320566505270042
"253" -0.000217483586725521 0.000422111879339098 8.60476254134075e-05 0.000235115344983187 6.08849830014159e-05 0.000144631441954721 0.000350392407247098 -8.06921832484115e-05 0.000237405663249973 0.000590171807250835 0.000278358936301669 -0.000367273783615411 -5.03482549411421e-05 -0.000318645648009998 -0.000435810120406045 -0.000317418620170142
"254" -0.000184285618288706 0.000444054597554547 9.1011527081334e-05 0.000239494874569289 7.09269380421191e-05 0.000150783902662537 0.000361010151049568 -7.93965231657638e-05 0.000269611254451803 0.000590875886174791 0.000287801795336116 -0.000364308534083436 -5.11348948454682e-05 -0.000320387194569523 -0.000438683119771273 -0.000313695001302761
"255" -0.00015290114213884 0.000464780111465169 9.54894873539291e-05 0.000243332307815681 8.06859684540099e-05 0.00015615185942984 0.000370757347958857 -7.79230632728229e-05 0.000303858246563629 0.000593354661471694 0.000297096912505795 -0.000361377144428262 -5.16194037323523e-05 -0.000322827117205366 -0.000441640341597492 -0.00030934434642604
"256" -0.000123590172862455 0.000484190087836677 9.95012046490574e-05 0.000246623443561804 9.01276384731533e-05 0.000160700462257086 0.000379598814096544 -7.62985641862247e-05 0.000339876798225015 0.000597772646871226 0.000306132504385381 -0.000358526546933084 -5.18009374839748e-05 -0.000325935860270702 -0.000444637231803277 -0.000304314553837806
"257" -9.66008827176914e-05 0.000502197522901996 0.000103064331814927 0.000249370489466884 9.92205357460953e-05 0.000164398517773257 0.000387503609526836 -7.45612247921039e-05 0.000377391636058141 0.000604275813411565 0.000314796934649863 -0.000355807619373632 -5.16829287638853e-05 -0.000329675023472359 -0.000447631250148142 -0.000298566319863675
"258" -7.21534679008713e-05 0.0005187257497844 0.000106194441692651 0.000251578541809323 0.00010793201287923 0.000167222020296194 0.000394457424068046 -7.27406189046318e-05 0.000416098741227378 0.000612996992978377 0.000322985557471015 -0.000353266361333417 -5.12696440917937e-05 -0.000333998351437743 -0.000450566543076861 -0.000292059522238172
"259" -5.04650387615786e-05 0.000533705184550767 0.000108915810739165 0.000253255689018981 0.000116238725498264 0.000169159991954 0.000400445655129794 -7.08794925149604e-05 0.000455692838739585 0.000624059140995882 0.000330594884100579 -0.000350952739153115 -5.05677659365108e-05 -0.000338847440592642 -0.000453397075457491 -0.000284763906848524
"260" -3.17278491492213e-05 0.000547079499525668 0.000111251624248736 0.000254418673787181 0.000124115387229364 0.000170205616436275 0.00040546925407531 -6.90202624945144e-05 0.00049585435339793 0.000637560462944502 0.000337523679844582 -0.000348915843206628 -4.95881793841109e-05 -0.000344167398093757 -0.000456065211620592 -0.000276651023504539
"261" -1.61024739063987e-05 0.00055880889390245 0.000113227282561613 0.000255088494141769 0.000131539033392327 0.000170364732306816 0.000409530979936422 -6.72012159676266e-05 0.00053625145318051 0.000653584824095705 0.000343684234328687 -0.0003472017471756 -4.83421530723878e-05 -0.000349884602556816 -0.000458517104099017 -0.000267701656713905
"262" -3.73634266751311e-06 0.000568855442386999 0.0001148669188949 0.000255286360113334 0.000138492525078139 0.000169647915821315 0.000412647087945519 -6.54720814794351e-05 0.000576552300658246 0.000672188047400044 0.00034899188269634 -0.000345856303753525 -4.68420051981227e-05 -0.000355927381202329 -0.000460692469516329 -0.000257905483973572
"263" 5.25267684604266e-06 0.000577198010913033 0.00011619810278866 0.000255040162480088 0.000144960004866153 0.000168075136677685 0.00041483900232045 -6.38722558294161e-05 0.000616422421704599 0.000693414550187763 0.000353366368366422 -0.000344919856082525 -4.51007207046333e-05 -0.000362218280954912 -0.00046253166321827 -0.000247253247974799
"264" 1.07769861539871e-05 0.000583824161772654 0.000117247396934548 0.000254381263380198 0.000150928684762391 0.000165674494076615 0.000416135231629117 -6.24480024600876e-05 0.00065551752759299 0.00071727513465563 0.000356739009198929 -0.000344435766636384 -4.31346178848914e-05 -0.000368674840482814 -0.000463982258186249 -0.000235747980288188
"265" 1.27711671995997e-05 0.00058873386356819 0.00011804155808182 0.000253342586468956 0.000156390212198825 0.000162482160103857 0.000416572925682607 -6.12451471620799e-05 0.000693506967236011 0.000743763333763052 0.000359055671580753 -0.00034443774406136 -4.0960049600097e-05 -0.00037520761752651 -0.000464981117341729 -0.000223400206365552
"266" 1.12114647161846e-05 0.000591944114227827 0.000118614207701309 0.000251964041281258 0.000161337570363423 0.000158541402379238 0.000416194283978462 -6.03068025406132e-05 0.00073005109853638 0.000772842182914158 0.000360257297560293 -0.000344961940590381 -3.85975839776195e-05 -0.000381734075861348 -0.000465473853306132 -0.000210221587099143
"267" 6.08295513732341e-06 0.000593474955923676 0.000118991862325609 0.000250284787204638 0.000165766089473188 0.000153902269961499 0.000415049739778292 -5.96712664255624e-05 0.000764831271566391 0.000804455849790976 0.00036030867869249 -0.000346036140586459 -3.60645622644003e-05 -0.000388161133400013 -0.000465407668830084 -0.000196238181312056
"268" -2.58101779258681e-06 0.000593359163858371 0.000119202224978829 0.000248344706042591 0.000169677638096947 0.000148620958042669 0.000413192882583732 -5.93818929938463e-05 0.000797523243273054 0.000838512005968317 0.000359179394739218 -0.000347685392241959 -3.33767483086731e-05 -0.0003943990212662 -0.000464723188289174 -0.000181475188563885
"269" -1.47237542664461e-05 0.000591643592016261 0.000119279305934132 0.000246188753685556 0.000173073584050498 0.000142758218609848 0.000410685766045542 -5.94702753245888e-05 0.000827834573578694 0.000874905537018027 0.000356844628368508 -0.000349929031007503 -3.05590734982621e-05 -0.000400363198286899 -0.000463379921969225 -0.000165971574977165
"270" -3.02620397158834e-05 0.000588378428364751 0.000119252367559307 0.000243859875048005 0.000175962768389857 0.000136382240088874 0.000407591960958362 -5.99701160303293e-05 0.000855469203568947 0.000913490881738407 0.000353299573797809 -0.000352783040239522 -2.76274293623267e-05 -0.000405960607024412 -0.000461327767168081 -0.000149769156914504
"271" -4.90797358099474e-05 0.000583632692466309 0.000119152477367104 0.000241407067367101 0.000178350438329865 0.000129561202518876 0.0004039806435118 -6.09124057545676e-05 0.000880161684583792 0.000954106580473802 0.000348540642686357 -0.000356256518407421 -2.46003646679994e-05 -0.000411110247418831 -0.000458523222930048 -0.000132915520739371
"272" -7.10323653902392e-05 0.000577481767461864 0.000119013253828325 0.000238874446150164 0.00018024973095579 0.000122373127401057 0.000399926092857157 -6.23155710836505e-05 0.000901669305348028 0.000996563503525715 0.000342581338420206 -0.000360355171557097 -2.14956874061383e-05 -0.000415728547407414 -0.00045493200047098 -0.000115466215154227
"273" -9.59509189112975e-05 0.000570005004329025 0.000118868259975756 0.000236310968876709 0.000181680939297302 0.0001148905962492 0.00039550324944122 -6.42016926384381e-05 0.000919762326411691 0.00104064516853301 0.000335443405282299 -0.000365079456064609 -1.83318899759938e-05 -0.000419739432547557 -0.000450518719344778 -9.74752129472931e-05
"274" -0.000123633955313183 0.000561292368135868 0.000118751228630799 0.000233760882099565 0.000182660431265713 0.000107194318860181 0.00039078995620792 -6.65815686514005e-05 0.000934245697925789 0.00108611776215748 0.000327152287485333 -0.00037042159741291 -1.51271300481881e-05 -0.000423068686380401 -0.000445257044574418 -7.90086604938702e-05
"275" -0.000153867891355025 0.000551448626967075 0.000118692913083282 0.000231273685630223 0.000183212782811196 9.9365530994273e-05 0.000385866745680301 -6.94634573204176e-05 0.000944957402614772 0.00113271877182991 0.000317752532604102 -0.000376371429158921 -1.18940127508474e-05 -0.00042565259051522 -0.000439125525766626 -6.01357042067635e-05
"276" -0.000186411977489462 0.000540571138172954 0.0001187310797087 0.000228892662998754 0.000183361964537167 9.14795566970834e-05 0.000380812631029047 -7.28487238845026e-05 0.000951755498187922 0.0011801750283438 0.00030729493538849 -0.000382914291635777 -8.64691378855111e-06 -0.000427427639739402 -0.00043210764394993 -4.09227015012075e-05
"277" -0.000221004676902715 0.000528776593162618 0.000118904488906563 0.000226666452516869 0.00018314201590828 8.36205283365414e-05 0.000375711268769161 -7.67305104878591e-05 0.000954538911634218 0.0012281864523399 0.000295831524164361 -0.000390029765144138 -5.39957113298291e-06 -0.000428341692479438 -0.000424193671135337 -2.14467867353306e-05
"278" -0.000257360385939222 0.000516184509745401 0.000119243212917354 0.000224635552301762 0.000182579920947407 7.58635860706545e-05 0.000370641554479503 -8.10974197126534e-05 0.000953243284250099 0.00127644561663617 0.000283430933511566 -0.000397689871694289 -2.16304225427875e-06 -0.0004283510381451 -0.000415377569392576 -1.78171231399149e-06
"279" -0.000295191835773645 0.000502906112367064 0.000119790218198796 0.000222844334781198 0.000181716644543889 6.82846655844203e-05 0.000365682166265787 -8.59321055295959e-05 0.000947833946925459 0.00132462864717097 0.000270166394853814 -0.000405868521937501 1.05276701018051e-06 -0.000427414439761561 -0.000405666120198971 1.79938465180842e-05
"280" -0.000334195346166601 0.000489075738693597 0.000120578064483628 0.000221332644010761 0.000180587249121862 6.09600259252876e-05 0.00036091553853761 -9.12123698700684e-05 0.000938313250425703 0.0013724046534875 0.000256113782982077 -0.000414528343585202 4.24220440154068e-06 -0.000425503664064827 -0.000395061936874538 3.78014282863968e-05
"281" -0.000374049922465631 0.000474816228949594 0.000121646071956185 0.000220138613332891 0.000179233460420176 5.39563100672932e-05 0.000356414255319064 -9.69043251664626e-05 0.000924727129144865 0.00141943535600967 0.000241356192790948 -0.000423636046702693 7.39641000101626e-06 -0.000422597867471392 -0.000383583515307043 5.75637018962199e-05
"282" -0.000414433328473244 0.000460258457343868 0.00012303364841052 0.000219300820590744 0.000177703745267386 4.73420300860366e-05 0.000352250208243053 -0.000102974380147946 0.000907155276482598 0.00146538441119475 0.000225987875644388 -0.000433148595170776 1.05129825671534e-05 -0.000418686775438824 -0.000371254869580252 7.72016702830197e-05
"283" -0.000455022649127508 0.000445531629632051 0.000124773604033362 0.000218852489285517 0.000176038959774932 4.11768288293127e-05 0.000348496917089326 -0.000109382238117577 0.00088570705532725 0.00150991310694391 0.000210095743049564 -0.000443025537746566 1.35852681620796e-05 -0.000413763369466785 -0.000358098610340552 9.66386306037725e-05
"284" -0.000495487906767513 0.000430762229801932 0.000126905615300166 0.000218824073388103 0.000174288671043087 3.55178227397982e-05 0.000345218059536936 -0.000116076565235084 0.000860536877259196 0.0015526928060854 0.000193776759337716 -0.000453221312137379 1.66135439274524e-05 -0.000407835994524389 -0.000344152289878322 0.000115800863574495
"285" -0.000535504322782705 0.000416077708039091 0.000129463257160921 0.0002192443798964 0.000172502202866819 3.04162077166146e-05 0.000342474249088251 -0.000123009669067709 0.000831827754246304 0.00159340035066739 0.000177129637276185 -0.000463686564374329 1.96006589794584e-05 -0.000400915647242627 -0.000329456197187873 0.000134612562093228
"286" -0.000574750430571591 0.00040160667301667 0.000132479384926927 0.000220139070364967 0.000170730127279248 2.59181983346141e-05 0.00034031984098891 -0.000130126607818066 0.000799793374624269 0.00163173052110285 0.000160247893360992 -0.000474377642318225 2.25437185531055e-05 -0.000393026465951763 -0.000314051497346448 0.000153006883979936
"287" -0.000612914748371617 0.000387463020618361 0.000135982440723637 0.000221529017749343 0.000169024959814704 2.20613742772432e-05 0.000338808071896545 -0.000137367221538475 0.000764678815882828 0.00166739216976038 0.000143234063057621 -0.000485242962963824 2.5446713425487e-05 -0.000384198722246215 -0.000297991789229033 0.00017091591071827
"288" -0.000649692210394431 0.000373765101814584 0.000140004024199462 0.00022343341052003 0.000167434524069861 1.887961096432e-05 0.000337976984903409 -0.000144668606937062 0.000726749292742886 0.00170011667237122 0.000126181063568948 -0.000496233005262374 2.83148480557224e-05 -0.000374469713136926 -0.000281335077926032 0.000188280866967959
"289" -0.000684792273835371 0.00036062046529887 0.000144567480715173 0.000225864234398046 0.000166010160823872 1.63983570583413e-05 0.000337864189293048 -0.000151964746060917 0.000686302666840232 0.00172966313881175 0.000109187535662849 -0.000507298271909769 3.11543892503667e-05 -0.000363885312541936 -0.000264138186492371 0.00020504394786384
"290" -0.000717941370926084 0.000348132647648451 0.000149697757467678 0.000228832496252965 0.000164799870387487 1.46353151910858e-05 0.000338500477246371 -0.00015919543681465 0.000643646982005954 0.00175582075297523 9.23441758277337e-05 -0.000518392172844658 3.39704717115263e-05 -0.000352495955889867 -0.00024646755007661 0.000221152663857618
"291" -0.000748883198407658 0.000336391280765369 0.000155408027973661 0.000232343046850557 0.000163856281425734 1.36061884008769e-05 0.000339904374118509 -0.000166289210909006 0.000599108972943963 0.00177840405231624 7.57386449230915e-05 -0.000529464074386427 3.67726703789389e-05 -0.000340364297706433 -0.000228387781305444 0.000236565198937339
"292" -0.000777377457258318 0.000325483672070768 0.000161714307467936 0.000236396899562832 0.000163218367206191 1.33139012690876e-05 0.000342088398976489 -0.000173180291834522 0.000553024388457184 0.00179726247357406 5.94544913401789e-05 -0.000540468660220775 3.9565680260749e-05 -0.000327550125072026 -0.000209977249448074 0.00025124343800309
"293" -0.00080321326833028 0.000315484590321095 0.00016862006286263 0.00024099272515472 0.000162934627376658 1.3758086221856e-05 0.000345060074084557 -0.000179802543425431 0.000505739971845956 0.00181228868243896 4.35726950164783e-05 -0.000551360308467752 4.2362228210085e-05 -0.000314121750531825 -0.000191304049047845 0.000265154624188964
"294" -0.000826198643582449 0.000306451036963826 0.000176131335541296 0.000246117964182773 0.000163041097810847 1.49322722257321e-05 0.000348813275695965 -0.000186091674086989 0.000457597642166343 0.00182340421678015 2.81616838327284e-05 -0.000562097156743959 4.51735004456852e-05 -0.000300152905467812 -0.000172444003941001 0.000278274282015254
"295" -0.000846166439278599 0.000298440835855548 0.000184237528492474 0.000251763357860376 0.000163576490010083 1.68203970670068e-05 0.00035333658337631 -0.000191986105000042 0.000408946684026156 0.00183057587467476 1.32926226248528e-05 -0.000572633190252502 4.80071929169271e-05 -0.000285717970612376 -0.000153473777343775 0.000290586975220367
"296" -0.000862977888354354 0.000291487841322907 0.00019293423000199 0.000257909081985359 0.000164573606993083 1.94042327028207e-05 0.000358603273719873 -0.000197423470219316 0.000360123284044724 0.00183380282424298 -9.79277997924159e-07 -0.000582932079064052 5.08769937161807e-05 -0.000270896699229428 -0.000134475725851298 0.000302081030747245
"297" -0.000876526588110785 0.000285621027842072 0.000202198973984505 0.000264530847441339 0.000166056122511852 2.26568111795891e-05 0.000364588144140105 -0.00020234615821453 0.000311462524476152 0.00183312709219719 -1.46017251958173e-05 -0.000592955831651305 5.37948888267469e-05 -0.000255764899891776 -0.000115522956948808 0.000312759677628104
"298" -0.000886729947078597 0.000280852817752941 0.000212005321491353 0.000271604649466262 0.000168048090833909 2.65470565592489e-05 0.000371249575575403 -0.000206705110371737 0.000263279943128721 0.0018286247444628 -2.75291967773593e-05 -0.000602670638172468 5.67714847143664e-05 -0.000240405640403902 -9.66925720361183e-05 0.000322625736426135
"299" -0.000893532114821751 0.000277187077039665 0.000222327173453187 0.00027909593364229 0.000170570056075697 3.10353229158866e-05 0.00037854270493694 -0.000210451306780843 0.000215875605332239 0.00182041255760926 -3.972907568886e-05 -0.00061204278949568 5.98223852293087e-05 -0.000224894980054663 -7.8063127207506e-05 0.000331696171276957
"300" -0.000896915049087718 0.000274606625664931 0.000233119019550932 0.000286967910925823 0.000173627813345283 3.60841255924554e-05 0.000386409032326838 -0.00021353953612292 0.000169531246660823 0.00180863436329647 -5.11750598488875e-05 -0.000621042332339051 6.29577944929124e-05 -0.000209314538220901 -5.97087329400876e-05 0.000339991913499421
"301" -0.000896889365039472 0.000273087113558453 0.000244338536464863 0.000295180640535492 0.00017722981757764 4.16431053836124e-05 0.000394784322627238 -0.000215935223519569 0.000124509489375136 0.00179347210761961 -6.18447304142259e-05 -0.00062964421097595 6.61897706513173e-05 -0.000193739430566682 -4.16962922769787e-05 0.00034754541280165
"302" -0.000893489058697454 0.000272592976282796 0.000255928730393375 0.00030369027150466 0.000181377705930752 4.76644202453761e-05 0.000403604535925795 -0.000217605519199953 8.10468303920407e-05 0.00177513343991442 -7.17322930898117e-05 -0.000637824969811447 6.95318980865582e-05 -0.000178243749964241 -2.4100514391246e-05 0.000354390876580753
"303" -0.000886785615505671 0.00027307085155057 0.000267829902938284 0.000312447432498165 0.00018606636046925 5.40952016528946e-05 0.000412785772300463 -0.000218526958522273 3.93507194251336e-05 0.00175385146470544 -8.08347385515746e-05 -0.000645560118351381 7.29944479064658e-05 -0.000162900153559195 -6.98080862867768e-06 0.000360574270342917
"304" -0.000876875551557025 0.000274461795253432 0.000279978896345699 0.000321402329436229 0.000191278924641548 6.08775162191117e-05 0.000422249784253409 -0.000218682906664361 -3.9722582543496e-07 0.00172988502768163 -8.91580561625248e-05 -0.000652836145862861 7.65872428329024e-05 -0.000147775579647878 9.59832637011128e-06 0.00036614760231291
"305" -0.000863885160408747 0.000276689402640036 0.000292298966031948 0.000330497345965304 0.000196997569508671 6.79568974864325e-05 0.000431909655851961 -0.000218061961474659 -3.80367606975798e-05 0.00170350475766685 -9.67133958866647e-05 -0.000659631517611341 8.03243614095225e-05 -0.0001329304430137 2.55827161910036e-05 0.000371162662647578
"306" -0.0008479650057893 0.00027967442202636 0.000304712690178298 0.000339677942917677 0.000203201974688583 7.52696533999324e-05 0.00044167298960386 -0.000216656903150018 -7.34396017645497e-05 0.00167500286429837 -0.000103523839221486 -0.000665935291829757 8.42100228359568e-05 -0.000118426798221832 4.09200223990394e-05 0.00037567961815774
"307" -0.000829291413592366 0.000283321542163484 0.000317144560688679 0.000348886419011966 0.000209857509553318 8.2758229281927e-05 0.000451446842139637 -0.000214478714777691 -0.000106509147466758 0.00164468007772027 -0.000109617240824801 -0.000671736969784439 8.82513920010332e-05 -0.000104316253534576 5.55615782415242e-05 0.000379766406201443
"308" -0.000808071225271396 0.000287533643740359 0.000329499338455755 0.000358062763977212 0.000216934225319722 9.03606982380086e-05 0.000461132055468998 -0.000211531783672914 -0.000137176853273777 0.00161284754742138 -0.000115027473263552 -0.000677025890328193 9.24574005594239e-05 -9.06450304511039e-05 6.94681179765693e-05 0.00038348782686449
"309" -0.000784523254911239 0.00029219841233511 0.000341693763167066 0.000367146227763659 0.000224387586082844 9.80177662713566e-05 0.00047063433880087 -0.000207838849770123 -0.000165398565441244 0.00157981265507634 -0.000119789791486235 -0.000681799676563448 9.6833096980454e-05 -7.74564050119153e-05 8.26055794367633e-05 0.000386914412063514
"310" -0.000758895746201042 0.000297209557687279 0.000353636025837938 0.000376077726765498 0.000232172219761538 0.000105668406888716 0.000479853019705989 -0.000203421440017853 -0.000191155173206334 0.00154589103187899 -0.000123951475208467 -0.000686050886113762 0.000101377105023609 -6.47844377415082e-05 9.49402952189235e-05 0.000390117749898278
"311" -0.0007314414149511 0.000302449290158074 0.000365234550051302 0.000384795649541676 0.000240242817065906 0.000113254355009862 0.000488695051867115 -0.00019831605800157 -0.000214459971262022 0.0015113891667523 -0.000127557137536649 -0.000689778240941423 0.000106094227386568 -5.26612931194991e-05 0.000106448854738031 0.000393168850493492
"312" -0.000702444663802035 0.000307789642797437 0.000376399053541444 0.000393240450759127 0.000248543547353168 0.000120722694214116 0.000497067601083143 -0.000192557678339489 -0.000235340843912624 0.00147661404868746 -0.000130653842005927 -0.000692982448054733 0.000110979021640155 -4.1107487775716e-05 0.000117113261968989 0.000396137059442556
"313" -0.000672183145444743 0.000313115298539421 0.000387034883111426 0.000401355513385149 0.000257019737228613 0.000128018322322604 0.000504874053912419 -0.000186192150811695 -0.000253855207448893 0.00144185216557376 -0.000133296720648354 -0.000695663499819445 0.000116031694620294 -3.01458772724486e-05 0.000126921274046905 0.000399090808991662
"314" -0.000640958727821076 0.000318299758762563 0.000397059111003287 0.000409081793513309 0.000265610631013228 0.00013509369914044 0.000512033019967414 -0.000179267230759643 -0.000270077862895 0.00140738806523143 -0.000135536204143475 -0.000697822555720757 0.000121246209271309 -1.9786458776311e-05 0.000135862204594066 0.000402097339307578
"315" -0.000609072719573177 0.000323224528058598 0.00040638758432624 0.000416369613387 0.000274261875275487 0.000141900375031251 0.00051846062207454 -0.000171839209845329 -0.000284099882087794 0.00137348890779493 -0.000137424136265407 -0.000699465603089739 0.000126615850453106 -1.00372066710176e-05 0.000143933532769939 0.000405218909988919
"316" -0.000576827816093704 0.000327768619815358 0.000414932566242056 0.00042316230116952 0.00028290214414057 0.00014839875823244 0.000524083319756508 -0.000163968259487858 -0.000296029723437825 0.00134040158246457 -0.000139014826893069 -0.000700594643491619 0.000132129341152963 -9.02418117597952e-07 0.000151135591652683 0.000408511218562628
"317" -0.000544532261591311 0.000331811859181282 0.000422624361677757 0.000429415420321803 0.000291476162825647 0.000154551939391172 0.000528829398989468 -0.000155717333359886 -0.000305986761456479 0.00130835975742938 -0.000140352371714879 -0.000701213730350028 0.000137774707974627 7.6206730148268e-06 0.000157472922315113 0.000412023904764333
"318" -0.000512484023431727 0.000335248628444078 0.000429391290644669 0.000435080248928768 0.000299917228943302 0.000160327075167233 0.000532641826404426 -0.000147151016201672 -0.00031410955581118 0.00127756885271457 -0.000141491072058914 -0.000701328802317494 0.0001435425207182 1.55370194063629e-05 0.000162956973411822 0.000415802927853215
"319" -0.000480982190613105 0.000337971993821139 0.000435170644123041 0.000440117818403608 0.000308163559271986 0.000165697511499418 0.000535467193972873 -0.000138338096822006 -0.00032053676776693 0.00124822155303563 -0.000142470355684417 -0.000700946056260218 0.000149417193078122 2.28547987999998e-05 0.00016759772799871 0.000419888620310466
"320" -0.00045030747825065 0.000339884858762771 0.000439911948377472 0.000444487446524979 0.000316156777546652 0.000170644377357653 0.000537261092887709 -0.000129348584889314 -0.000325416126179388 0.0012204838002765 -0.000143332219545149 -0.000700067015601602 0.000155380617023241 2.95834933260224e-05 0.000171412500097582 0.000424306225866382
"321" -0.000420739865622198 0.000340894839320706 0.000443570317577456 0.000448156903449108 0.000323835087212492 0.000175151506944387 0.000537991281976553 -0.000120253946831705 -0.000328903760780963 0.00119449272067211 -0.000144111479924534 -0.000698696701253156 0.000161418329699017 3.57386567246838e-05 0.000174413340933809 0.000429080261595825
"322" -0.000392531260102441 0.000340924961027934 0.000446104106364254 0.000451094953759762 0.000331138792601246 0.000179208779153485 0.000537630122723939 -0.000111122786055931 -0.000331153978406971 0.00117036882287732 -0.000144838479238962 -0.000696838509486371 0.000167507568439848 4.13330449307902e-05 0.000176625170424254 0.000434218520362654
"323" -0.000365923332103975 0.000339901471798489 0.000447489943416496 0.000453273458409314 0.000338016178705241 0.000182814006038524 0.000536166374735882 -0.000102026125476136 -0.000332321654344846 0.00114820799979232 -0.000145539926516428 -0.000694493737251017 0.00017363425142218 4.63814760066738e-05 0.000178063538440018 0.000439723504133047
"324" -0.000341136013075858 0.000337766710123861 0.000447713848258688 0.000454672627902908 0.000344418296796253 0.000185968159740356 0.000533596799101826 -9.30342182698728e-05 -0.000332561053964513 0.00112807145881479 -0.000146232936085061 -0.000691664668309093 0.000179775091885286 5.09007241652219e-05 0.000178749849984139 0.000445592499643871
"325" -0.000318367772900645 0.000334469869113517 0.000446770031782227 0.000455272111613133 0.000350292349640993 0.000188679549380983 0.000529924564048998 -8.42099220513142e-05 -0.000332021878874755 0.00111000521146567 -0.000146931134274442 -0.000688348471524427 0.00018591132964408 5.49046001569685e-05 0.00017870600053146 0.000451806270518376
"326" -0.000297789011873787 0.000329975567505107 0.000444664630372419 0.000455059002640717 0.000355596316891587 0.000190960939909875 0.000525165121602696 -7.56221899169013e-05 -0.000330850270554961 0.00109402739701693 -0.000147640546105321 -0.000684544957916884 0.00019202125167958 5.84068193099556e-05 0.000177951795913538 0.000458337305982663
"327" -0.000279546125213107 0.000324256048690978 0.000441417500959522 0.000454021199388253 0.000360292596697617 0.000192831407325215 0.000519345589680326 -6.73265981430965e-05 -0.000329180000166928 0.00108013182522285 -0.000148364400954501 -0.000680252365104114 0.00019808800609947 6.1420839355065e-05 0.000176504189991931 0.000465151514018285
"328" -0.000263761061561389 0.000317301553262221 0.000437052395020257 0.000452155787375982 0.000364347003911434 0.000194314976838076 0.000512503808920911 -5.93805914365414e-05 -0.000327138699429241 0.00106828833624747 -0.000149096294076884 -0.000675464967833624 0.0002040882406699 6.39556666071694e-05 0.00017438549286376 0.000472202380920571
"329" -0.000250519919720733 0.000309110896637505 0.000431611727437531 0.000449455545752405 0.000367728756197372 0.000195436706647819 0.00050468251808359 -5.18390075400461e-05 -0.000324844636529805 0.00105844399703161 -0.000149822649231035 -0.000670175906697116 0.000210004171338851 6.60203111929811e-05 0.00017161218743457 0.00047943965772768
"330" -0.000239888659512634 0.000299694037790747 0.000425148727445123 0.000445925684290954 0.000370418800864065 0.000196230609923587 0.000495936760150626 -4.47429651724594e-05 -0.000322404809297533 0.00105052086198748 -0.000150528522889276 -0.000664379569224656 0.000215816833609326 6.76181931723447e-05 0.000168195714438083 0.000486798340250896
"331" -0.000231898401945476 0.000289071597405177 0.000417723107602838 0.000441567616095947 0.000372390745654931 0.000196730683163106 0.00048633029015335 -3.8140751977275e-05 -0.000319913289061843 0.00104442440707493 -0.000151194317596112 -0.000658068415158722 0.000221509581151461 6.87500761359212e-05 0.000164153902190442 0.00049421461289512
"332" -0.000226553731465054 0.000277280929730754 0.000409411076417844 0.000436392410977671 0.00037364045420679 0.000196976232321098 0.00047593164617409 -3.20649779369576e-05 -0.000317453784685943 0.00104003911908274 -0.000151788851060988 -0.000651231432709735 0.000227064973816678 6.94169976987744e-05 0.000159494140399757 0.00050160828152875
"333" -0.000223827852423862 0.000264368271337787 0.000400289382632031 0.000430410353113069 0.000374156875556731 0.000197007886187137 0.000464820639881111 -2.65473441946907e-05 -0.00031508734990816 0.00103723505470381 -0.000152284358607497 -0.000643860919000419 0.000232464867751298 6.96124614756684e-05 0.000154228641335411 0.000508900611781619
"334" -0.000223673137477453 0.000250385240730603 0.000390450167312652 0.000423635895104736 0.000373941787665286 0.000196866785549358 0.00045308115640168 -2.16130273241049e-05 -0.000312872859436799 0.00103585567049178 -0.000152643348207041 -0.000635946981565858 0.000237697302009176 6.9328406324235e-05 0.00014836430248947 0.000516005316425239
"335" -0.000226010984190431 0.000235399398212941 0.000379994317732946 0.000416087904169022 0.000372998116270575 0.000196598282345859 0.00044080510216416 -1.72798527686839e-05 -0.000310843237338516 0.00103574173198437 -0.000152834200106406 -0.000627478009878252 0.000242747651663379 6.8551745438248e-05 0.000141903708795737 0.000522835496602717
"336" -0.000230735591993747 0.000219483392206006 0.000369029567136805 0.000407787138953876 0.000371334178504538 0.000196244614318423 0.000428085267273151 -1.35627752341986e-05 -0.000309025447310423 0.00103671398164583 -0.00015281105430665 -0.0006184442674281 0.000247604281769271 6.72668106687226e-05 0.000134849624396201 0.000529296409471829
"337" -0.000237720081314228 0.000202718634877384 0.000357669771106898 0.000398757112512669 0.000368972412267936 0.000195855246559702 0.00041502201990167 -1.04686053275632e-05 -0.000307423933335625 0.0010385852672663 -0.000152537301746969 -0.000608838278330924 0.000252254598691112 6.54545478272255e-05 0.000127200713466228 0.000535292906006766
"338" -0.0002468277042607 0.000185187499841935 0.000346031948585442 0.000389021972200234 0.00036592675813229 0.000195469170062926 0.000401720317271051 -8.00043641401807e-06 -0.000306037645099899 0.00104115962352705 -0.000151971555957542 -0.000598650989572189 0.000256688496930752 6.30932967275447e-05 0.000118958191171434 0.000540733086108678
"339" -0.000257886534000571 0.000166991506930942 0.000334242803689629 0.000378614713060212 0.000362231310263931 0.000195131385198686 0.000388286098027239 -6.15510847700049e-06 -0.000304849579937611 0.00104423749247274 -0.000151073130984231 -0.000587875865570418 0.000260895751443999 6.01564590154885e-05 0.000110117301697733 0.000545525519564
"340" -0.00027071573523642 0.000148219935068001 0.000322423021680646 0.000367560668489079 0.000357909691204965 0.000194884785146386 0.000374823058270305 -4.92237795102375e-06 -0.000303824940882257 0.00104760843467795 -0.000149799417386748 -0.000576506811666083 0.000264870988811449 5.66165620777763e-05 0.000100676910458303 0.000549577240468561
"341" -0.000285126326050971 0.0001289770035894 0.000310711216156068 0.000355898296880326 0.000353002782175 0.000194765117929927 0.000361443054986377 -4.29061832979405e-06 -0.00030292322635924 0.0010510689959996 -0.000148114088655387 -0.000564541517222459 0.000268606294752389 5.24463797233699e-05 9.06253140966292e-05 0.000552802396663105
"342" -0.000300908161883741 0.000109364181840885 0.000299233761542858 0.000343659628990108 0.000347551635858043 0.000194813828708564 0.000348250376967954 -4.24088474798255e-06 -0.000302094484009824 0.00105440865374533 -0.000145984509606483 -0.000551977900662834 0.00027209307022915 4.76123162065424e-05 7.99634762137131e-05 0.000555118551673772
"343" -0.000317854340949571 8.9484569849198e-05 0.000288118783270907 0.000330880365919937 0.000341595440172297 0.000195059121879286 0.000335355206047942 -4.7545062550757e-06 -0.000301272553974863 0.00105742809766803 -0.000143377635171716 -0.000538821844974473 0.000275326046536506 4.20844557789827e-05 6.86782242074981e-05 0.000556450198002544
"344" -0.000335744876143988 6.9438960692608e-05 0.000277493104582805 0.000317601151321312 0.000335186397806707 0.000195536590773692 0.000322857243276132 -5.80626866795856e-06 -0.000300390560248631 0.00105992962662804 -0.000140266096444523 -0.000525075086352353 0.000278301656889801 3.58296767128885e-05 5.67688390797013e-05 0.00055672560524639
