"V1" "V2" "V4" "V5" "V7" "V8" "V10" "V11" "V13" "V14" "V15" "V17" "V18" "V20" "V21" "V23"
"1" 0.00014190699999619 0.000423550856826704 0.000135441172008242 0.0004549279002465 2.50802235001254e-06 -0.000128279219073232 -5.95363272091069e-05 -0.000392787209769858 -0.00043487540262653 0.000628791969754643 0.000382235845131618 -7.8295701379392e-05 0.000161150789476718 -0.000368860773934586 0.000619694992076581 0.00168149803226802
"2" 0.000141712034289108 0.000422654510997727 0.000133972911805735 0.000455961115576671 3.0206927846872e-06 -0.000127967615776602 -6.1314324650677e-05 -0.000390072110825778 -0.000423972403838791 0.000615984221193497 0.000373432557300617 -8.79409955599622e-05 0.000257886201888974 -0.000357487301923764 0.000617604541614778 0.00147945191281682
"3" 0.000141662210843875 0.000421298883449357 0.000133308465879824 0.00045670922379597 3.99803573903261e-06 -0.000127862491727118 -6.25987772648079e-05 -0.00038747212640656 -0.000413738676468303 0.000596960111084555 0.000363115365103933 -9.71681256485221e-05 0.000355030187485367 -0.000350083378592639 0.000610205448180054 0.00128154793803389
"4" 0.000141716839229652 0.000419420929485212 0.000133475301174994 0.000457129998618906 5.47810879604748e-06 -0.000128008001239059 -6.33745734360396e-05 -0.00038505534274524 -0.00040416594377916 0.000571491150525307 0.000351392006675047 -0.000105995365324447 0.00045142515630172 -0.000346760708505784 0.000597434452556916 0.0010890223757735
"5" 0.000141839621391076 0.000416959218931835 0.000134496537213302 0.000457191392497879 7.48432081506295e-06 -0.000128439373350586 -6.36252815630479e-05 -0.000382878430000839 -0.000395246213760545 0.000539424235120424 0.000338378642275895 -0.00011444101762877 0.000545921864403401 -0.000347623296019585 0.000579277369533323 0.000903010010985218
"6" 0.000142000488853305 0.000413855834525649 0.000136391073527857 0.000456856050000274 1.00403606606731e-05 -0.000129197913696971 -6.3338917516253e-05 -0.000381003949743225 -0.000386970879436 0.000500674085131981 0.000324209056961314 -0.000122510958460659 0.000637383672970853 -0.00035276433855981 0.000555791972332752 0.000724581707806435
"7" 0.000142164472178335 0.000410055846934089 0.000139168350945788 0.000456095594287479 1.31595137640684e-05 -0.000130306709198236 -6.25102319365448e-05 -0.000379472964189421 -0.000379331054553266 0.000455241469355372 0.000309025941012368 -0.000130213239937575 0.000724708144456237 -0.000362270083845662 0.000527086198084742 0.000554697805218436
"8" 0.000142303208298117 0.000405511686358988 0.00014283231254234 0.000454884856086096 1.68504799908721e-05 -0.000131796893121021 -6.11406873514189e-05 -0.000378331967820832 -0.000372321409801123 0.000403203129602192 0.000292985188957773 -0.000137547578902336 0.000806832071101669 -0.000376209911660006 0.000493326220576579 0.000394242797313251
"9" 0.000142384470522959 0.000400179841791172 0.000147378591765668 0.000453198960308027 2.11093754880621e-05 -0.000133682737649538 -5.92299375347584e-05 -0.000377616533563685 -0.000365927573648966 0.000344712042548506 0.000276244716544859 -0.000144508437008408 0.000882748720672338 -0.000394645611356843 0.000454742183084387 0.000243987781267098
"10" 0.000142385071359527 0.000394022531437305 0.000152799354583619 0.000451023303598244 2.5930010809849e-05 -0.000135981154129068 -5.67858183194233e-05 -0.000377358550482324 -0.000360146695607559 0.000279996447473153 0.000258976554810236 -0.000151085701458509 0.000951517135139042 -0.000417620223825514 0.000411605442924817 0.000104639090953466
"11" 0.000142280945846012 0.000387007224583472 0.000159076329886295 0.000448344194466923 3.12948200658499e-05 -0.000138703729231831 -5.38273579753107e-05 -0.000377574636035051 -0.000354974108922036 0.000209369439096508 0.000241349011074998 -0.000157261325720912 0.0010122615121324 -0.000445166140466222 0.000364246044037931 -2.32100027208071e-05
"12" 0.000142051742276816 0.000379111651256452 0.000166182917663273 0.000445146596737402 3.71803479556682e-05 -0.000141851362395911 -5.03695058213438e-05 -0.000378288900819613 -0.000350406810679041 0.000133198353226329 0.000223543800068898 -0.000163018926284307 0.00106419938634445 -0.000477296203240504 0.000313022435187537 -0.000139025780453594
"13" 0.000141681068203367 0.000370318504140519 0.000174087641340841 0.000441431571941765 4.35504030537701e-05 -0.000145425616314668 -4.64378623999612e-05 -0.000379507354887644 -0.000346440073304738 5.19301544130957e-05 0.000205733104274679 -0.000168328919778187 0.00110662735035943 -0.000514010541810686 0.000258352139866968 -0.000242381936856959
"14" 0.000141151493203 0.000360620778977319 0.000182755377406275 0.000437196922953088 5.03665789598693e-05 -0.000149421690496444 -4.2058755103802e-05 -0.000381232970407316 -0.000343078769786022 -3.39359929294335e-05 0.000188093148439437 -0.000173168584436 0.00113894015040504 -0.000555290594641426 0.000200685058328309 -0.000332906587799024
"15" 0.000140452654075044 0.000350016989891989 0.000192135664667647 0.000432443905536115 5.75798395399038e-05 -0.000153827883286013 -3.72659450293404e-05 -0.000383463962446297 -0.000340321129942662 -0.000123844908501866 0.000170802406767946 -0.000177503600330706 0.00116062832854405 -0.000601088271027436 0.00014049180415907 -0.000410289973892503
"16" 0.000139579831085069 0.000338516064207192 0.000202182287211694 0.000427183526530479 6.5134387501433e-05 -0.000158626495659957 -3.2097105491852e-05 -0.000386189563831304 -0.000338171620503483 -0.000217193713458013 0.000154028610863258 -0.000181300514601767 0.00117128224083793 -0.00065134945989224 7.82868270486896e-05 -0.000474311314768988
"17" 0.000138522221824913 0.000326131925947296 0.000212838998790753 0.000421428553424672 7.29646276323165e-05 -0.000163800494816502 -2.65946584528414e-05 -0.0003893928560918 -0.000336639525278884 -0.000313336747366047 0.000137934796091797 -0.000184525064480996 0.00117059612280442 -0.000705997146705986 1.460471416883e-05 -0.000524798086562652
"18" 0.000137282471509932 0.000312893770183734 0.000224039297549903 0.000415201624867967 8.10057139842094e-05 -0.000169322486234038 -2.07973233848088e-05 -0.000393053446010933 -0.000335735005559774 -0.000411601286992168 0.000122680892201329 -0.000187140728932553 0.00115836379184545 -0.000764926044101864 -5.0009011441288e-05 -0.000561614099107311
"19" 0.000135860903523741 0.0002988321416553 0.000235720664318931 0.000408519289296911 8.91803023190213e-05 -0.000175160274567832 -1.47562880948215e-05 -0.000397139456558354 -0.000335465243868236 -0.000511286193431761 0.000108417878242499 -0.000189111019267273 0.00113448765641169 -0.000828010090041443 -0.00011498096767599 -0.000584668235850178
"20" 0.000134261521400283 0.00028399362333726 0.00024781080911252 0.000401409428427535 9.74107063584881e-05 -0.000181280295327979 -8.51805300846708e-06 -0.000401616872505175 -0.000335845926241046 -0.000611667662308448 9.52827734382727e-05 -0.000190400959546185 0.00109896642941667 -0.000895101209922698 -0.000179737662223738 -0.000593918657986928
"21" 0.000132497599103644 0.000268424987738337 0.000260238625281887 0.000393907944301461 0.000105612948610937 -0.000187644990382684 -2.13266760541243e-06 -0.000406447230881072 -0.00033689431879904 -0.000712018663522481 8.34076830470098e-05 -0.000190979338945274 0.00105190388000074 -0.000966026160905564 -0.000243688436327523 -0.000589337957133439
"22" 0.000130575733248304 0.00025218857195948 0.000272924418075503 0.000386044765321778 0.000113698984256037 -0.000194208899916442 4.34829771466787e-06 -0.000411580011671601 -0.000338624180975635 -0.000811604936879348 7.29120942635989e-05 -0.000190815968015144 0.000993500250880503 -0.0010405877802259 -0.000306249745079877 -0.000570919967606325
"23" 0.000128512757485527 0.000235349074393116 0.00028579210923869 0.000377859014530992 0.000121581252181462 -0.000200925338188785 1.08684486062241e-05 -0.000416966573303983 -0.000341052862663371 -0.000909694316275795 6.38993677787795e-05 -0.000189878625141494 0.000924049992091869 -0.0011185614051418 -0.00036683831263208 -0.000538689282840016
"24" 0.000126326472561933 0.000217979396464647 0.000298758797466817 0.000369392996289366 0.000129169242202106 -0.000207742151681408 1.73820859189865e-05 -0.000422549767651456 -0.000344196782746208 -0.00100556565137417 5.64655754069675e-05 -0.000188147757341317 0.000843947028406623 -0.00119970083478912 -0.00042488192411871 -0.000492641127889943
"25" 0.000124038846223982 0.00020016279502309 0.000311743461862343 0.000360689423938627 0.000136371719435602 -0.000214610865022378 2.38348322399211e-05 -0.000428271262227166 -0.000348075260557272 -0.00109851969771912 5.06889125931707e-05 -0.000185603764627794 0.000753669897718245 -0.00128372852303994 -0.000479827630983786 -0.000432792089960548
"26" 0.000121669908184974 0.000181984417176975 0.000324667402198838 0.000351794406762362 0.000143098242559582 -0.000221472748754848 3.01747793127379e-05 -0.000434064487580743 -0.000352701156682022 -0.00118786712691451 4.66351083675441e-05 -0.000182233017245846 0.000653784769127178 -0.00137034696722964 -0.000531124054485645 -0.000359168115825963
"27" 0.000119245788733084 0.000163532256993778 0.000337446511334273 0.000342751593550824 0.000149258937583256 -0.000228272902922827 3.63537726931339e-05 -0.000439870950854892 -0.000358093633068713 -0.00127295159572465 4.4352240742221e-05 -0.000178028093971897 0.000544945389551983 -0.00145922791234429 -0.000578261217272249 -0.000271746369957689
"28" 0.000116790215344405 0.000144903891400682 0.000350000762068193 0.000333608422874235 0.000154769519770152 -0.000234955783074542 4.23205628116746e-05 -0.000445617515766045 -0.000364261012482916 -0.00135315056472864 4.38791464970847e-05 -0.000172991491872366 0.000427887018085217 -0.00155002519327862 -0.000620749453764374 -0.000170524250749174
"29" 0.000114333396918311 0.000126196956763522 0.000362251901595858 0.000324415585326267 0.000159543211799952 -0.000241460892634724 4.80332783431869e-05 -0.000451238187334619 -0.000371219228654715 -0.00142787476783237 4.5234277224465e-05 -0.000167123649475277 0.000303426219073432 -0.00164236796722168 -0.00065814867358662 -5.54554409168763e-05
"30" 0.000111900123004388 0.000107512157362638 0.000374123369148261 0.000315218563305879 0.000163508665878977 -0.000247733943544842 5.34453831404277e-05 -0.000456669853388981 -0.000378970987397673 -0.00149657440004999 4.84195766645505e-05 -0.000160439382196431 0.00017244967191399 -0.00173586316361487 -0.000690049867915989 7.3507770607122e-05
"31" 0.000109518157545486 8.89488685301534e-05 0.000385536346603383 0.00030606128173705 0.000166585326683559 -0.000253719695847435 5.85210837725586e-05 -0.000461839196015895 -0.000387521105801325 -0.00155874573240425 5.34241090350609e-05 -0.000152958847500472 3.59208940665859e-05 -0.0018301021645998 -0.00071609247938367 0.000216426520624462
"32" 0.000107215310469008 7.0608982379851e-05 0.00039641995478018 0.000296988379461919 0.0001687088610315 -0.000259366761535553 6.32182548925221e-05 -0.000466688525017352 -0.000396866153197812 -0.0016139304073162 6.02176384488499e-05 -0.000144708627935301 -0.000105124467640352 -0.00192466058277043 -0.000735967731956133 0.00037338155041105
"33" 0.0001050187667218 5.25931039542083e-05 0.000406710632798517 0.00028804253881226 0.000169820591351237 -0.000264625265801784 6.75010461439667e-05 -0.000471152439337268 -0.000407004273421616 -0.00166172091933757 6.87552123533444e-05 -0.000135725358359725 -0.000249586669369978 -0.00201909841553811 -0.000749436965961395 0.000544453056032188
"34" 0.000102950538466647 3.49991313223308e-05 0.000416336969675096 0.000279263123650156 0.000169862880673371 -0.000269452270232439 7.13409844148189e-05 -0.000475177340041133 -0.000417920107482298 -0.0017017593282985 7.89685751499821e-05 -0.000126045828771567 -0.000396306583782469 -0.0021129757053389 -0.000756304707018251 0.000729695413931249
"35" 0.000101031802617683 1.79197480206873e-05 0.000425246930771008 0.000270681880327519 0.00016879205520721 -0.000273809640043775 7.47103274531123e-05 -0.000478713291082256 -0.000429601472388895 -0.00173374381955875 9.07836101790026e-05 -0.000115726138423656 -0.000544059492837744 -0.00220583706302433 -0.000756462252434906 0.000929170401809171
"36" 9.92861028148007e-05 1.44848705464578e-06 0.000433377755122953 0.000262331952696949 0.000166573460476528 -0.000277661683313744 7.75848523836398e-05 -0.000481713972844777 -0.000442024839752383 -0.0017574268144576 0.000104096953802749 -0.00010481688195325 -0.000691575541630903 -0.00229723561070531 -0.000749864173574998 0.0011428712144854
"37" 9.77290771836947e-05 -1.43318646111156e-05 0.000440685395527919 0.000254245256221656 0.00016317430923167 -0.000280981765898796 7.99417601520123e-05 -0.00048413935963878 -0.000455166634868843 -0.00177261897704746 0.000118797000379409 -9.33808643992638e-05 -0.00083753984025617 -0.00238672254200915 -0.000736528900085213 0.00137072758325095
"38" 9.63749325202413e-05 -2.9337059547559e-05 0.000447122644142018 0.000246441175423894 0.000158579673829289 -0.000283747607473269 8.17700849362081e-05 -0.000485958878816935 -0.000468989934986166 -0.00177918701175849 0.000134751059137662 -8.14898993743092e-05 -0.000980595459507795 -0.00247386075699124 -0.000716569259822781 0.00161260790334202
"39" 9.52371822724424e-05 -4.34985371881168e-05 0.000452655646805449 0.000238943137368113 0.000152779592351636 -0.000285948126697472 8.3056326538274e-05 -0.000487152728457516 -0.000483459414509022 -0.00177705770833051 0.00015181048233154 -6.92135680459377e-05 -0.00111936583708806 -0.0025582261105534 -0.000690160102807081 0.00186822526271712
"40" 9.43225188895135e-05 -5.6746766919596e-05 0.000457249345626037 0.000231763845646607 0.000145773408595201 -0.000287577765929913 8.37924795401719e-05 -0.000487701394369374 -0.000498535089320439 -0.00176621856525413 0.000169813074416029 -5.66327837494959e-05 -0.00125245630054944 -0.00263940725887903 -0.000657565906371956 0.00213718760678185
"41" 9.36329151324343e-05 -6.90258695489765e-05 0.000460881085744554 0.000224915702050494 0.000137570165101044 -0.000288635624676455 8.39740871798369e-05 -0.000487599945078703 -0.000514163346543606 -0.00174670259046143 0.000188582675935966 -4.38295941773662e-05 -0.00137847384497547 -0.00271701877075067 -0.000619103137276138 0.0024188805481805
"42" 9.3174790559217e-05 -8.02832071210096e-05 0.000463536191666792 0.000218402363298314 0.000128191384377832 -0.000289131671980739 8.36034972819019e-05 -0.000486851510466489 -0.000530298895859237 -0.00171861736666483 0.000207925699951694 -3.08874606259451e-05 -0.00149603633239702 -0.00279069488834539 -0.00057518620509036 0.00271253631052408
"43" 9.29462186305375e-05 -9.04766837085618e-05 0.000465200428833011 0.000212232179859968 0.000117662337328694 -0.000289082809876252 8.26867436225959e-05 -0.000485462277964212 -0.000546877953154682 -0.00168211648259968 0.000227642617610636 -1.78946283790409e-05 -0.00160379437892735 -0.00286010182487434 -0.000526276135985036 0.00301710348893434
"44" 9.29419675471576e-05 -9.95715110915073e-05 0.000465871693432894 0.000206400748846992 0.000106025466022066 -0.000288513318397704 8.12297295056455e-05 -0.000483451887778126 -0.000563845590894791 -0.00163740865825078 0.000247519533899156 -4.93868601954529e-06 -0.00170044762073108 -0.00292493154127643 -0.000472910668326505 0.00333131252638126
"45" 9.31550867683221e-05 -0.000107546461571702 0.000465552586885694 0.000200901219323875 9.33228988794146e-05 -0.000287451850860722 7.92505427499381e-05 -0.000480842853289602 -0.000581137395155326 -0.00158476200792749 0.000267339679642334 7.8885682634659e-06 -0.00178476518517739 -0.00298490991850603 -0.000415678932416474 0.00365360082873189
"46" 9.35758518988262e-05 -0.00011437955898513 0.000464259590628255 0.000195729879895048 7.96115041422559e-05 -0.000285933161645685 7.67667127803614e-05 -0.000477666726194053 -0.000598685082974241 -0.00152448899102244 0.000286878680649744 2.05059605160645e-05 -0.00185560548386585 -0.00303980121249916 -0.000355215870486605 0.00398212310562006
"47" 9.41968475579277e-05 -0.000120067233398073 0.000462005998397597 0.000190873185199183 6.49567190239565e-05 -0.000284000832501867 7.37976173938555e-05 -0.000473962754551837 -0.00061641715081561 -0.00145695838905459 0.000305904458241115 3.28237759335445e-05 -0.00191194003129602 -0.0030893948399968 -0.000292203764418844 0.0043147599864376
"48" 9.50046321400608e-05 -0.000124608894231159 0.000458816635471836 0.000186315505097436 4.94252757035871e-05 -0.000281697753461391 7.03721813047737e-05 -0.000469769471956063 -0.000634267164202444 -0.0013825795111355 0.000324195139180151 4.47623408481952e-05 -0.00195286546558882 -0.00313352429740075 -0.00022734954149819 0.00464912569826211
"49" 9.59885440118081e-05 -0.000128009060343279 0.000454727266541341 0.000182045701341094 3.30976353268208e-05 -0.000279074829192633 6.6515611610195e-05 -0.000465134259049752 -0.000652157580301697 -0.00130181307896946 0.000341524327115584 5.62444841814694e-05 -0.00197763107027052 -0.00317205932645398 -0.000161386402840008 0.00498259422417878
"50" 9.71301153309812e-05 -0.000130287524484744 0.000449774891251875 0.000178043640770448 1.60540778953878e-05 -0.000276186660426927 6.22653226348555e-05 -0.000460109067120893 -0.000670014405775086 -0.00121515367534003 0.000357675940381832 6.71958617491844e-05 -0.0019856499037016 -0.00320489683766215 -9.50623442901828e-05 0.00531234948064994
"51" 9.84224401078512e-05 -0.000131464861782633 0.000444004099785784 0.000174292073365774 -1.61129021185473e-06 -0.000273079936952272 5.76528718449818e-05 -0.000454741886897951 -0.000687761967878477 -0.00112313739192778 0.000372436052235554 7.75498031550778e-05 -0.00197651684473053 -0.0032319790809107 -2.9122834297269e-05 0.00563542180487365
"52" 9.98452729839326e-05 -0.000131568312507614 0.000437465089403489 0.000170767744822333 -1.98065222784468e-05 -0.000269815688763632 5.27223504526046e-05 -0.000449087197429096 -0.000705325927772458 -0.00102633898547064 0.000385612225724584 8.72477749164373e-05 -0.00195002015570089 -0.00325326924177997 3.56851256629353e-05 0.00594880321847452
"53" 0.000101390496483428 -0.000130634679381848 0.000430210411587749 0.00016745415748404 -3.84329912660567e-05 -0.000266446296933707 4.75094149055853e-05 -0.000443198651800017 -0.000722631124975272 -0.000925353803650628 0.000397017160851343 9.62362955639397e-05 -0.0019061422098781 -0.00326877470610911 9.86372588910145e-05 0.00624944661318061
"54" 0.000103041509568068 -0.000128704850186487 0.000422304385700215 0.000164333132495457 -5.7393944764885e-05 -0.000263026045553026 4.20598440088938e-05 -0.000437131277166874 -0.000739599903644781 -0.000820813345334048 0.000406486523953366 0.000104474298243054 -0.00184507802994597 -0.00327852955898384 0.000159038068975789 0.00653442944938855
"55" 0.000104790391158407 -0.000125824145789803 0.000413807189902092 0.000161378404381227 -7.65804480630423e-05 -0.000259609019645912 3.64197455999798e-05 -0.000430933488316214 -0.000756161068501632 -0.000713364414029515 0.000413874443755268 0.000111926910531207 -0.0017672245510643 -0.00328259128143601 0.000216219037912909 0.00680099690792415
"56" 0.00010662480673703 -0.000122043218389466 0.000404789564554726 0.000158578586509343 -9.5892234349938e-05 -0.000256242800109963 3.06358485906596e-05 -0.000424660295820769 -0.000772237833804293 -0.000603673446454295 0.000419054570371373 0.000118564159995091 -0.00167318221229134 -0.00328105209077126 0.000269561879924247 0.00704664365551162
"57" 0.000108536993514367 -0.00011741572349009 0.000395318941793322 0.000155907958955096 -0.000115221100998618 -0.000252978765957261 2.47505742716391e-05 -0.000418354075630474 -0.000787766819674638 -0.000492424541809157 0.000421926954037106 0.000124371670466087 -0.00156374236173688 -0.00327402659708008 0.000318491274918372 0.00726920582386457
"58" 0.000110518411790122 -0.000111996874856807 0.000385469733768896 0.000153354095832766 -0.00013446209962811 -0.000249857848501659 1.88148675678545e-05 -0.000412063510720674 -0.000802673936402219 -0.000380303393210065 0.000422415778525129 0.000129345005157709 -0.00143988283077399 -0.00326165035104526 0.00036248609666395 0.00746691182154463
"59" 0.000112558842192704 -0.000105849451275823 0.000375316610660894 0.000150902273171591 -0.000153510623365603 -0.00024692099953474 1.2875760153095e-05 -0.000405828347531151 -0.000816895335406677 -0.000267999116754973 0.000420469908756068 0.000133480539546889 -0.00130274829142047 -0.00324408439786298 0.000401097025001236 0.00763841820362228
"60" 0.000114659442082359 -9.90319732599866e-05 0.000364934986966428 0.000148536735759722 -0.000172268328903661 -0.00024420234971493 6.98172680211752e-06 -0.000399688024591916 -0.000830369638831373 -0.000156198398371787 0.000416063755739758 0.000136791378692785 -0.00115364150959504 -0.00322150347396301 0.000433931459113189 0.00778285011982064
"61" 0.000116808155140978 -9.16130329001317e-05 0.000354400899875717 0.000146243057861912 -0.000190635142489587 -0.000241734311042013 1.17331459735438e-06 -0.000393672282462547 -0.000843034789923377 -4.55784176292411e-05 0.000409206145674354 0.000139299627841996 -0.000993992345512415 -0.0031941061750706 0.000460669138938412 0.00789980889656037
"62" 0.000119008433998799 -8.36524779045503e-05 0.00034378492587214 0.000144012296361957 -0.000208514109149133 -0.00023954213555624 -4.50161446203907e-06 -0.000387814011842564 -0.000854840585753312 6.31902744480782e-05 0.000399924117521487 0.000141030362107136 -0.000825345671400078 -0.00316210167259661 0.000481058179875699 0.00798935497169037
"63" 0.000121252739693712 -7.52185169132577e-05 0.000333166842419334 0.000141836185748639 -0.000225813067588869 -0.000237645590937689 -1.00028939976312e-05 -0.000382139020440379 -0.000865728435374849 0.00016946897256961 0.000388276087454065 0.000142021626330722 -0.000649340251416596 -0.00312571350596271 0.00049492151044568 0.00805197329079727
"64" 0.000123539133913662 -6.63775064270324e-05 0.000322616092043431 0.000139707780546354 -0.000242451163815671 -0.000236061594054509 -1.52911845970224e-05 -0.000376664974447987 -0.000875650761756267 0.000272639132258549 0.000374343978014236 0.000142318236842264 -0.00046767374488158 -0.00308517552474824 0.000502154253502641 0.00808852616366546
"65" 0.000125867497182035 -5.71958500663798e-05 0.000312198088638583 0.000137617851444707 -0.000258343323477081 -0.000234798917451324 -2.03333245332401e-05 -0.000371409803196653 -0.00088456323305003 0.000372113645309788 0.000358240799549767 0.000141967674361945 -0.000282094225162976 -0.00304073153455933 0.00050272529856821 0.00810022160393627
"66" 0.000128233687475218 -4.77366383805049e-05 0.000301983894971656 0.000135569426127786 -0.000273415784725841 -0.000233863322324999 -2.50931672456911e-05 -0.000366386976683368 -0.000892424157281945 0.00046734162334627 0.000340093563777231 0.00014103015107129 -9.43741109418359e-05 -0.00299263727020738 0.000496675296260439 0.00808851635141678
"67" 0.000130638050459318 -3.80654558003869e-05 0.000292032263210227 0.000133553375059467 -0.000287602677060724 -0.000233254947832141 -2.9540594823399e-05 -0.000361604670079288 -0.00089919514778609 0.00055782310776744 0.000320058236455946 0.000139566919172837 9.37127243307283e-05 -0.00294114600383318 0.000484106919801016 0.00805509335818491
"68" 0.00013307740337692 -2.82499232353803e-05 0.000282397892921784 0.000131571368695872 -0.000300841767872968 -0.000232969140824803 -3.36577838631665e-05 -0.000357065075452506 -0.000904843821768737 0.000643092748019597 0.00029831148126356 0.000137643747968779 0.000280414976427389 -0.00288652098493477 0.000465199431219478 0.00800174282858411
"69" 0.000135548934347278 -1.83479699027178e-05 0.000273132832583359 0.000129623791560294 -0.000313081619589228 -0.000232996120077877 -3.74183891979995e-05 -0.000352770789253568 -0.000909333558237611 0.000722752184145208 0.000275039519648104 0.000135333221819266 0.000464007268626802 -0.00282902306264333 0.00044018982235658 0.0079303325755829
"70" 0.000138045169060236 -8.42076091240107e-06 0.000264286202360674 0.000127712942032497 -0.000324277182551502 -0.000233321876481233 -4.08113043947731e-05 -0.000348720843443412 -0.00091264064716427 0.000796449728257122 0.000250456777505965 0.000132709726451061 0.000642820484343034 -0.00276891597946659 0.000409370094476685 0.00784275228475981
"71" 0.000140562738628972 1.46879064832822e-06 0.000255892726149387 0.000125838863424674 -0.000334388826193321 -0.000233928655786 -4.38224301726787e-05 -0.000344908496338712 -0.000914738341052989 0.000863894494151249 0.000224780789045716 0.000129846885586854 0.000815253959873526 -0.0027064546991824 0.000373090549712905 0.0077408520445125
"72" 0.000143090331532617 1.12696747126399e-05 0.000247986776774468 0.000124003315715702 -0.000343388586553914 -0.000234795907492149 -4.6452077857852e-05 -0.00034132645020868 -0.000915599896766002 0.000924862271683238 0.000198243635280844 0.0001268240813935 0.0009797802135788 -0.0026419065985144 0.000331750932658402 0.00762636958820911
"73" 0.000145624799315727 2.09234662097767e-05 0.000240596240158635 0.000122213348709267 -0.000351254298457466 -0.000235896481031755 -4.86978872602179e-05 -0.000337964405781037 -0.000915211729215353 0.000979186518229003 0.000171089625119329 0.000123715494750059 0.00113497102530243 -0.00257551312816276 0.000285787918932634 0.00750097520059194
"74" 0.000148154112362747 3.0380960144118e-05 0.000233737580430419 0.000120469975128705 -0.000357973201880246 -0.000237203782234086 -5.0561892512413e-05 -0.000334807939657451 -0.000913550947632082 0.00102677099199207 0.000143560255715258 0.000120597431275158 0.00127949131586288 -0.00250753043962563 0.000235681551764593 0.00736614173539679
"75" 0.00015066224679938 3.95929726304467e-05 0.000227423339798389 0.000118779473736124 -0.000363538197058802 -0.000238687168755959 -5.20597779846477e-05 -0.00033184189501675 -0.00091060712375001 0.00106757875732643 0.000115905733919377 0.000117543842946708 0.00141212424056609 -0.00243819238397152 0.00018193862110915 0.0072232160218384
"76" 0.000153138572795316 4.85121613021666e-05 0.00022165623095638 0.000117143397281342 -0.000367951724041227 -0.000240313298358643 -5.31986668161784e-05 -0.000329051426349961 -0.0009063662833664 0.00110164457638882 8.83758876458884e-05 0.000114622923916895 0.00153176384305438 -0.00236773245927189 0.000125092388971087 0.00707335860453677
"77" 0.000155565151138071 5.70955594589636e-05 0.0002164388881463 0.000115566193980582 -0.000371225114723881 -0.000242046628941254 -5.40058660646468e-05 -0.000326414860502283 -0.000900821639785465 0.00112905425177208 6.12171099107425e-05 0.00011190361682863 0.00163742802584874 -0.00229637001847949 6.56957945371417e-05 0.00691756294879343
"78" 0.000157922912474403 6.53067634427684e-05 0.000211755343646221 0.000114054118326413 -0.000373371539499181 -0.000243850215679634 -5.4497876907753e-05 -0.000323915006933526 -0.000893961407987113 0.00114996531315219 3.4666881723087e-05 0.000109445635103027 0.00172826063108037 -0.0022243257847292 4.31931464401119e-06 0.00675662511279893
"79" 0.000160192419283469 7.31063973651939e-05 0.000207598349449787 0.000112609338356083 -0.000374421428109052 -0.000245684472647459 -5.47045179463153e-05 -0.000321526484076483 -0.000885789273829014 0.0011645847938492 8.95776675100184e-06 0.00010730505207792 0.00180353594610023 -0.00215179977106678 -5.8471115065762e-05 0.00659119639056949
"80" 0.000162355161632748 8.04630338833964e-05 0.000203939722485021 0.000111235994957296 -0.000374396628967469 -0.000247508373401532 -5.46549339190912e-05 -0.000319226919243602 -0.000876302867329083 0.00117317387492106 -1.56879609682664e-05 0.000105533826184709 0.0018626549216805 -0.00207898702542967 -0.000122100824534494 0.00642177727120212
"81" 0.000164386311212444 8.73489929379504e-05 0.000200758070243117 0.000109937026236311 -0.000373339111472436 -0.000249286970809717 -5.43810614985353e-05 -0.000316992921937821 -0.00086550759129601 0.00117604059853905 -3.90615143487325e-05 0.000104169483679592 0.0019051550702162 -0.00200607606937861 -0.000186010436627839 0.00624872914372748
"82" 0.000166265287624198 9.37410157775043e-05 0.00019801671906457 0.000108716304971404 -0.000371288565786329 -0.000250972309862232 -5.39185897148514e-05 -0.000314801608704096 -0.000853414474536047 0.00117353721170039 -6.09728925582753e-05 0.00010325188540649 0.00193070808438067 -0.00193324627695592 -0.000249640246623819 0.00607228863182232
"83" 0.000167967909825862 9.96140323639082e-05 0.000195680106662606 0.000107573534091542 -0.000368292059641694 -0.000252526465190768 -5.32996936406999e-05 -0.000312621162446374 -0.00084003430211045 0.00116605616707106 -8.1249156466394e-05 0.000102804759692479 0.00193911288007107 -0.00186066170461157 -0.000312462480788715 0.00589260508780062
"84" 0.000169471523046811 0.000104953385705067 0.000193708385240916 0.000106515188480193 -0.000364404328777334 -0.000253909465298513 -5.2566410700071e-05 -0.000310430595754513 -0.000825392606279034 0.00115401583466877 -9.9736802687682e-05 0.000102848643772746 0.00193030651765588 -0.00178849020998532 -0.000373963775583731 0.00570974467971286
"85" 0.00017074959582687 0.000109746119511035 0.000192057781743446 0.000105542761211768 -0.000359679984248169 -0.000255080560890028 -5.17523001292846e-05 -0.000308200755849549 -0.000809507456216661 0.00113786585023345 -0.000116300007674926 0.000103392889037127 0.00190435857332929 -0.00171688518695623 -0.000433665413536407 0.00552373078045293
"86" 0.000171781590275613 0.000113980595291027 0.000190677781826856 0.000104654550477211 -0.000354179970961949 -0.000256001499090761 -5.0894188748442e-05 -0.000305902967293282 -0.000792414392285299 0.0011180723049607 -0.000130832826444777 0.00010444075630708 0.00186146416165196 -0.00164598870435576 -0.000491119133975094 0.0053345559734901
"87" 0.000172543968583844 0.000117651400829832 0.000189525395455218 0.000103853046704508 -0.000347964464095656 -0.000256630150470293 -5.00287485651216e-05 -0.000303515259669488 -0.000774150830008978 0.00109511654015298 -0.000143249428975702 0.00010598584363785 0.00180194570250925 -0.00157594781459015 -0.000545919108815577 0.00514218797415569
"88" 0.000173017319173546 0.000120760094105301 0.000188548445702127 0.00010313752916862 -0.000341101637848828 -0.000256935953463786 -4.9190710153372e-05 -0.000301008358938761 -0.000754762839141879 0.00106949121034365 -0.000153492395514662 0.000108012509840496 0.00172626258421774 -0.00150689657843738 -0.000597698787605736 0.00494662473430818
"89" 0.000173184317846877 0.000123302488352367 0.000187694624237918 0.000102506627679571 -0.000333658168570911 -0.000256881860313693 -4.84137132940358e-05 -0.000298357698847621 -0.000734297333247254 0.00104168448826307 -0.000161523316742437 0.000110502411042262 0.00163499137054418 -0.00143895998983602 -0.000646140074966034 0.00474790552298957
"90" 0.000173022791668612 0.000125287328821245 0.000186914627734584 0.000101962936851436 -0.000325700972525654 -0.000256438793663848 -4.77243630077375e-05 -0.000295536892622823 -0.000712812602172472 0.00101218664437268 -0.000167334434850558 0.000113425127965464 0.00152883505947619 -0.00137226655095225 -0.000690971507936466 0.0045460992428074
"91" 0.000172524272268104 0.000126722421441756 0.000186159143090865 0.000101501087465929 -0.000317298454283579 -0.000255577427992384 -4.71562468081178e-05 -0.000292527672618116 -0.000690373827473261 0.000981477228978275 -0.000170941931188014 0.000116745209000934 0.00140862402303094 -0.00130692735394369 -0.000731974223419821 0.00434135072961824
"92" 0.000171668405748678 0.00012761754218855 0.000185376025112688 0.000101116449914313 -0.000308517767309856 -0.000254269973013342 -4.67291374075866e-05 -0.000289304350196159 -0.000667052278737471 0.000950026094588691 -0.000172386049046706 0.000120424061937242 0.00127530473094771 -0.00124305871070999 -0.000768978202775532 0.00413386890779502
"93" 0.000170451685858953 0.000127990306988478 0.000184518790848734 0.000100809308947779 -0.000299428611212666 -0.000252497208600106 -4.64654115661872e-05 -0.000285849813546003 -0.000642927600580719 0.000918282732792017 -0.000171730335148905 0.000124416705010792 0.0011299452876789 -0.00118076338941072 -0.000801868898639235 0.00392393678782326
"94" 0.000168867093100826 0.00012785585036714 0.000183544536569554 0.000100577820225206 -0.000290093974821834 -0.000250240073851747 -4.63822390495192e-05 -0.000282144455198533 -0.000618076241354462 0.00088667713253953 -0.000169057141164837 0.000128672149307276 0.000973726500800334 -0.00112013392448991 -0.000830578501163723 0.00371192326545922
"95" 0.000166907477879035 0.000127234408232435 0.000182409578427879 0.000100410906970146 -0.000280576367868007 -0.000247482237213193 -4.64945848799459e-05 -0.000278173518390572 -0.000592592372404027 0.000855613877417537 -0.000164473293652923 0.000133138170272563 0.000807945632944058 -0.00106126327289401 -0.000855091860186418 0.00349826664062006
"96" 0.00016457463351172 0.000126153111353039 0.000181077268699354 0.000100311673990176 -0.000270933951438413 -0.000244211835788737 -4.68101963546132e-05 -0.000273924517546116 -0.000566567048169898 0.000825469991235562 -0.000158099030086072 0.000137762403242171 0.000634003158182715 -0.00100422959748248 -0.000875442446564765 0.00328346837458301
"97" 0.000161872051989151 0.000124633889613201 0.000179509426272973 0.000100268646471784 -0.00026122209855052 -0.000240420316236044 -4.73365995355428e-05 -0.0002693873367493 -0.000540093689348801 0.000796595168993879 -0.000150070929268468 0.0001424866246504 0.000453405396143097 -0.000949100979358776 -0.00089171105976485 0.00306811109858481
"98" 0.000158802823851307 0.000122708793251897 0.0001776766789942 0.000100280427723435 -0.00025149348084264 -0.000236106602882497 -4.8073414630165e-05 -0.000264552339942218 -0.000513274825608267 0.000769299296070193 -0.00014053951727231 0.00014725721762631 0.000267750335349257 -0.000895934072003863 -0.000904017826042913 0.00285281594661839
"99" 0.0001553791354102 0.000120405362652684 0.000175555718306166 0.000100344474931785 -0.000241789566599751 -0.000231269583975885 -4.90199921865003e-05 -0.000259415193126073 -0.000486208489368917 0.000743867656078738 -0.000129660002973855 0.000152016111540596 7.87249293563144e-05 -0.000844772557569445 -0.000912522982305918 0.00263824540536407
"100" 0.000151610918682043 0.00011775978374985 0.00017312040143137 0.000100448877937919 -0.000232153274076692 -0.000225912633485082 -5.01672435174623e-05 -0.000253973246628536 -0.000459001354199835 0.000720541434624566 -0.000117605234789157 0.000156713033457022 -0.000111912742331932 -0.000795654138717627 -0.000917422122665755 0.00242507801572522
"101" 0.000147516011545464 0.000114803909299364 0.000170358469155491 0.000100598240147278 -0.000222617443760048 -0.000220039326780144 -5.15090487424046e-05 -0.000248226957149704 -0.000431754288355554 0.000699531628885037 -0.000104540502470314 0.000161292523807774 -0.00030234284009533 -0.000748593586543491 -0.000918941636759435 0.00221401835448111
"102" 0.000143108271658071 0.000111578566576546 0.000167256857031623 0.000100783257430627 -0.000213209046532301 -0.000213664421416628 -5.30263279438837e-05 -0.000242179313891555 -0.000404568851798162 0.000681013166489289 -9.0641883254455e-05 0.000165706869135616 -0.000490699744156961 -0.000703602409418674 -0.000917332349463218 0.00200574391542818
"103" 0.000138413556404486 0.000108120962824141 0.000163807807218424 0.000101007597656726 -0.000203952265301205 -0.000206800297401796 -5.47075667152401e-05 -0.000235833898232108 -0.000377548217341238 0.000665122856750686 -7.60813596110524e-05 0.000169912526881894 -0.000675089329078552 -0.000660669743782789 -0.000912872139742357 0.00180094174776945
"104" 0.000133453506209548 0.000104472196458224 0.000160012634878733 0.000101264425881123 -0.000194856124872935 -0.000199459126729182 -5.65299741380239e-05 -0.000229201851905157 -0.000350791646699458 0.000651960163565638 -6.10258322044979e-05 0.000173865971911239 -0.000853617369444609 -0.000619779830171755 -0.000905849038822693 0.00160024648728874
"105" 0.000128249293405978 0.000100673028199443 0.000155879074946907 0.000101561433289824 -0.00018593207113809 -0.000191663081711929 -5.8470542098744e-05 -0.00022229305038917 -0.000324391865313079 0.000641594234728514 -4.56423768064265e-05 0.000177535138956695 -0.00102440679298695 -0.000580894836501287 -0.000896562453588451 0.00140427267871416
"106" 0.000122834937168629 9.67684431563151e-05 0.000151413308997955 0.000101895874247249 -0.000177183711658097 -0.000183433737232535 -6.05034806952383e-05 -0.000215117897786671 -0.000298445361830063 0.00063405496533172 -3.00882454229994e-05 0.000180889603590235 -0.00118562564580286 -0.00054398344337157 -0.000885330403295935 0.00121356781296449
"107" 0.000117237808773911 9.28027977447465e-05 0.000146634790221299 0.000102274606724412 -0.000168604940130965 -0.000174792615362366 -6.26040338961678e-05 -0.000207691413537706 -0.000273038056307722 0.000629344961981376 -1.45117631674322e-05 0.000183905491898391 -0.00133552015623409 -0.000508982596521654 -0.000872458181786214 0.0010286604255229
"108" 0.000111491700661706 8.88186987683606e-05 0.000141560495066136 0.000102705478839121 -0.000160188449157921 -0.000165765693939831 -6.47383561272153e-05 -0.000200032841077278 -0.000248254856537675 0.000627432829827742 9.44119368166326e-07 0.000186567019912799 -0.00147243253856458 -0.000475838832817607 -0.000858270390517279 0.000849994999866267
"109" 0.000105628799810928 8.4862764738261e-05 0.000136215578072496 0.000103191098064538 -0.000151916963368966 -0.000156379237406897 -6.68807739379483e-05 -0.000192156735068321 -0.000224174842328804 0.000628258247759228 1.61531515577397e-05 0.000188866040601631 -0.00159484404022266 -0.000444478738762651 -0.000843069943372674 0.000677990223810974
"110" 9.96830638788284e-05 8.09817895802442e-05 0.00013063259007426 0.000103749532577419 -0.000143774758535436 -0.000146662889738806 -6.89935757964582e-05 -0.000184088771344219 -0.000200872849410529 0.00063173548971845 3.09966133154937e-05 0.000190800133903882 -0.00170139790174061 -0.000414834194832837 -0.000827165411972272 0.00051299001066204
"111" 9.36930687225676e-05 7.72189652000041e-05 0.00012484291528996 0.000104390960385219 -0.000135736800852122 -0.000136644232959894 -7.10483878775507e-05 -0.000175844414190286 -0.000178414657195555 0.000637753647238505 4.53655897216527e-05 0.000192377349863994 -0.00179092992532545 -0.000386829230009713 -0.000810838640047371 0.00035528802043922
"112" 8.76984504565395e-05 7.36218536588682e-05 0.000118886780907526 0.000105128912251102 -0.000127776223545923 -0.000126351214004616 -7.30119220580582e-05 -0.000167449015377194 -0.00015686373233668 0.000646185247629521 5.91673884026309e-05 0.000193609378516642 -0.00186248377552965 -0.000360385730135068 -0.000794382953209127 0.000205135628829218
"113" 8.17384441064736e-05 7.02299967814309e-05 0.000112800573938657 0.000105978566582877 -0.00011986745218561 -0.000115818048665353 -7.48517215906809e-05 -0.000158927319240521 -0.000136279438434757 0.000656871143717312 7.2321604536498e-05 0.000194520639753248 -0.00191534672504188 -0.00033542418415236 -0.000778048878272849 6.27296877816757e-05
"114" 7.58480728729412e-05 6.70908484969745e-05 0.000106632934875579 0.000106964071121102 -0.000111977772191604 -0.000105073344240245 -7.65317884118232e-05 -0.000150297892901559 -0.000116712233600682 0.000669645898202556 8.47564148604316e-05 0.000195138857590328 -0.00194904849070173 -0.000311872385126047 -0.000762088313629875 -7.17875834371198e-05
"115" 7.00764611266944e-05 6.42429781433314e-05 0.000100426177451776 0.000108099327780551 -0.000104072123484189 -9.4146737625318e-05 -7.80229807744929e-05 -0.000141591307343018 -9.82030392645896e-05 0.000684328440906852 9.64160826054987e-05 0.00019550357105293 -0.00196337992786934 -0.000289658259982166 -0.000746726339354676 -0.000198313955560126
"116" 6.44576122440763e-05 6.17298085858837e-05 9.42306021939546e-05 0.000109412994208611 -9.61221224031929e-05 -8.30678277318132e-05 -7.92945560404276e-05 -0.000132825751137631 -8.079786563371e-05 0.000700718184908965 0.000107252722127786 0.000195656443463029 -0.00195839478790774 -0.000268711893195948 -0.000732167179949395 -0.000316790750379861
"117" 5.90386860872653e-05 5.95836451441989e-05 8.80931459601053e-05 0.000110925034330247 -8.80968356361627e-05 -7.18684368069312e-05 -8.03122961069718e-05 -0.000124030541335656 -6.4522807180073e-05 0.000718610240995296 0.000117230760710273 0.000195649745863294 -0.00193440220226133 -0.000248971146783667 -0.000718592761307214 -0.000427197646851643
"118" 5.38580352965006e-05 5.78438521459185e-05 8.20621573076212e-05 0.000112655901889192 -7.99584350736784e-05 -6.0574227224932e-05 -8.10543694908087e-05 -0.000115227585791245 -4.94119415703293e-05 0.000737796220698459 0.000126325468641575 0.000195539792785034 -0.00189195927031526 -0.000230381662960722 -0.00070616194451738 -0.000529558201841722
"119" 4.89636657848892e-05 5.65405005196228e-05 7.61902612964471e-05 0.000114635908029984 -7.16840947849631e-05 -4.92144691966198e-05 -8.14890782737272e-05 -0.000106437955192979 -3.54802322784166e-05 0.000758055167796484 0.000134520311977182 0.000195391954414693 -0.00183185860534618 -0.000212894790666982 -0.000695013523494688 -0.000623950906339589
"120" 4.43934505298627e-05 5.5703217272233e-05 7.05256377506083e-05 0.00011688562648735 -6.32410770499754e-05 -3.78165740699163e-05 -8.159469750753e-05 -9.76858250667852e-05 -2.27486578655227e-05 0.000779163783395123 0.000141807313773313 0.000195269521769823 -0.00175509800867882 -0.000196468691521099 -0.000685260933286152 -0.000710463820913468
"121" 4.01946959179434e-05 5.53579433269569e-05 6.51169399885769e-05 0.000119431194697065 -5.46050735732356e-05 -2.64018862929766e-05 -8.13462850177022e-05 -8.89930503745104e-05 -1.12287081714795e-05 0.0008009056997951 0.000148188383725171 0.000195248154945563 -0.00166286607414683 -0.000181073709562517 -0.000676993472238477 -0.000789261123404467
"122" 3.64017318826487e-05 5.55252204590523e-05 6.00121093025504e-05 0.000122297757125626 -4.57530508340993e-05 -1.49986599888251e-05 -8.07231732170457e-05 -8.03813269197989e-05 -9.17533843152087e-07 0.000823057783389778 0.0001536686848318 0.000195399613894415 -0.00155650927313021 -0.000166685277361796 -0.000670274983634929 -0.000860515279571938
"123" 3.30605898556277e-05 5.62258772972062e-05 5.52534882461729e-05 0.000125505036461105 -3.66658796973242e-05 -3.62898934800129e-06 -7.97106626951377e-05 -7.18645158961095e-05 8.17795212876939e-06 0.000845402108347685 0.0001582628912341 0.000195803462626518 -0.00143750664881616 -0.000153283555255283 -0.000665159333650931 -0.000924456139105997
"124" 3.02100272797999e-05 5.74715340481342e-05 5.08844141898259e-05 0.000129078797812765 -2.73286462574149e-05 7.68888562795229e-06 -7.82921473202692e-05 -6.34654162325801e-05 1.60695574074891e-05 0.000867726717123941 0.000161987204691439 0.000196537585442495 -0.00130743581150817 -0.000140863215120993 -0.000661668776697705 -0.000981355374413964
"125" 2.7885759114853e-05 5.92713058051301e-05 4.69478220611489e-05 0.000133034560284556 -1.77300223742139e-05 1.89331718322061e-05 -7.64517463760392e-05 -5.51980115498527e-05 2.27662917190224e-05 0.000889820033431569 0.000164865599067421 0.000197681708894158 -0.00116795415590448 -0.000129426549490253 -0.000659802947135733 -0.00103152196959207
"126" 2.61252072675473e-05 6.16303739848318e-05 4.34749826972832e-05 0.000137393569319911 -7.85942101034635e-06 3.00884546858582e-05 -7.41819141690952e-05 -4.70763115873728e-05 2.82892753788504e-05 0.000911484108800717 0.000166924519979077 0.000199314597715675 -0.00102075453952515 -0.000118970270451397 -0.000659549411671418 -0.0010752944183406
"127" 2.49601654909346e-05 6.45508446144923e-05 4.05050030346309e-05 0.000142168231411113 2.28512109811634e-06 4.11378442016789e-05 -7.14733207147769e-05 -3.91107153562519e-05 3.2659343895685e-05 0.000932528580488397 0.00016818941255069 0.000201511251219224 -0.000867555391314003 -0.000109512130035755 -0.000660877043078972 -0.00111307657621185
"128" 2.44294403981813e-05 6.8024964766603e-05 3.80630432249007e-05 0.000147375943886186 1.27069445328183e-05 5.20676704292093e-05 -6.8323642298372e-05 -3.13175313539483e-05 3.59036833925896e-05 0.00095276542953272 0.000168695427496546 0.000204346990147578 -0.000710069027094626 -0.000101064899213355 -0.000663743267537882 -0.00114528633794335
"129" 2.45545680839894e-05 7.20457411191037e-05 3.6174312962994e-05 0.000153022055486547 2.33999240971168e-05 6.28650515748098e-05 -6.47296067723798e-05 -2.36995205922044e-05 3.80605984090848e-05 0.000972027659039845 0.000168471431492317 0.000207893375512529 -0.000549984906643554 -9.36468329314196e-05 -0.000668080028320034 -0.00117238981725406
"130" 2.53685606513546e-05 7.6595347088608e-05 3.48583469394474e-05 0.000159116298368011 3.43553467513093e-05 7.35199366101428e-05 -6.06876792236964e-05 -1.62631845217645e-05 3.9169168078903e-05 0.000990151496294318 0.000167551303247047 0.000212213476342162 -0.000388949833700695 -8.72793513421663e-05 -0.000673817525004774 -0.00119489868887544
"131" 2.68895425060321e-05 8.1659067935684e-05 3.41342291875982e-05 0.000165661048698684 4.55681090114013e-05 8.40245717553776e-05 -5.62029054322901e-05 -9.01703038089081e-06 3.92711362786018e-05 0.00100698918951091 0.000165967239438831 0.000217369138102274 -0.000228559810763943 -8.19829235962697e-05 -0.000680872181032033 -0.00121333532411356
"132" 2.91421658786578e-05 8.72122698895285e-05 3.40099679690062e-05 0.000172656695672529 5.7019355779128e-05 9.43725766854473e-05 -5.12807504144308e-05 -1.9588064079294e-06 3.84196935409371e-05 0.00102240296654553 0.000163752110088982 0.000223411308687244 -7.03402587889057e-05 -7.77799231728848e-05 -0.000689148438435711 -0.00122828334532844
"133" 3.21395239610845e-05 9.322672715485e-05 3.44934396072385e-05 0.000180098305123089 6.86942123306385e-05 0.000104556837208805 -4.59283946496289e-05 4.90814687936921e-06 3.66689649310089e-05 0.00103626839745341 0.000160938982430051 0.000230384751993815 8.42608537407766e-05 -7.46869502131622e-05 -0.00069854988667645 -0.00124031986581247
"134" 3.5895592355721e-05 9.96675407159639e-05 3.55841173201653e-05 0.000187978630613812 8.05730892608817e-05 0.000114575602766417 -4.01534363437682e-05 1.15914608811291e-05 3.40840952481079e-05 0.0010484805375313 0.000157555525618462 0.000238326793280452 0.000233871946264299 -7.27301724089424e-05 -0.000708970858321959 -0.00125010102735473
"135" 4.04223208142934e-05 0.000106502666773298 3.72814926212271e-05 0.000196289389464258 9.2636955800579e-05 0.000124427682961143 -3.39633233725597e-05 1.80959297387689e-05 3.07247052331579e-05 0.00105893855064881 0.000153636504354002 0.000247264881153464 0.000377222735536624 -7.19085302935586e-05 -0.000720306474566839 -0.00125824022864958
"136" 4.57199571361798e-05 0.000113692587648106 3.95763244975697e-05 0.000205011691689437 0.000104861426491285 0.00013411418414977 -2.73773694780529e-05 2.44255468195047e-05 2.66625737326155e-05 0.00106756324601849 0.00014920677011819 0.00025721291052921 0.000513125718816637 -7.22354403907141e-05 -0.000732448187609626 -0.00126541736033072
"137" 5.17941570977913e-05 0.000121189419449461 4.24578418572308e-05 0.000214127090623169 0.000117223282456125 0.000143640038043622 -2.04025017492549e-05 3.05934053530119e-05 2.19777651000709e-05 0.00107429089511415 0.000144292660436476 0.000268179286589483 0.000640492689932045 -7.37113543258071e-05 -0.000745286401444824 -0.00127231112296808
"138" 5.86388824101436e-05 0.000128952956132438 4.59064084471031e-05 0.000223618537437195 0.000129694451793014 0.000153005149913531 -1.30557491816627e-05 3.66132336829499e-05 1.67421413992023e-05 0.00107906708031318 0.000138921797558189 0.000280158143337942 0.000758330828172804 -7.63212871588555e-05 -0.000758712365178165 -0.00127959722981331
"139" 6.62502778977887e-05 0.000136933217093057 4.990480124417e-05 0.000233455316574917 0.000142254466705436 0.000162216464560286 -5.35507189398849e-06 4.25000815211037e-05 1.10403222837776e-05 0.00108185919524023 0.000133118749359651 0.000293131385243132 0.00086574664982548 -8.0050040677617e-05 -0.000772629260457861 -0.00128795534284884
"140" 7.46133820270692e-05 0.00014508003216531 5.44253428554205e-05 0.000243614790155972 0.000154876946081079 0.000171282040439179 2.687027168702e-06 4.82674225129578e-05 4.95536106020481e-06 0.00108264346728476 0.000126905687774985 0.000307070786252809 0.000961946128142245 -8.48704877011119e-05 -0.000786937831030266 -0.0012980786864928
"141" 8.37166475004883e-05 0.000153341586374121 5.9441314868989e-05 0.000254060891105168 0.000167538254638123 0.000180215310601036 1.10509733956639e-05 5.39416011897445e-05 -1.42156242477237e-06 0.00108141913415835 0.000120305101030231 0.000321933873168267 0.00104622783135659 -9.0739694419671e-05 -0.000801539454858839 -0.00131061258185462
"142" 9.35419961233205e-05 0.000161667888758402 6.49259368179709e-05 0.000264763129829964 0.000180212976809003 0.000189023397964683 1.97222527796967e-05 5.9542402663107e-05 -8.00646088382144e-06 0.00107819381671603 0.000113336926589262 0.000337669850123127 0.0011179918822786 -9.76058283831172e-05 -0.00081635657342886 -0.00132621182511847
"143" 0.000104063919402729 0.000170005630699048 7.08383838339584e-05 0.000275686400987592 0.000192882282293016 0.000197718011318199 2.86797626032874e-05 6.50924689661732e-05 -1.47004920582136e-05 0.00107299655452957 0.000106023030265837 0.000354213559016918 0.00117673274366223 -0.000105400391199285 -0.00083129716080368 -0.00134548953195141
"144" 0.000115256496302227 0.000178305122535459 7.71441516551532e-05 0.000286790013175298 0.00020552356244991 0.000206315706267399 3.79096989691281e-05 7.06180111209289e-05 -2.14192196903416e-05 0.00106587176135308 9.83830056870279e-05 0.000371489313871617 0.00122204184238384 -0.0001140541627853 -0.000846297903547222 -0.00136903225530391
"145" 0.000127088473562852 0.000186511766280518 8.38059756335225e-05 0.000298035789710868 0.000218118010671708 0.000214831071696701 4.73905006092701e-05 7.61479120137268e-05 -2.8069503600202e-05 0.00105687075101016 9.043953008588e-05 0.00038941137486505 0.0012536161564006 -0.000123465363695694 -0.00086129154634582 -0.0013973575496029
"146" 0.000139530416006227 0.000194577624801713 9.07801609513241e-05 0.000309384739085814 0.000230649442773958 0.000223280371799424 5.71076018962646e-05 8.17079952279905e-05 -3.45600482171616e-05 0.00104607371455423 8.22133472397439e-05 0.0004078835088232 0.00127123640676695 -0.000133532642587238 -0.000876217082193003 -0.0014309593855782
"147" 0.00015254076100844 0.000202459414990519 9.80245387904239e-05 0.000320791555553287 0.000243107746488603 0.000231680800412424 6.70445935347541e-05 8.73317747659241e-05 -4.07994332727434e-05 0.00103356163326788 7.37236219748617e-05 0.000426796957723995 0.00127478434937041 -0.000144136032207557 -0.000891027312055972 -0.00147024875032245
"148" 0.000166083655135203 0.000210105618883709 0.000105501022022927 0.000332220256446854 0.00025547600344078 0.000240046792619 7.71806549020117e-05 9.3047949603125e-05 -4.67012042372017e-05 0.00101944319795763 6.49976481836386e-05 0.000446041894976138 0.00126424322911277 -0.000155149676839551 -0.000905674862750322 -0.00151558319680163
"149" 0.00018011578289365 0.000217481066354574 0.000113159802235899 0.000343623007699111 0.000267747131046876 0.000248399070938493 8.75034176944158e-05 9.88860680742517e-05 -5.21829478739582e-05 0.00100383078457944 5.60549201261218e-05 0.000465495906881955 0.00123968540825059 -0.000166420826258144 -0.000920124455513936 -0.00156722708420721
"150" 0.000194590100565576 0.000224543166161487 0.000120956822863193 0.000354961857634037 0.000279911268995073 0.000256757404840237 9.79914976898586e-05 0.00010487882499742 -5.71644844621236e-05 0.000986855251738333 4.69265393366486e-05 0.000485028752916616 0.00120128548525423 -0.000177797336778706 -0.000934343345598024 -0.00162536877750974
"151" 0.000209459362312451 0.000231259038136133 0.000128849563015776 0.000366195250192577 0.000291965563886395 0.000265138037131623 0.000108630513176811 0.000111055634826804 -6.1564068798349e-05 0.000968659183110273 3.76404420770843e-05 0.000504510117023023 0.00114931201545976 -0.000189113976199321 -0.000948298181544313 -0.00169009844651448
"152" 0.000224677038735089 0.000237601026155418 0.000136791854201049 0.000377282157844961 0.000303907612328198 0.00027355997573862 0.000119406570264988 0.000117447007665954 -6.531635112815e-05 0.000949397286747205 2.82255554367344e-05 0.00052380246623066 0.00108413365579388 -0.000200193032855622 -0.000961970872921998 -0.0017614132393478
"153" 0.000240191383217662 0.000243541830711468 0.000144738870499124 0.000388184570266264 0.000315733141091527 0.000282039546221014 0.000130300021030214 0.000124077754552563 -6.83555088743031e-05 0.000929234534825672 1.87150569405736e-05 0.000542769550663231 0.00100621761583939 -0.000210854511619384 -0.000975334579271406 -0.00183922453972603
"154" 0.000255950654789016 0.000249062181203846 0.00015264933937288 0.000398864861330784 0.000327446275535529 0.000290592195501559 0.000141296145857197 0.000130977141526438 -7.06223640918354e-05 0.000908346606489496 9.14625333936247e-06 0.000561271433016771 0.000916129976876127 -0.000220910825710853 -0.000988374673377136 -0.00192331320782103
"155" 0.000271901409738905 0.000254148901618715 0.000160479750864121 0.00040928762036702 0.000339044148735525 0.000299236564243316 0.000152377099191545 0.000138171501600966 -7.20664598912569e-05 0.000886919597788893 -4.44443903419784e-07 0.000579171126642024 0.000814532689871823 -0.000230169619523848 -0.0010010609362612 -0.00201338455469005
"156" 0.000287990379976272 0.000258788636452091 0.000168191594238612 0.000419422838752027 0.000350529305169559 0.000307981634534044 0.000163524769488994 0.000145677926338023 -7.26430408985172e-05 0.000865146631255421 -1.00163513451836e-05 0.000596330632831154 0.000702189129816895 -0.000238438526254917 -0.00101337791281704 -0.00210902304850671
"157" 0.000304160724949836 0.000262983372188062 0.000175741768209524 0.000429238292319712 0.00036190638944955 0.000316840854289681 0.000174725231769562 0.000153519518426759 -7.23167966488304e-05 0.000843223021234272 -1.95253397368692e-05 0.000612619845408509 0.000579959189941302 -0.000245519199881557 -0.00102530294250192 -0.00220971731520933
"158" 0.000320363303028064 0.000266728528195928 0.000183098456242655 0.000438707725765029 0.000373175869644103 0.000325822153826031 0.000185957353249807 0.00016170943718369 -7.10616004311215e-05 0.000821356654225958 -2.89286129598905e-05 0.000627911886306799 0.0004487970359311 -0.000251232984197132 -0.00103680972398267 -0.00231487479030573
"159" 0.00033653656679105 0.000270035581895962 0.000190218924785472 0.000447803062771482 0.000384340296127002 0.000334936978837745 0.00019720375922668 0.000170259413370169 -6.88620619683968e-05 0.000799754674653947 -3.81789876234601e-05 0.000642084863070588 0.000309752816650443 -0.000255388870208938 -0.0010478702412225 -0.00242380128869812
"160" 0.000352634238529792 0.000272912994452172 0.000197075824529915 0.000456505671112912 0.000395400266814658 0.000344182989646095 0.000208445128024548 0.000179179385296946 -6.57075892402271e-05 0.000778627287553592 -4.72301953040197e-05 0.000655027538861768 0.000163961915740882 -0.000257817481957873 -0.00105845644967093 -0.00253574027646122
"161" 0.000368598265184907 0.000275380483625953 0.00020363592034516 0.000464797489691385 0.00040635361129764 0.000353565740369555 0.000219659737403207 0.000188469727880074 -6.16040885026097e-05 0.000758184811616392 -5.60345158580614e-05 0.00066663757445085 1.26481202261255e-05 -0.000258354018969547 -0.00106853174775127 -0.00264985927985035
"162" 0.000384378291833882 0.000277457701439939 0.000209872832461988 0.000472660737745649 0.000417200604899916 0.000363077227416678 0.000230825933605175 0.000198130279824038 -5.65567522224094e-05 0.000738633012722733 -6.45459553808427e-05 0.000676818377420317 -0.000142888448105552 -0.000256850070817982 -0.00107806567532951 -0.00276526213395547
"163" 0.000399926457339257 0.000279168493383233 0.000215756341488676 0.000480085033468289 0.00042793282451278 0.000372716571292457 0.000241921735734879 0.000208154618308561 -5.05926055852146e-05 0.00072018411228053 -7.27173976070182e-05 0.000685490920503413 -0.000301280448890227 -0.000253184132155363 -0.00108701275630507 -0.00288104782952126
"164" 0.000415189457466666 0.000280544097266588 0.000221267250453016 0.000487061991185604 0.000438542680841987 0.000382470342853184 0.000252921389107125 0.000218528894004832 -4.37409316190444e-05 0.000703033150941069 -8.05030926114448e-05 0.000692580385772081 -0.00046109667726214 -0.000247233314002992 -0.00109534034378766 -0.00299624786314097
"165" 0.00043012358736281 0.000281618384627353 0.000226385931148714 0.000493580190961336 0.00044902344502073 0.000392324438688719 0.00026380257647742 0.000229237221547295 -3.60419947652148e-05 0.000687375450663919 -8.78612649497649e-05 0.000698027782143519 -0.000620867820642739 -0.000238915514660989 -0.00110299691614256 -0.0031099058734817
"166" 0.000444681234897581 0.000282421580647188 0.000231092494793967 0.000499641284572793 0.000459357970974072 0.000402262747689396 0.000274534547309407 0.000240256164330585 -2.75458790170092e-05 0.000673398167097471 -9.47539073443974e-05 0.000701787267659629 -0.000779082760957589 -0.000228165300679696 -0.0011099487672085 -0.00322106702200872
"167" 0.000458820068246766 0.000282996817891752 0.000235370375233181 0.000505240647205163 0.000469531027635148 0.000412257392298239 0.000285093636672846 0.000251555122310617 -1.83113198952765e-05 0.000661273418068222 -0.00010114653339791 0.000703823579286812 -0.000934223079280801 -0.000214946298376618 -0.00111614738728955 -0.00332880726392919
"168" 0.000472496282411975 0.000283380353060073 0.00023921536548198 0.000510385034205586 0.000479515425830348 0.000422287403078356 0.000295446357109946 0.000263101241216304 -8.40518838244154e-06 0.000651165327711869 -0.000107003597402976 0.000704115651638944 -0.00108476745564668 -0.000199240795073778 -0.0011215521146389 -0.00343221124209526
"169" 0.000485674225591286 0.000283611998027127 0.000242608893437796 0.000515070577233272 0.000489291358953039 0.000432316559464809 0.000305564568178261 0.000274855173272121 2.09555634536233e-06 0.000643220128456153 -0.000112306528852645 0.000702655558656 -0.0012292150034794 -0.000181070229631853 -0.00112612180540416 -0.00353045430744768
"170" 0.000498315756652848 0.000283731073109681 0.000245553739466238 0.000519311003730429 0.000498825773563123 0.000442310510145826 0.000315413928753582 0.000286769747955398 1.31112921743474e-05 0.000637570815896053 -0.000117033361331844 0.000699443927539218 -0.00136611108146451 -0.000160479695383065 -0.00112981949672135 -0.00362273709794071
"171" 0.000510383285804481 0.000283777248749799 0.000248044718419295 0.000523110529883825 0.000508084395365999 0.000452229332718184 0.000324963751097013 0.000298796895993769 2.4552415525377e-05 0.00063432934172723 -0.000121170816562567 0.000694496676604969 -0.00149405704888994 -0.000137544693759115 -0.00113261669764227 -0.00370835337905411
"172" 0.000521846892997718 0.000283786338440461 0.00025007894231006 0.000526477641924977 0.00051703132703927 0.000462028287881885 0.000334179322010666 0.000310878379590258 3.63275434620102e-05 0.000633591238370668 -0.000124712850399702 0.000687844054278704 -0.00161174871254126 -0.00011237336582001 -0.00113448243932392 -0.0037866767815159
"173" 0.000532672119192962 0.000283796955790531 0.000251660014478704 0.000529422093621096 0.000525623581738572 0.000471659544243677 0.000343026700446123 0.000322952729531351 4.83391416491539e-05 0.000635425246167717 -0.000127666693808841 0.000679518934638478 -0.0017179883191026 -8.50987783663308e-05 -0.00113539138774194 -0.00385718307507806
"174" 0.000542834210096719 0.000283840725376455 0.000252794182285689 0.000531956572933135 0.000533815227684544 0.000481073943162645 0.000351466361441649 0.000334959508019645 6.04832942250965e-05 0.000639876325215544 -0.000130036486520851 0.000669570941818087 -0.00181170187512005 -5.58769438592522e-05 -0.00113533192210689 -0.0039194344408255
"175" 0.000552302237139398 0.00028394722530092 0.000253488171297821 0.00053408921251921 0.000541557793937907 0.00049021502737403 0.000359465984888176 0.000346826148765024 7.26601144365807e-05 0.000646974675307761 -0.000131841726086683 0.000658056487062476 -0.00189196949301467 -2.49015713468822e-05 -0.00113429164653766 -0.00397310247217221
"176" 0.000561054846868467 0.000284141770134936 0.000253753066072601 0.000535831756736188 0.000548801922555558 0.000499026293826021 0.000366985361014527 0.000358488371589929 8.47690887466399e-05 0.000656707935669147 -0.000133106058579037 0.000645036303172225 -0.00195803338448591 7.61745914715804e-06 -0.00113227335871187 -0.00401796295952286
"177" 0.000569062356774723 0.000284446027019268 0.000253597297981162 0.000537195985309275 0.000555491309766866 0.000507448602273268 0.000373992600129705 0.000369866160833087 9.67025570311838e-05 0.000669049518760956 -0.000133864768725837 0.000630587120937773 -0.00200931388701713 4.14510355038905e-05 -0.00112927488663267 -0.0040539112853125
"178" 0.000576309326441844 0.000284875846161258 0.000253038404610998 0.000538190883619614 0.000561569824162667 0.000515420970655391 0.000380445365283531 0.00038088865509858 0.000108366029135175 0.000683934645690324 -0.000134157671468031 0.000614782764819655 -0.00204542327936422 7.63399193855648e-05 -0.00112531922807586 -0.00408093122612532
"179" 0.000582771336487774 0.000285439585044236 0.00025209109568027 0.000538825535263735 0.000566981544166511 0.000522881834547757 0.000386313799083217 0.000391477958264815 0.000119654632134769 0.00070127523414857 -0.000134030140974933 0.000597704698977337 -0.00206616717572082 0.000112020052596491 -0.00112042180000564 -0.00409912354783307
"180" 0.000588426945947311 0.000286143517843228 0.00025077108546876 0.000539105210064187 0.000571670867622419 0.000529769027989691 0.000391558606512781 0.000401557987521563 0.000130478364990143 0.000720942765175182 -0.000133539077343398 0.000579441530113342 -0.00207155385924596 0.000148199513070432 -0.00111460753873605 -0.00410870130794627
"181" 0.000593259619649899 0.000286986541872492 0.000249102793342822 0.00053903684005701 0.000575582410058963 0.00053601824737948 0.000396149744225183 0.000411053072772218 0.000140745214512312 0.00074278366285103 -0.000132743718997305 0.000560078748881188 -0.00206177990076737 0.000184591661650994 -0.00110792492564264 -0.0041099308511405
"182" 0.000597252797494514 0.000287958377870234 0.000247098156011489 0.000538626736744459 0.000578654430240464 0.00054156945705786 0.000400054634896531 0.00041988809116729 0.000150381485421613 0.00076660633192871 -0.000131709969723276 0.000539709564218723 -0.00203724212712159 0.000220891123958234 -0.00110040883621692 -0.00410321942026893
"183" 0.000600387626039148 0.000289042247576165 0.000244786465497305 0.00053787450444273 0.000580839164392515 0.000546358448302689 0.000403240815867257 0.000427991564392755 0.000159306321208958 0.000792192675384803 -0.000130510988531338 0.000518420969468714 -0.00199850989365928 0.000256792211670021 -0.00109212002036725 -0.00408901595598191
"184" 0.000602653501878394 0.000290218553677971 0.000242188290493079 0.000536781055021218 0.00058208336282681 0.000550332354428525 0.000405683225924155 0.000435295745098399 0.000167456525020721 0.000819288946734643 -0.000129223402854659 0.000496303186670887 -0.00194632880150072 0.000291982729345772 -0.00108311638062422 -0.00406788558479816
"185" 0.000604032868563068 0.000291457312516677 0.000239329998383001 0.000535344350756291 0.000582338197127037 0.00055343054883731 0.000407356806742565 0.000441729366604838 0.000174777516269395 0.00084759897920735 -0.00012792356970272 0.000473446670099534 -0.0018815892657344 0.000326165605273739 -0.001073471628596 -0.00404040995786893
"186" 0.000604511697160875 0.000292722672388428 0.000236230150411534 0.000533557990338039 0.000581565380669078 0.000555601738322344 0.000408240117025587 0.000447234265011748 0.000181222882678918 0.000876813537640731 -0.000126694988142992 0.000449935918265855 -0.00180532303761006 0.000359034173251562 -0.00106326386312628 -0.0040072734306505
"187" 0.000604083320220528 0.00029396954751749 0.000232920683854655 0.000531412853919941 0.000579721782962383 0.000556797899462699 0.00040831712650315 0.000451748834094551 0.000186758302499455 0.000906576546184823 -0.000125627601030809 0.000425856172540672 -0.0017186754471048 0.000390297526531428 -0.00105257612366069 -0.00396919249944522
"188" 0.00060273109621714 0.00029515367755501 0.000229422895184184 0.000528906551322766 0.000576779997123131 0.000556974235045548 0.000407569328993992 0.000455229027762115 0.000191360407095652 0.000936516328835868 -0.000124805384114591 0.000401288519016522 -0.00162289128933066 0.000419671346559093 -0.00104150554054502 -0.00392693086072774
"189" 0.00060045098856718 0.00029621808732254 0.000225769159630667 0.000526018948876872 0.000572710643873807 0.000556085921767004 0.000405990228596314 0.000457622725906276 0.000195017373329567 0.000966223988761764 -0.000124319754434751 0.000376308495222545 -0.00151928867570316 0.000446881035887889 -0.00103015575496428 -0.00388129271491866
"190" 0.000597232341153404 0.000297100573502444 0.000221984726776058 0.000522740495174491 0.000567500439062686 0.000554103743259569 0.000403573912468008 0.000458891581315279 0.000197732675933583 0.000995270611560208 -0.000124258302270343 0.000350988684936765 -0.00140924374282312 0.000471676155561215 -0.00101865004013217 -0.00383307382587938
"191" 0.000593074364324389 0.000297737357618123 0.000218094650668637 0.000519055517017916 0.000561138065034963 0.000550993034406308 0.000400317590087181 0.000459005074609554 0.000199513647891203 0.00102320944513239 -0.000124711258129902 0.000325398206485065 -0.00129417525193465 0.000493806106157046 -0.00100711063214418 -0.00378313527201906
"192" 0.000587970720959516 0.000298057189955265 0.000214131489258471 0.000514942911229621 0.000553618921368375 0.00054673494633557 0.000396227580772955 0.000457934193890147 0.000200384464728695 0.00104957118442237 -0.000125769198410278 0.000299598198947072 -0.00117551730308294 0.00051305024220781 -0.000995674672893192 -0.00373231158721569
"193" 0.0005819182360167 0.000297988392864763 0.000210118632974176 0.000510385009207592 0.000544955895777349 0.000541307352935664 0.000391315245216254 0.000455662080614787 0.00020038292865092 0.00107387666808978 -0.000127516662664728 0.000273648856236652 -0.00105470994594957 0.000529200679827245 -0.000984497305160374 -0.00368144028876795
"194" 0.000574918426616006 0.000297452598550591 0.000206090858334968 0.000505360163642624 0.000535155825425748 0.000534701329112232 0.000385591489846938 0.000452176510823358 0.000199550472505719 0.00109564352314619 -0.000130046890473543 0.000247604239109558 -0.000933181597629645 0.000542063222034243 -0.000973732710185754 -0.00363139283422573
"195" 0.000566978634651946 0.000296371154115261 0.00020207391774658 0.000499844542439657 0.000524250983017909 0.000526909285875777 0.000379077281649515 0.000447471292899229 0.000197948389666346 0.0011143775973485 -0.000133441645658464 0.000221513813897884 -0.000812334096127657 0.000551470601379277 -0.000963566699473758 -0.00358296847835127
"196" 0.000558101213195009 0.000294660878576368 0.000198092594032681 0.000493815086350779 0.00051227200445348 0.000517932765086891 0.000371797032249394 0.000441549228762239 0.000195635788724631 0.00112959559708026 -0.00013778258323117 0.000195420018056228 -0.000693526476288311 0.000557267494402842 -0.000954178858635121 -0.00353699292272876
"197" 0.000548297617973424 0.000292242416665424 0.000194180582390456 0.000487247451280098 0.000499264652838681 0.000507777102190665 0.000363782228713163 0.000434417929601731 0.000192692215007684 0.00114082132244991 -0.000143153247150999 0.000169366576191048 -0.000578073762384617 0.000559321884437943 -0.000945779051449836 -0.00349424771395805
"198" 0.000537575211979856 0.000289030612296231 0.000190362298891639 0.000480118086572901 0.000485275523811772 0.000496454428709621 0.00035506488575618 0.000426095029775002 0.00018919376512234 0.00114759631263233 -0.000149629931846061 0.00014338768071938 -0.000467228149819802 0.000557510000630776 -0.000938580414382559 -0.00345549204278031
"199" 0.000525951053671295 0.000284950067192815 0.000186662618558719 0.000472404666271315 0.000470365248725348 0.000483986243057394 0.000345688411735757 0.000416598512091585 0.000185229521224896 0.00114947857681747 -0.000157289249670436 0.00011751554298331 -0.000362169988285789 0.000551731478865923 -0.000932818518949138 -0.00342145150014
"200" 0.000513444175891561 0.000279920338904356 0.000183112441286648 0.000464079518581299 0.000454599393851067 0.00047039428012105 0.000335692221831052 0.000405957685605453 0.000180889716755293 0.00114606440491767 -0.000166201717899354 9.17819339480891e-05 -0.000263999498174182 0.000541904664715121 -0.00092873249911886 -0.00339281176070792
"201" 0.000500073596076814 0.000273865501307126 0.000179733412597843 0.000455121475409697 0.000438055413705029 0.000455706662467892 0.000325125098279222 0.000394204578769938 0.000176272572687736 0.00113697983984143 -0.000176436140786568 6.62141929019822e-05 -0.000173737618690392 0.000527950906191207 -0.000926578902843592 -0.00337022525541729
"202" 0.000485860036154486 0.000266715867964741 0.000176552115915478 0.000445511828004523 0.000420809397771858 0.000439960887799487 0.000314040663504134 0.00038137332908937 0.000171476293680706 0.00112189607710222 -0.000188058134052019 4.08365306821459e-05 -9.23077108497749e-05 0.00050981848811381 -0.000926618551983996 -0.00335430488123294
"203" 0.000470834237230569 0.000258402873667502 0.000173586974835309 0.000435229279549556 0.000402949311174131 0.000423192603276054 0.000302490489972835 0.000367509263036212 0.00016660219698253 0.00110053590385366 -0.000201130212784169 1.56740730559438e-05 -2.05410019737574e-05 0.000487454753240481 -0.000929128713280582 -0.00334561844011765
"204" 0.000455023903739073 0.000248868291140136 0.00017086424982824 0.000424259110906957 0.000384559085452242 0.000405445917899024 0.000290531138162551 0.000352654889487309 0.000161747056264526 0.00107266935005609 -0.000215707650520492 -9.25043835681987e-06 4.08379114312538e-05 0.000460832570127107 -0.000934384043234566 -0.00334468801966316
"205" 0.000438463183718308 0.000238059383052822 0.000168394189282426 0.000412582354309899 0.000365741096369901 0.000386766735061727 0.000278222751989039 0.000336859566620084 0.000157011099549787 0.0010381297177415 -0.000231844200806904 -3.39151667560916e-05 9.12091714747671e-05 0.000429922856316978 -0.000942672408237758 -0.00335197951440482
"206" 0.000421184887833085 0.000225927039266728 0.000166200755222539 0.000400192472476573 0.000346581844283559 0.000367206553620459 0.000265626152420233 0.000320176963775482 0.000152487343307123 0.000996816042764415 -0.000249586811779612 -5.82963243195591e-05 0.000130059825584869 0.000394710275451381 -0.000954269443467994 -0.00336793690980629
"207" 0.00040323371116091 0.000212436901202555 0.000164293339907426 0.000387079112032359 0.000327180988947369 0.000346822836178252 0.000252800557190139 0.000302660229617863 0.000148272061191354 0.000948689285872625 -0.000268978026070116 -8.237073835045e-05 0.000156992856185834 0.000355197012151765 -0.000969451674829231 -0.00339293686207783
"208" 0.000384644891557299 0.000197560669232835 0.000162685131943755 0.000373241414100277 0.000307637383574289 0.000325668365738725 0.000239807554921239 0.000284363681666859 0.00014444690815113 0.000893782392127063 -0.000290054644048742 -0.000106111571892529 0.000171721955806303 0.000311380205585496 -0.000988489646805418 -0.00342732940248273
"209" 0.000365467301407433 0.000181278519321949 0.000161381067381486 0.000358676263288717 0.000288042786898992 0.000303804696199385 0.000226709449319798 0.000265350187108083 0.000141095363674263 0.000832197617203341 -0.00031284827856671 -0.000129493303769649 0.000174072122638495 0.000263275681810639 -0.00101163339994933 -0.003471390402502
"210" 0.000345742301721031 0.000163582669551354 0.000160387454182235 0.000343388916361005 0.000268495773930298 0.000281295928574702 0.00021356689242994 0.000245682791408933 0.000138291115616306 0.000764104725654479 -0.000337383009490339 -0.00015248684010079 0.000163987545327718 0.000210907695205077 -0.00103911814426681 -0.0035253681758263
"211" 0.000325527738095208 0.000144479068085149 0.00015970475786732 0.000327390403336491 0.000249086296384807 0.000258207803463889 0.000200437362122507 0.000225417502416287 0.000136096122920894 0.000689745064411793 -0.000363669621356675 -0.000175061803576954 0.000141520058747384 0.000154310002547877 -0.00107116122867127 -0.00358944551534396
"212" 0.000304865244484769 0.000123981986686139 0.000159332554176727 0.000310692580858418 0.000229898997616967 0.000234604540894025 0.000187379288508437 0.000204625920760675 0.00013457553028206 0.00060943006132066 -0.000391720544542322 -0.000197179430523827 0.000106840220277593 9.35261205225837e-05 -0.00110793964539905 -0.00366377145261592
"213" 0.000283817514887514 0.000102116954584512 0.000159263555886901 0.00029331529842693 0.000211021022797674 0.000210556823619831 0.000174445280757686 0.000183370463732936 0.000133766181736605 0.000523526582040741 -0.000421523899980717 -0.000218808697101297 6.02203828184276e-05 2.86188063860908e-05 -0.00114961025572696 -0.00374840043015686
"214" 0.000262438844491264 7.8923541959204e-05 0.000159489280045404 0.000275286328567368 0.000192531536560103 0.00018613807007475 0.000161690614341458 0.000161720240940928 0.000133714834407565 0.000432459576576219 -0.000453065875628666 -0.000239907365932027 2.03850435418276e-06 -4.03309471168683e-05 -0.00119627534957504 -0.00384334802530422
"215" 0.000240784101350665 5.44536136989934e-05 0.000159993828684017 0.000256628726800097 0.00017450328155933 0.000161420480411202 0.000149162502905995 0.000139742203110369 0.000134446793249067 0.000336719866766957 -0.000486315398465491 -0.000260430744008904 -6.72252060148709e-05 -0.000113228327046761 -0.00124800008900059 -0.00394856322650321
"216" 0.000218915903910463 2.87702703226917e-05 0.000160766101866841 0.000237382921764313 0.000157003719161639 0.000136478833947404 0.000136907194840159 0.000117508315559796 0.000135986130318651 0.000236834066107769 -0.000521227012463248 -0.000280338252217183 -0.000146996158054337 -0.000189951484244881 -0.00130479742309787 -0.00406390581505044
"217" 0.000196897667473926 1.94989834375565e-06 0.000161781457919099 0.000217584677763263 0.000140095431499443 0.000111391827374829 0.000124965797627519 9.5091407089906e-05 0.000138335198018327 0.000133375700537258 -0.000557735368031968 -0.00029958257955876 -0.000236613655902627 -0.000270347625118347 -0.00136662014981739 -0.0041891393338275
"218" 0.000174792918649529 -2.59206609765309e-05 0.000163018415048954 0.000197282017217359 0.000123838125558515 8.62351719388789e-05 0.000113378062453327 7.25665041079904e-05 0.000141502067635287 2.69525797262541e-05 -0.000595756961589227 -0.000318113313672357 -0.000335325947325809 -0.000354233649359195 -0.00143337447680391 -0.00432393095959569
"219" 0.000152662224137257 -5.47403601865316e-05 0.000164452085042533 0.000176519255787474 0.000108278842947499 6.10939577050021e-05 0.000102176784264629 5.00054974954455e-05 0.000145474183155604 -8.18014395919873e-05 -0.000635186515377448 -0.000335880251143001 -0.000442314345957883 -0.000441388965697953 -0.00150488332506928 -0.00446784352696817
"220" 0.000130576021356284 -8.44018727449621e-05 0.000166051219012822 0.000155350686191091 9.34672678494203e-05 3.60483267900757e-05 9.13891667236132e-05 2.74890116691664e-05 0.00015023782457601 -0.000192230714439495 -0.000675894344379186 -0.000352835354937958 -0.000556690796894114 -0.000531543901778724 -0.00158091576607116 -0.00462028805829487
"221" 0.000108597633792836 -0.000114778945221621 0.000167783107940242 0.000133835077089978 7.94444210399908e-05 1.11849749092381e-05 8.10463187099509e-05 5.09588196344389e-06 0.000155774347133224 -0.000303668187318464 -0.000717722686086725 -0.000368925357378154 -0.000677508648622772 -0.000624381529335571 -0.00166115244917702 -0.00478054780182126
"222" 8.67954472507318e-05 -0.000145741748986871 0.000169614411874861 0.000112030464919514 6.62492936027538e-05 -1.3413916187004e-05 7.11641309528925e-05 -1.70920735774567e-05 0.000162056088128791 -0.000415440414481429 -0.000760483642237115 -0.000384105445532572 -0.000803780269857873 -0.00071952649504865 -0.00174521007906967 -0.00494773918744897
"223" 6.52358454808313e-05 -0.000177151981420961 0.000171509269606769 8.99986350313261e-05 5.39136790990497e-05 -3.76580668487024e-05 6.17619099308341e-05 -3.8993645945296e-05 0.000169046062660224 -0.000526876040353979 -0.000803958995495445 -0.000398324686982805 -0.000934471742890039 -0.00081654180065 -0.00183262392840457 -0.00512080598871125
"224" 4.39844927793837e-05 -0.000208854560992379 0.000173427393864817 6.78103763963131e-05 4.2470436361199e-05 -6.14554068090776e-05 5.28494103464648e-05 -6.05178213487359e-05 0.000176716188763098 -0.000637312751157852 -0.000847899747564675 -0.000411541988971388 -0.00106852804331659 -0.000914926541833097 -0.00192284935004384 -0.00529849333583706
"225" 2.31051647119386e-05 -0.000240698287459231 0.000175331839237758 4.55255571047607e-05 3.19487174565782e-05 -8.47156254858843e-05 4.44368533237496e-05 -8.15800873770149e-05 0.000185027060729626 -0.000746099488478438 -0.00089201755745954 -0.000423713210170145 -0.00120487640116039 -0.00101409878702422 -0.00201525837279522 -0.00547933553357713
"226" 2.66282864160224e-06 -0.000272518109361938 0.000177178931104817 2.32139924283786e-05 2.23760754782456e-05 -0.000107347620844227 3.65257294294749e-05 -0.000102085788642241 0.000193943330968566 -0.000852606638162275 -0.000935991358422805 -0.000434807160291645 -0.00134243859912713 -0.00111340928713066 -0.00210915021247948 -0.00566167347069487
"227" -1.72828609267742e-05 -0.000304144587916401 0.000178924179806907 9.43785051251153e-07 1.37813090955074e-05 -0.000129254891086851 2.91156548063344e-05 -0.000121948727465129 0.000203423164557924 -0.000956230039369089 -0.000979459452200141 -0.000444789570506215 -0.00148013530347305 -0.00121212862690785 -0.00220374380126954 -0.00584360545562912
"228" -3.66699847674194e-05 -0.000335405182290573 0.000180528674366422 -2.12171132362941e-05 6.18377020727951e-06 -0.000150341115449129 2.22016311783405e-05 -0.000141072513344338 0.000213431976511677 -0.00105639316925827 -0.00102203684282404 -0.000453635608255784 -0.00161691213196484 -0.00130946234765467 -0.00229818925071975 -0.0060230478793674
"229" -5.54472568678159e-05 -0.000366124458451948 0.000181945998877142 -4.32007914051529e-05 -3.90725203596352e-07 -0.000170515054796305 1.57723950618647e-05 -0.000159360810738176 0.000223937232399167 -0.00115255472341698 -0.00106329447781051 -0.000461330785602415 -0.00175173781123682 -0.00140453473672885 -0.00239156602405654 -0.00619768507981072
"230" -7.35566009950228e-05 -0.000396128959740185 0.000183132896703353 -6.49448379652829e-05 -5.91781317625128e-06 -0.00018967940268966 9.81723469818037e-06 -0.000176721968933487 0.000234902023496568 -0.00124420595917322 -0.00110278575045463 -0.000467860520912279 -0.00188360623485461 -0.00149641733718741 -0.00248290827930474 -0.00636502171250988
"231" -9.09500854950897e-05 -0.00042524268119224 0.000184043629499609 -8.6385372194963e-05 -1.0379573508869e-05 -0.000207741922053666 4.31900813403666e-06 -0.000193059528696768 0.000246298774113064 -0.00133087397792474 -0.00114003508372607 -0.000473226936602595 -0.00201156355333279 -0.0015841271365599 -0.00257119716170411 -0.00652241645531967
"232" -0.000107585617464471 -0.000453291699574542 0.000184640927132497 -0.000107461537285442 -1.37561672640184e-05 -0.000224613101063952 -7.44532447592196e-07 -0.000208281837627345 0.000258089041152389 -0.00141213122679956 -0.00117455767154458 -0.00047742845536156 -0.00213470291365958 -0.00166665911349457 -0.00265539061442766 -0.00666710824620642
"233" -0.000123417364782643 -0.000480109286983045 0.000184879720732387 -0.000128116175767031 -1.60394303537351e-05 -0.000240210216344503 -5.39692092001212e-06 -0.00022230235243286 0.000270243982098043 -0.00148758693730457 -0.00120586101879614 -0.000480480571776127 -0.00225216626215992 -0.00174298864157711 -0.00273443622094724 -0.00679626375854021
"234" -0.000138412593933493 -0.000505535653790066 0.000184723311167892 -0.000148293118923844 -1.72217009827424e-05 -0.000254451747243683 -9.66075386012853e-06 -0.000235038191046949 0.000282727032109212 -0.00155688727770683 -0.00123346129072068 -0.00048240129468111 -0.00236315661563309 -0.00181210750020022 -0.00280728173586513 -0.00690707372216743
"235" -0.000152538064211915 -0.000529410616963092 0.000184129116225172 -0.000167941672690141 -1.72998690665801e-05 -0.00026726715666012 -1.35682351409301e-05 -0.000246410173364248 0.000295493197590205 -0.00161972346948679 -0.00125689294940152 -0.000483210748072122 -0.00246694031690314 -0.00187305895717433 -0.00287291730612758 -0.00699679279818225
"236" -0.000165765676506133 -0.00055159690762708 0.00018306818007917 -0.00018701240834355 -1.62917902534061e-05 -0.000278597254858307 -1.71436703312649e-05 -0.000256354804201636 0.000308499258981196 -0.00167581948333426 -0.00127572298706619 -0.000482940021773963 -0.002562844709343 -0.0019249468370798 -0.00293038043777351 -0.00706281708727407
"237" -0.000178065723941247 -0.000571960289420339 0.000181507937714158 -0.000205461947683326 -1.42171327678186e-05 -0.000288396134692752 -2.04242261980247e-05 -0.000264815994248713 0.000321675700890692 -0.00172494478113128 -0.00128956064009791 -0.000481623397156835 -0.00265025772250284 -0.00196698508527758 -0.00297878635545493 -0.00710275802096455
"238" -0.000189425161326526 -0.000590382124638593 0.000179420783724457 -0.000223247719789367 -1.11138603467673e-05 -0.000296623389110858 -2.3434716565874e-05 -0.000271747702929247 0.000334955714408934 -0.00176689852924904 -0.00129807756160398 -0.000479294976943438 -0.00272864318841838 -0.00199852298207949 -0.00301735127083887 -0.00711456799505222
"239" -0.000199821239056454 -0.000606758345232772 0.000176784212626347 -0.000240330740567113 -7.03610464661734e-06 -0.000303263947139548 -2.62134231299093e-05 -0.000277124428692752 0.000348255251182865 -0.00180152018041153 -0.00130101337869447 -0.000475993752226581 -0.00279751558263957 -0.00201906523540696 -0.00304540460516323 -0.00709654034062868
"240" -0.000209246477456171 -0.000621005462891003 0.000173582196822638 -0.000256675833588263 -2.0512407093259e-06 -0.0003083139926314 -2.87852329198021e-05 -0.000280929328493161 0.000361463182628127 -0.00182867853786437 -0.00129818336537947 -0.000471759748440426 -0.00285646941366927 -0.00202828978020303 -0.00306241614897001 -0.00704740272587613
"241" -0.000217687814789687 -0.000633051453527062 0.000169798648971041 -0.000272253961779148 3.75421175404422e-06 -0.000311787168478637 -3.11871894086538e-05 -0.000283169286328944 0.000374465042454534 -0.00184827886881452 -0.00128949389663663 -0.000466631432460692 -0.00290515519887244 -0.00202607769170026 -0.00306800336769165 -0.00696636966728502
"242" -0.000225139679523737 -0.0006428481185103 0.000165425631726253 -0.000287038056805323 1.02780846830586e-05 -0.000313714404421202 -3.34440974231297e-05 -0.000283861574632694 0.000387122347813601 -0.00186026171854885 -0.00127493544878128 -0.000460651055258974 -0.00294329192839947 -0.00201249800501615 -0.00306194036424585 -0.00685312047988547
"243" -0.000231607206191788 -0.000650363999343039 0.000160460198048377 -0.000301000898522177 1.74006159015937e-05 -0.000314144950154307 -3.55875654369942e-05 -0.000283043628339791 0.000399288906464969 -0.0018645941412814 -0.00125458925244161 -0.000453867026482215 -0.00297067703717137 -0.00198782291395786 -0.00304415536579216 -0.00670786734202297
"244" -0.000237087197857572 -0.000655586278165635 0.000154906679681703 -0.000314127006290657 2.49850903350177e-05 -0.000313142982747402 -3.76423728617393e-05 -0.000280760883766229 0.000410797456451251 -0.00186127653786305 -0.00122862961870211 -0.000446318926135818 -0.00298717435705488 -0.00195251621990757 -0.00301473098652153 -0.00653131617765702
"245" -0.000241590693119115 -0.000658521009035745 0.000148765266503149 -0.000326403279998354 3.28886647933934e-05 -0.000310785236617917 -3.96334938122643e-05 -0.000277085458473703 0.000421481575130832 -0.00185034224630117 -0.00119730536389136 -0.000438056273628601 -0.00299272098623463 -0.0019072116928254 -0.00297390617889414 -0.00632463871109909
"246" -0.000245130695612842 -0.000659196085259196 0.000142048601655524 -0.000337818479553301 4.09552210120984e-05 -0.000307163515749977 -4.15883866813613e-05 -0.000272085602972944 0.00043116284277333 -0.00183186113057789 -0.00116094397647013 -0.000429126501786578 -0.00298733197216573 -0.00185270914572777 -0.00292205440461211 -0.00608944789094955
"247" -0.000247719394221235 -0.000657650621636785 0.000134766351183753 -0.000348370142649288 4.90186490494864e-05 -0.000302378509539619 -4.35258229178332e-05 -0.000265853366690056 0.000439659299315629 -0.00180592804745084 -0.00111994413783221 -0.000419583597445622 -0.00297109971198856 -0.00178993370870209 -0.00285968423291468 -0.0058277614560436
"248" -0.000249383644021043 -0.000653947389477184 0.00012694225355387 -0.000358059378301795 5.69116076959546e-05 -0.000296545463305675 -4.54654082696769e-05 -0.000258485409553329 0.000446801624480827 -0.00177267905867657 -0.00107475619429089 -0.000409480478531185 -0.00294419758120053 -0.00171992202570475 -0.00278740705530583 -0.00554193660503874
"249" -0.000250147829150177 -0.000648158629656932 0.000118595824163447 -0.00036689573462 6.446878297161e-05 -0.00028977959568897 -4.74206893445559e-05 -0.000250081806156818 0.000452414846618789 -0.00173228631928797 -0.00102588040348455 -0.000398878440896454 -0.00290687280443766 -0.00164379541234195 -0.00270594671398529 -0.00523460539931497
"250" -0.000250041633069527 -0.000640377219384801 0.000109747244893516 -0.000374887782105192 7.1525501852543e-05 -0.000282200324475301 -4.94081082143771e-05 -0.000240750362250684 0.000456342156847102 -0.00168495001061193 -0.000973853155002775 -0.000387838072986027 -0.00285946310604127 -0.0015627294817486 -0.00261609702932802 -0.00490865711965312
"251" -0.000249099471883349 -0.000630705101319189 0.000100432683076454 -0.000382053081407636 7.79258592209444e-05 -0.000273935291198451 -5.14386279734924e-05 -0.000230599640586967 0.000458437272304909 -0.001630916951087 -0.000919231577104714 -0.000376425300056993 -0.00280237770072943 -0.00147791858624217 -0.0025187282766406 -0.00456712263348369
"252" -0.000247360375375887 -0.000619253613258823 9.06796678544275e-05 -0.000388413648615653 8.3518968267252e-05 -0.000265104643547091 -5.35135736229635e-05 -0.000219738378610717 0.000458573950036067 -0.00157046635028247 -0.000862592236368246 -0.000364710922712753 -0.00273611227360212 -0.00139057343233586 -0.00241474654103137 -0.00421317086185475
"253" -0.000244865420419838 -0.000606147973785674 8.05251214630229e-05 -0.00039399221728983 8.81704186772288e-05 -0.000255829994462793 -5.56416388538888e-05 -0.000208275541497085 0.000456646191803948 -0.00150391704424696 -0.000804510618271236 -0.000352768346789978 -0.00266122582273061 -0.00130187472798431 -0.00230510666361317 -0.00385000674400837
"254" -0.000241661804223421 -0.000591517875237339 7.00066943516279e-05 -0.000398817131075023 9.17638948314815e-05 -0.000246231258943942 -5.78198411973e-05 -0.000196315446844077 0.000452569565665241 -0.00143162566749728 -0.0007455592001688 -0.000340675398637536 -0.00257836337441602 -0.00121296018694227 -0.00219076928099602 -0.00348086157307961
"255" -0.000237794955077464 -0.00057550453247749 5.91710657627669e-05 -0.000402920717146346 9.41939084904514e-05 -0.000236415582512765 -6.00415571073069e-05 -0.000183957221185804 0.000446289189131218 -0.00135398788376714 -0.00068629374511115 -0.000328513248819607 -0.00248822417414053 -0.00112490708369252 -0.00207270560563765 -0.00310889782110306
"256" -0.000233316026605331 -0.000558247044991594 4.80564100841979e-05 -0.000406338225349383 9.53833094247281e-05 -0.000226491164568565 -6.22986505522818e-05 -0.000171298819852157 0.000437773332246391 -0.00127143690353501 -0.000627250140683256 -0.000316361497410136 -0.00239157581345882 -0.00103870611697522 -0.00195188098385928 -0.00273719316350517
"257" -0.000228276180471346 -0.000539893184844574 3.67146344562543e-05 -0.000409106454100688 9.52694085686202e-05 -0.000216550573279877 -6.45770491643458e-05 -0.000158428244270227 0.000427018279393086 -0.00118444278548093 -0.000568931041954182 -0.00030430308005038 -0.00228924169667228 -0.000955264505911867 -0.00182924165827676 -0.00236870182352552
"258" -0.000222727978625539 -0.000520593203512899 2.51970223196687e-05 -0.000411261952306063 9.38129161028793e-05 -0.000206683971951084 -6.68626489411221e-05 -0.000145429018350212 0.000414045140170248 -0.00109350977968189 -0.000511805047340118 -0.000292423190480328 -0.0021820872383305 -0.000875378611670348 -0.00170571144210406 -0.00200620170683044
"259" -0.000216726878102091 -0.00050049234797463 1.35546626903117e-05 -0.000412846757861982 9.09973926026443e-05 -0.000196966485074609 -6.9132138673986e-05 -0.000132371985702157 0.000398908636540107 -0.000999168774238959 -0.000456308555180482 -0.000280803244777649 -0.00207102642706345 -0.000799747653812365 -0.00158216404385878 -0.00165232368682292
"260" -0.000210322444994811 -0.000479742500737875 1.84109923038877e-06 -0.000413900267735345 8.68292509551906e-05 -0.000187468280127475 -7.13621682002853e-05 -0.000119329355023094 0.000381682524038349 -0.000901987859709908 -0.000402827651427739 -0.000269522737968349 -0.00195700192878976 -0.000728947569099908 -0.00145945883741103 -0.00130944716450658
"261" -0.000203571820720025 -0.000458487572033424 -9.8853422838027e-06 -0.00041446657569548 8.13362071227727e-05 -0.000178246216877054 -7.35249206172519e-05 -0.000106361092690488 0.000362469182705354 -0.000802556385483257 -0.000351711770943586 -0.00025865598621388 -0.00184097899585431 -0.000663454581685605 -0.00133838674967809 -0.000979769885461582
"262" -0.000196524337369832 -0.000436875003019576 -2.15724699735685e-05 -0.000414586700631359 7.45622605351765e-05 -0.000169347776721416 -7.55919174036756e-05 -9.35211256654405e-05 0.000341390378118166 -0.000701483171253604 -0.00030326065626368 -0.000248279412737491 -0.00172393966722532 -0.000603621139640169 -0.00121970443509456 -0.000665240049279218
"263" -0.00018923195442856 -0.00041504335764948 -3.31626072775259e-05 -0.000414300012047826 6.65731351417004e-05 -0.000160815221169781 -7.75325478100704e-05 -8.08552007431998e-05 0.00031859513190934 -0.000599394281089809 -0.000257734913133081 -0.000238452104431171 -0.00160686201120435 -0.000549711157175776 -0.00110412037282462 -0.000367593545071828
"264" -0.000181747305681402 -0.000393130452383696 -4.45971651016397e-05 -0.000413650299510028 5.74580228108461e-05 -0.000152675997552872 -7.93120332769854e-05 -6.8411578151814e-05 0.000294243701744871 -0.000496929403208684 -0.000215348224540968 -0.000229234668186561 -0.00149072914583395 -0.00050187258605719 -0.000992282950207168 -8.83123286767429e-05
"265" -0.000174115753003411 -0.000371266403966558 -5.58233999358005e-05 -0.000412677698288856 4.73081312174942e-05 -0.000144957436496254 -8.08973911089235e-05 -5.6222431270867e-05 0.000268515134863249 -0.000394725412164373 -0.000176274774158681 -0.000220677531366842 -0.00137650095404352 -0.000460172461971657 -0.000884796425586643 0.000171326206608424
"266" -0.000166380316905192 -0.00034957522824325 -6.67855746013086e-05 -0.000411418519478837 3.62429060525847e-05 -0.000137668598232158 -8.2250204801526e-05 -4.43192484810393e-05 0.000241599936685649 -0.000293430346981816 -0.000140646556432041 -0.000212816985526658 -0.0012651158681549 -0.000424586936860668 -0.000782204031963134 0.000410283475955712
"267" -0.000158590742132333 -0.000328175291068863 -7.74308707568915e-05 -0.000409910884434288 2.43787439229152e-05 -0.000130820858725248 -8.33405989633025e-05 -3.27359378258215e-05 0.000213701679005475 -0.000193673464603416 -0.000108555428517408 -0.000205683036844842 -0.00115747670782833 -0.000395020027556057 -0.000685008194739537 0.000627730001628915
"268" -0.000150784610546856 -0.000307176984975544 -8.77140604205635e-05 -0.000408189256572331 1.18520989757749e-05 -0.000124414692628291 -8.4132583145194e-05 -2.14919096511266e-05 0.000185030785634874 -9.60748527022555e-05 -8.00653439630161e-05 -0.000199292427108556 -0.00105444845583451 -0.000371305340178656 -0.000593636616032692 0.000823031427434586
"269" -0.000143001692007016 -0.000286681857553047 -9.75836415226267e-05 -0.00040628530920337 -1.19891829614216e-06 -0.000118446376131095 -8.45886614427264e-05 -1.06119740074926e-05 0.000155797915085201 -1.22930192653604e-06 -5.51971278850739e-05 -0.000193651621163255 -0.000956845395775373 -0.000353218354442029 -0.000508483591588311 0.000995768212520617
"270" -0.000135272613666403 -0.000266782990003864 -0.000106995942513002 -0.000404229987064768 -1.46328704854041e-05 -0.000112906563776818 -8.46816955865233e-05 -1.13692542861519e-07 0.000126217935369726 9.0289354419904e-05 -3.3947174386156e-05 -0.000188754253217674 -0.000865423745011778 -0.000340486794192288 -0.000429879414872254 0.00114569608747163
"271" -0.000127635838453236 -0.00024756730717327 -0.000115912915587067 -0.000402045839977051 -2.83030485367258e-05 -0.000107780532998258 -8.43811576894745e-05 9.98882582034838e-06 9.65110027566201e-05 0.000177951537410379 -1.62823000223251e-05 -0.000184581012591709 -0.000780880572112251 -0.000332791189984198 -0.000358086946691024 0.0012727425333009
"272" -0.00012011561675059 -0.00022910789184379 -0.000124300833354024 -0.000399757075967674 -4.20680216194581e-05 -0.000103051979371146 -8.36616270748815e-05 1.96782694582063e-05 6.68874865420951e-05 0.000261263302249863 -2.14431777265246e-06 -0.000181102096697121 -0.000703844654973728 -0.000329782661371514 -0.000293329108642721 0.00137700155284864
"273" -0.000112743826087686 -0.000211467357387083 -0.000132122073052124 -0.000397382447499072 -5.57830163583068e-05 -9.86947343441721e-05 -8.25016691561011e-05 2.89443165514392e-05 3.75551542785563e-05 0.000339775426535537 8.54819359067064e-06 -0.000178274604028919 -0.000634869427607338 -0.000331081574282609 -0.000235764983534192 0.00145872374192203
"274" -0.000105541854780203 -0.000194704084792988 -0.000139356658833943 -0.000394937028316424 -6.93086979596356e-05 -9.46903109946881e-05 -8.08755862958323e-05 3.77793191864714e-05 8.72080604655244e-06 0.00041309088499922 1.58988657552012e-05 -0.00017604663632816 -0.000574436007921174 -0.000336291296810034 -0.000185495425935805 0.0015183064923374
"275" -9.85290110899303e-05 -0.000178860551417899 -0.000145979863322625 -0.000392428855807228 -8.25171204365394e-05 -9.10064599258371e-05 -7.87701979584774e-05 4.61723452627005e-05 -1.94288510157567e-05 0.000480877414866106 2.00251395682211e-05 -0.00017435209245725 -0.000522942721257415 -0.000344995627283974 -0.000142560434481444 0.00155626079044839
"276" -9.17265978295235e-05 -0.000163970558586448 -0.000151975026909259 -0.00038986737054741 -9.5282448028522e-05 -8.76181715501794e-05 -7.61716845133736e-05 5.41228045089742e-05 -4.67036787575186e-05 0.000542852570087632 2.10648618267204e-05 -0.00017311569768637 -0.000480702165653251 -0.00035677279193127 -0.000106947456698526 0.00157323729255356
"277" -8.51513015474751e-05 -0.000150059797349313 -0.000157327702111679 -0.000387252985348766 -0.000107485082953342 -8.44900262389197e-05 -7.30745327531863e-05 6.16257860310997e-05 -7.29383974765572e-05 0.000598805175825228 1.91662269267713e-05 -0.000172256457984015 -0.000447950985152217 -0.000371194410212663 -7.85772744956456e-05 0.00156998828021814
"278" -7.88118743043276e-05 -0.00013714143061508 -0.000162037058707169 -0.000384584116697019 -0.000119022339636998 -8.15873982329525e-05 -6.94701354999608e-05 6.86819324179633e-05 -9.79650224221148e-05 0.000648581586078306 1.4495287958556e-05 -0.000171684003684545 -0.000424833411371498 -0.000387828212571824 -5.73184224771648e-05 0.00154736932065695
"279" -7.27206297125721e-05 -0.000125215637719213 -0.000166099920196658 -0.000381853137739189 -0.000129799042081528 -7.88772134381546e-05 -6.53636704549467e-05 7.52893625626731e-05 -0.00012164262696266 0.000692099686363538 7.22335919433538e-06 -0.000171303087637593 -0.000411407813779763 -0.000406244708907199 -4.29786312332187e-05 0.00150633313004249
"280" -6.68859724621369e-05 -0.000114277159406667 -0.000169515073776139 -0.000379051098006305 -0.000139725679520275 -7.63240582229494e-05 -6.07554937531554e-05 8.14585713181998e-05 -0.000143838883749264 0.000729340738467792 -2.46696584706574e-06 -0.000171010887254879 -0.000407650374450073 -0.000426021086587397 -3.53153175596263e-05 0.00144791564516919
"281" -6.13133244191376e-05 -0.000104310013671818 -0.00017229712180829 -0.000376163283875024 -0.000148730653882477 -7.3890917911098e-05 -5.56536936117796e-05 8.7192976054243e-05 -0.000164433439898829 0.000760346729888535 -1.43814172233842e-05 -0.000170700814409693 -0.0004134488967849 -0.000446739509240047 -3.40179977296463e-05 0.00137322023445764
"282" -5.60052693144307e-05 -9.52893669036198e-05 -0.000174454619608753 -0.000373173352248556 -0.000156753177160648 -7.15379048123508e-05 -5.00695773477067e-05 9.25049285970172e-05 -0.000183323670031825 0.00078522915364892 -2.83204503695279e-05 -0.000170267065418495 -0.000428608891682053 -0.000467980563040272 -3.87403784139859e-05 0.0012834438360021
"283" -5.09595553022126e-05 -8.71781293040397e-05 -0.000176004561826609 -0.000370061174810125 -0.000163743134823576 -6.9227457840475e-05 -4.40207297905734e-05 9.74028983322207e-05 -0.000200418959237987 0.000804150164353814 -4.40800630830162e-05 -0.000169601400429372 -0.000452853584199728 -0.000489345044728653 -4.90745527423008e-05 0.0011798245282004
"284" -4.61774356340692e-05 -7.99393776285461e-05 -0.000176968418486504 -0.000366802697702992 -0.000169658352122967 -6.6922104150979e-05 -3.75252788603255e-05 0.000101905019414427 -0.000215649061538989 0.000817329350283886 -6.14462773217427e-05 -0.000168592266356416 -0.000485824740516778 -0.000510441222154432 -6.45727021979638e-05 0.00106366896356189
"285" -4.16497038860851e-05 -7.35196379113899e-05 -0.000177370030933827 -0.000363374149898176 -0.000174471742547869 -6.45860066806302e-05 -3.0601430908692e-05 0.000106026183182802 -0.000228952563825881 0.000825042099923487 -8.0202181663527e-05 -0.000167137185051856 -0.000527090247149514 -0.000530875469023781 -8.47421959973354e-05 0.000936333962807824
"286" -3.73735982464804e-05 -6.78641351294648e-05 -0.00017723839963829 -0.00035975163233683 -0.00017816576254896 -6.21801016270795e-05 -2.32752628436327e-05 0.000109788478982655 -0.000240286577941788 0.00082759351777385 -0.000100126229235552 -0.000165132031679095 -0.00057614037391479 -0.000550276382737382 -0.000109050595748255 0.000799221608206952
"287" -3.33378514498496e-05 -6.29114942378234e-05 -0.000176600810212189 -0.000355903221082954 -0.000180732952472174 -5.96688076788033e-05 -1.55751727605861e-05 0.000113213931999306 -0.000249621951681103 0.000825342468314833 -0.000120995647176343 -0.00016247446818875 -0.000632398715889187 -0.000568276062436436 -0.000136937010750058 0.000653762681231275
"288" -2.95292275989971e-05 -5.85953322995924e-05 -0.000175488549201181 -0.000351807042318922 -0.000182170251686989 -5.70189643750436e-05 -7.52350579903626e-06 0.000116324165402968 -0.000256939284147483 0.000818675961683273 -0.000142579766185651 -0.000159074169871205 -0.00069522004422693 -0.00058452163246598 -0.000167813387791574 0.000501431492724091
"289" -2.59350945089253e-05 -5.48441706971088e-05 -0.000173939249811968 -0.000347429631655873 -0.000182489014544646 -5.41941315793002e-05 8.43137340579004e-07 0.000119147041684544 -0.000262235572876661 0.000808005743298063 -0.000164653234817357 -0.000154845537559512 -0.000763896910952576 -0.000598672949745222 -0.000201065970912217 0.000343695640624494
"290" -2.25348104556501e-05 -5.15829515458103e-05 -0.000171983950920995 -0.000342750342610493 -0.000181703435952499 -5.11646319818137e-05 9.49742691105155e-06 0.000121710573228086 -0.000265522196393773 0.000793760261787142 -0.000186983442507242 -0.000149704890700323 -0.00083766734332959 -0.000610397374152678 -0.000236068781257186 0.000182064652151626
"291" -1.93157655300841e-05 -4.87375721530196e-05 -0.000169663874574251 -0.000337741957510015 -0.000179838098150089 -4.79019347491447e-05 1.84099712710763e-05 0.000124042917528669 -0.000266821679870819 0.000776392123373475 -0.000209346183369081 -0.000143588279681933 -0.00091571396004769 -0.000619385622014817 -0.000272184816702681 1.80213553361222e-05
"292" -1.62513307961483e-05 -4.62314969485852e-05 -0.000167012135568498 -0.000332380640633261 -0.000176923974770291 -4.43808033754207e-05 2.75468631216133e-05 0.000126175733563165 -0.000266165006548174 0.000756352122204447 -0.000231511548976443 -0.000136428000911814 -0.000997180440823073 -0.000625341888688913 -0.000308781198404757 -0.000146943079495914
"293" -1.3322164022454e-05 -4.39819206653868e-05 -0.000164068729977007 -0.000326644562248048 -0.000172991792618424 -4.0575920443674e-05 3.68784528729847e-05 0.000128139561115702 -0.00026360466562336 0.000734101736196617 -0.000253262829017807 -0.000128181192103379 -0.00108116029978033 -0.000627991304873865 -0.000345225392143736 -0.00031137526397466
"294" -1.05005604274158e-05 -4.19152072694437e-05 -0.00016086636764287 -0.000320515731883414 -0.000168080819258702 -3.64688698764097e-05 4.63736404092033e-05 0.000129964379741816 -0.000259190741768919 0.000710093905654959 -0.000274384730992434 -0.000118803812433999 -0.00116672963065879 -0.000627081018900798 -0.000380897065041652 -0.000473851067976917
"295" -7.76156402016153e-06 -3.99557849897973e-05 -0.000157445348431395 -0.000313981304516748 -0.00016223901259392 -3.20404928584801e-05 5.60018239922833e-05 0.000131685739620311 -0.00025299709110774 0.000684774110705672 -0.000294669942645755 -0.000108265081387117 -0.00125292103946487 -0.000622383075831983 -0.000415198282154151 -0.000632996852249761
"296" -5.07772675619941e-06 -3.80269970761857e-05 -0.000153838172848575 -0.000307024363088235 -0.00015551298094033 -2.72808783150992e-05 6.57333695681382e-05 0.000133333517411965 -0.000245094504310796 0.000658579989585767 -0.000313922651563048 -9.65528241110981e-05 -0.00133876595440203 -0.000613703162223997 -0.00044755234409665 -0.000787499422014706
"297" -2.41824601756727e-06 -3.6057233191223e-05 -0.000150080795362304 -0.000299643401230443 -0.000147951560117733 -2.21781110296762e-05 7.55439993507834e-05 0.000134938024131156 -0.000235575802704688 0.000631930773822435 -0.000331964102027218 -8.36595550626048e-05 -0.00142327789596709 -0.00060087788864866 -0.000477420519976258 -0.000936135825633369
"298" 2.46105443149189e-07 -3.39819036338069e-05 -0.000146205376963221 -0.000291830796757339 -0.000139612845274376 -1.67296612973183e-05 8.54051839144968e-05 0.000136531788932313 -0.000224537800017569 0.000605228873124658 -0.000348623246328315 -6.95889785315808e-05 -0.00150546644160052 -0.00058378175314417 -0.000504309275377488 -0.00107776542289616
"299" 2.94568919657464e-06 -3.17397609686897e-05 -0.000142243739998379 -0.000283585717047693 -0.000130551035493138 -1.09335219426678e-05 9.52931958977544e-05 0.000138145622037066 -0.000212086997594507 0.000578853008748889 -0.000363755640506946 -5.43615951582695e-05 -0.00158435806188089 -0.000562332182703012 -0.000527757326862495 -0.00121136751534753
"300" 5.71335028210677e-06 -2.92691762797358e-05 -0.000138226350711286 -0.000274917262664186 -0.000120828963259627 -4.79465646605466e-06 0.000105188130710327 0.00013980607355454 -0.000198337316897924 0.000553153044313203 -0.000377229516184931 -3.80055316432308e-05 -0.00165898972428571 -0.000536486592772088 -0.000547363089969567 -0.00133602819564545
"301" 8.57920883674841e-06 -2.65196989244722e-05 -0.000134181860770882 -0.000265831101656128 -0.000110504641984459 1.67764016026098e-06 0.000115066158440791 0.000141541082042029 -0.000183408576595974 0.000528465676745859 -0.000388935517256604 -2.0557964437062e-05 -0.00172842763632463 -0.00050624684546227 -0.00056278609750848 -0.00145096223952683
"302" 1.15790739123559e-05 -2.34483718544651e-05 -0.000130129687231671 -0.000256343365994574 -9.96451949104208e-05 8.47145173720373e-06 0.000124911322923971 0.000143379927540627 -0.00016743611777475 0.000505085002988572 -0.000398790847937714 -2.07220438389967e-06 -0.00179177904333731 -0.000471670629627767 -0.000573737318351966 -0.00155553280310167
"303" 1.47392005565417e-05 -2.00136405759173e-05 -0.00012610263003544 -0.000246468989832798 -8.8316598214996e-05 1.55718428849059e-05 0.000134706180558826 0.000145340478655482 -0.000150548736599501 0.000483289768492922 -0.000406736992511444 1.73912978408201e-05 -0.00184819367807304 -0.000432858721578098 -0.000579986603259742 -0.0016492606964892
"304" 1.80916961914838e-05 -1.61839138580226e-05 -0.000122114594701085 -0.000236232522494071 -7.65856976102292e-05 2.29526005946854e-05 0.000144437284032507 0.000147450787831428 -0.000132892928663003 0.000463318819119639 -0.000412734787856508 3.77655357552998e-05 -0.00189687809446923 -0.00038996146448999 -0.000581384562676269 -0.00173178539887539
"305" 2.16666222486034e-05 -1.19326832757769e-05 -0.000118190455191037 -0.000225661454173823 -6.45204039358184e-05 3.0593896968522e-05 0.000154093127358624 0.000149728342437558 -0.000114611529092583 0.000445392692497389 -0.000416778099706088 5.89718839649548e-05 -0.00193711304561955 -0.00034317875745686 -0.000577828087446587 -0.00180293551812897
"306" 2.54912107517519e-05 -7.24423984302576e-06 -0.000114345841926758 -0.000214782467879145 -5.21887150984845e-05 3.8468013405292e-05 0.000163664494780864 0.00015219671715069 -9.58482931841688e-05 0.00042968890826477 -0.000418882620514674 8.09197705594238e-05 -0.00196825148577823 -0.000292755547098013 -0.000569296313599124 -0.00186267660745049
"307" 2.95904401619776e-05 -2.10335417909232e-06 -0.000110595564473123 -0.000203632385042814 -3.96611031628183e-05 4.654074500911e-05 0.000173139666424143 0.000154866178485237 -7.67605906936832e-05 0.000416367754135318 -0.000419085442014429 0.000103522831962929 -0.00198972653190465 -0.000238980594001067 -0.000555821939587891 -0.00191111920948886
"308" 3.39937807793442e-05 3.49024634030289e-06 -0.000106951852506488 -0.000192248932902427 -2.70025258561571e-05 5.47804709529242e-05 0.000182514897395414 0.000157760176265362 -5.74901954702879e-05 0.000405555841334678 -0.0004174526997311 0.000126677699865029 -0.00200107178524143 -0.000182174608861957 -0.000537499086533217 -0.00194852454405771
"309" 3.87179781809403e-05 9.53763839078887e-06 -0.000103428993582701 -0.000180668101861593 -1.42809078081201e-05 6.31535944394804e-05 0.000191783674194687 0.000160890533811691 -3.81874897001801e-05 0.000397347082507551 -0.000414071610164782 0.000150282690473045 -0.00200191267471338 -0.000122703500246583 -0.000514491211241066 -0.0019753021552727
"310" 4.37881935087343e-05 1.60285835474737e-05 -0.000100033606042822 -0.000168936197549124 -1.56114873313816e-06 7.16228138742653e-05 0.000200943814359823 0.000164270059065745 -1.8998476118635e-05 0.000391810754861798 -0.00040904638232859 0.000174227637648675 -0.00199198264773407 -6.09517470508947e-05 -0.000487002704081103 -0.00199196123491534
"311" 4.92190017013233e-05 2.29540193392456e-05 -9.67746353762844e-05 -0.000157094406508946 1.10969031406663e-05 8.01507889567095e-05 0.000209995246911726 0.000167912907570073 -6.30131611362017e-08 0.000388989743046464 -0.000402499293012402 0.000198401471763401 -0.00197112308895234 2.67052033632045e-06 -0.00045529397459312 -0.00199913876212041
"312" 5.50237208836941e-05 3.028966713658e-05 -9.36569462672841e-05 -0.000145190037038753 2.36324850937809e-05 8.869875578393e-05 0.000218931368442803 0.000171832324822996 1.84878652144529e-05 0.000388900430144067 -0.000394572067620737 0.000222693423016027 -0.00193928023218936 6.77428442916854e-05 -0.000419673281874679 -0.00199756730627365
"313" 6.12178887232364e-05 3.80137224627783e-05 -9.06797261665912e-05 -0.000133274248653194 3.5993919581301e-05 9.7233634110408e-05 0.000227759748470773 0.000176039659337833 3.6521859003888e-05 0.000391528255773497 -0.000385415905742585 0.00024698524532739 -0.00189651443722221 0.000133828805589651 -0.00038048918628916 -0.00198805072458893
"314" 6.7807782809422e-05 4.60992951699593e-05 -8.78502486113331e-05 -0.000121387972147658 4.81302861188465e-05 0.000105720925891764 0.000236479112395404 0.000180545938498864 5.39277276757382e-05 0.000396839486804358 -0.000375191103532356 0.000271165433317436 -0.00184299701103367 0.000200499469741281 -0.000338113426009847 -0.00197146801607966
"315" 7.479539477574e-05 5.45138363337378e-05 -8.51675247989216e-05 -0.000109580758146546 5.99934562691085e-05 0.000114124753075759 0.000245090067454561 0.000185362482087515 7.05941525547477e-05 0.000404774646890569 -0.000364066663885608 0.00029511889684543 -0.00177900434001888 0.00026732103801531 -0.000292955115300712 -0.00194875654340898
"316" 8.21880027318225e-05 6.32238789685817e-05 -8.26236334689859e-05 -9.79034250610394e-05 7.15509754171702e-05 0.000122412363016143 0.00025359792147456 0.000190500057758833 8.6428048504194e-05 0.000415249726437988 -0.000352216344908338 0.000318736277386031 -0.00170491579076617 0.000333880445398368 -0.000245447800177952 -0.00192086683216561
"317" 8.99828612402119e-05 7.21917169921236e-05 -8.02208607570462e-05 -8.63971499451221e-05 8.27647907454034e-05 0.000130559157748892 0.000262003477838286 0.000195968608315168 0.000101344164285164 0.000428158843662466 -0.000339814573025833 0.000341905662871259 -0.00162121174162079 0.000399773098001743 -0.000196031350469487 -0.00188879468731349
"318" 9.81749861519081e-05 8.13767086194578e-05 -7.79495849797924e-05 -7.51098142527867e-05 9.36080083432746e-05 0.000138536054115699 0.000270313563397307 0.000201780410834352 0.000115275668403445 0.000443375343229413 -0.000327038278523872 0.000364525160882471 -0.00152845863999898 0.000464620113896881 -0.000145164056602986 -0.00185351954850656
"319" 0.000106754077067165 9.07428365261469e-05 -7.57994741756841e-05 -6.40799864151183e-05 0.000104065193336231 0.000146318036986747 0.000278529304916643 0.000207941804122031 0.00012815999674478 0.000460751335809506 -0.000314056711092121 0.000386493440648954 -0.00142730291208734 0.000528064126678552 -9.33079104327932e-05 -0.00181601889077938
"320" 0.000115708663777354 0.000100244020983025 -7.3763636710191e-05 -5.3352284683393e-05 0.000114118880629073 0.000153890307406553 0.000286653844123129 0.000214462398853796 0.000139961267266297 0.000480127354896614 -0.00030103798137513 0.000407713169331803 -0.00131846734101949 0.000589779043271774 -4.09286222545843e-05 -0.00177725660047328
"321" 0.000125024410314005 0.000109844560350592 -7.18343370224359e-05 -4.29632779074562e-05 0.00012375981382273 0.000161230315745593 0.000294691672527902 0.00022135039368267 0.000150647986254728 0.00050131873599094 -0.000288143684347108 0.000428096897037829 -0.00120273777296645 0.000649466980319329 1.15187859654226e-05 -0.00173817229232678
"322" 0.000134682061727233 0.000119498098788064 -6.99902412326746e-05 -3.29441092824675e-05 0.000132992303565048 0.000168328181692268 0.000302648406673985 0.000228614230913705 0.000160205268796785 0.000524127220881561 -0.000275526832100526 0.000447562050376011 -0.00108095000920082 0.000706864218332009 6.35801122582668e-05 -0.00169964658829708
"323" 0.000144662811092927 0.000129168224124015 -6.82241925434188e-05 -2.33272322313336e-05 0.000141816994027119 0.000175172880491348 0.000310523757999127 0.000236257191651863 0.000168635625982936 0.000548339807663954 -0.000263333268624436 0.000466031677621078 -0.000953986422470714 0.000761732506319471 0.000114813995763232 -0.00166254234829965
"324" 0.000154937739779433 0.000138812778318246 -6.65152717508716e-05 -1.41420936909294e-05 0.000150243878208646 0.000181758069123039 0.000318319444589636 0.000244284945163157 0.000175951277038431 0.000573732846379706 -0.00025169765472928 0.000483440280701138 -0.000822758924288181 0.000813876835028155 0.000164798237294151 -0.00162764769805731
"325" 0.000165483672154011 0.000148394565069645 -6.484785837588e-05 -5.40608128142494e-06 0.000158290797112775 0.000188076382600717 0.000326035892267569 0.000252697909283046 0.000182172392234749 0.000600066727675133 -0.000240744984507371 0.000499728627788653 -0.000688207178645269 0.00086312587853997 0.000213120084418087 -0.00159570157416958
"326" 0.000176263176478944 0.000157875750379566 -6.32012269323001e-05 2.85820666334649e-06 0.000165973097014865 0.000194126247022311 0.000333677356501819 0.000261495887083513 0.000187345668808756 0.000627094036438192 -0.000230587481764348 0.000514845672774857 -0.00055127837620988 0.00090934643997847 0.000259387145829452 -0.00156737490162966
"327" 0.000187247191071287 0.000167219185931341 -6.15597525015603e-05 1.06373605558749e-05 0.000173314908055649 0.00019991201678607 0.000341237172947953 0.00027067397263365 0.000191510073489008 0.000654558708002771 -0.000221329304321782 0.000528749808848313 -0.000412927960747181 0.000952423996736626 0.000303240854935059 -0.00154329281009095
"328" 0.00019839678056873 0.000176393201450182 -5.98974595764535e-05 1.79202096058483e-05 0.000180344448278639 0.000205432079210771 0.0003487173918556 0.000280227265353964 0.000194727780098201 0.000682194652299294 -0.000213063220181589 0.000541408664792354 -0.000274099826615939 0.000992281798835016 0.000344325218743898 -0.00152399878720136
"329" 0.000209676015089102 0.00018536332788858 -5.81951880239769e-05 2.47029757796399e-05 0.000187084376165423 0.000210694707298955 0.000356112930772318 0.000290141936566699 0.000197066728130884 0.000709734845524068 -0.000205868834836541 0.000552798975494825 -0.000135730473742673 0.00102886070646703 0.00038232355018692 -0.00150997405768062
"330" 0.000221039671837816 0.000194099059267658 -5.64304550466396e-05 3.09831530624745e-05 0.000193571950824887 0.000215700985311653 0.000363420529305617 0.000300410113268108 0.000198600717575069 0.000736903706972937 -0.000199816643702132 0.000562904400498282 1.26117356977302e-06 0.00106212774181602 0.000416947111928414 -0.00150164364668558
"331" 0.000232445444540129 0.000202574564853512 -5.45776584482858e-05 3.67618592623439e-05 0.000199830344499463 0.000220461806605908 0.000370632401249741 0.000311013762016408 0.000199410563373836 0.000763424066363492 -0.000194965195152699 0.000571721180094454 0.000135992332220943 0.001092069510974 0.000447923670670979 -0.00149935745483767
"332" 0.00024384770717703 0.000210759688076845 -5.26198902705988e-05 4.20460078584071e-05 0.000205896375498611 0.000224980372637038 0.000377739894632931 0.00032192957435582 0.000199584488270778 0.00078902354592313 -0.00019136460621374 0.000579252134096659 0.000267606624559503 0.00111868760938534 0.000475014131555278 -0.00150340483017129
"333" 0.000255203049139235 0.000218629630764902 -5.05260674999602e-05 4.68479117856606e-05 0.000211797870735665 0.000229266601468505 0.000384734872199693 0.000333135468843002 0.000199210062799446 0.000813426854676808 -0.00018905571796293 0.000585507745606197 0.000395288887699086 0.00114199554044668 0.0004980063404704 -0.0015140157416121
"334" 0.00026645550611437 0.00022616243411729 -4.82814261781672e-05 5.1182739849559e-05 0.000217562790633807 0.000233328491759428 0.000391608625953326 0.000344599908192678 0.000198384403311339 0.000836358579788223 -0.000188067254056038 0.00059050783071814 0.000518263841249044 0.00116202957700918 0.000516725795849758 -0.00153135000592547
"335" 0.000277556264598133 0.000233333630082355 -4.5858104800943e-05 5.50641091317413e-05 0.000223217182774914 0.000237172459657136 0.000398345120335422 0.000356296749698961 0.000197201683981454 0.000857557720420915 -0.000188424137872128 0.000594280155768113 0.000635803692171158 0.00117882230216062 0.000531016069910001 -0.00155553416537011
"336" 0.000288456938323552 0.000240122961898629 -4.32410972316215e-05 5.85204234761981e-05 0.000228789605795512 0.000240804863350947 0.000404935178388938 0.000368185201872577 0.000195758885418263 0.000876764147065058 -0.000190136609310828 0.000596861448233276 0.000747230317980964 0.00119242247014373 0.000540755654179454 -0.00158660074126297
"337" 0.000299101654869078 0.000246513864594233 -4.0403571609584e-05 6.15722771330024e-05 0.000234293796913884 0.00024423656101355 0.000411361026855784 0.000380230334386899 0.000194152571104529 0.000893728746115641 -0.000193213759689863 0.000598289083143261 0.000851913921503759 0.00120287910574133 0.00054586444450196 -0.00162457854888007
"338" 0.000309439161198848 0.000252484733299177 -3.73271819589613e-05 6.42426943651393e-05 0.000239758181734502 0.000247469529241097 0.000417609074500662 0.000392392891152409 0.000192476698217042 0.000908215128741754 -0.000197650130429449 0.000598611876166793 0.000949288404647915 0.00121025099834769 0.000546279402871263 -0.00166938880844098
"339" 0.000319416063819964 0.000258019736597962 -3.40008476544057e-05 6.65694063516515e-05 0.00024518797970129 0.000250512946314314 0.000423663109888472 0.000404625618330955 0.000190827601898204 0.000919998978231137 -0.000203440304673089 0.000597884748141238 0.00103883234166049 0.00121459201282998 0.00054197657807714 -0.0017209684778456
"340" 0.000328977099141237 0.000263102146891367 -3.04032497378332e-05 6.85795580161233e-05 0.000250599981187568 0.000253371786563529 0.000429503166761888 0.000416884609129747 0.000189293284583091 0.000928869737814817 -0.000210563576329321 0.000596160685215239 0.00112008803736851 0.00121596925173207 0.000532958790952304 -0.00177914366776691
"341" 0.000338070180389271 0.00026771883904489 -2.65227714029173e-05 7.03071421315062e-05 0.000255996983912765 0.000256043367106349 0.000435109844285193 0.000429123191157842 0.000187956870123739 0.000934632867372014 -0.000219002480955324 0.000593501584150905 0.0011926556894076 0.00121443995401241 0.000519268219684458 -0.00184374039094869
"342" 0.000346643281186619 0.000271852343824478 -2.23463826253943e-05 7.17853294586027e-05 0.000261385116597166 0.000258538196157679 0.000440466184835082 0.000441293347992562 0.000186905716025092 0.000937118805369784 -0.000228723720314371 0.000589970104119389 0.0012561832444449 0.00121006645274282 0.000500973812506949 -0.00191452939620037
"343" 0.000354648723445559 0.000275491027647546 -1.78662129893521e-05 7.30505212251142e-05 0.000266762703305283 0.000260857873336016 0.000445555990916288 0.00045334638836106 0.000186211738384951 0.000936173864001118 -0.000239694896301765 0.000585630031630813 0.00131038796334658 0.00120290980492776 0.000478176602445585 -0.00199124387150747
"344" 0.000362030773069489 0.000278619666472765 -1.30784671634467e-05 7.41398828219151e-05 0.000272121831601004 0.000262998640326657 0.000450354427706435 0.000465233209334424 0.000185952349830463 0.000931664062866821 -0.000251868474678728 0.000580550970531102 0.00135503603526709 0.00119303899968117 0.000451010099953955 -0.00207357530799879
"345" 0.000368746366568396 0.000281229171506543 -7.97497794854531e-06 7.5086119917343e-05 0.00027745786115457 0.000264966011509918 0.000454846095777691 0.000476902961721338 0.000186186446150433 0.000923485220659169 -0.000265201132173553 0.000574796031059469 0.00138995669334435 0.00118051378569082 0.000419634863010547 -0.00216117843690766
"346" 0.000374751761870966 0.000283305393603561 -2.55661898382422e-06 7.59277134398873e-05 0.000282757534849436 0.000266759375778704 0.000459010823269296 0.000488311904689064 0.000186975555122675 0.00091154816379574 -0.00027963474056305 0.000568431868460571 0.00141502796150038 0.00116540215320104 0.000384246531678051 -0.00225367449222504
"347" 0.000379998732722334 0.000284834970966745 3.17320782222269e-06 7.66969111741436e-05 0.000288006614655684 0.000268379997080996 0.000462834249269114 0.000499413674391155 0.00018837369341125 0.000895798009302008 -0.000295107068317113 0.000561523312565592 0.00143019102256009 0.00114777418448605 0.000345063676024753 -0.00235064444597041
