"V1" "V2" "V4" "V5" "V7" "V8" "V10" "V11" "V13" "V14" "V15" "V17" "V18" "V20" "V21" "V23"
"1" 2.29212696860121e-05 0.000253066598222319 -1.32887791209747e-05 9.29070792768014e-05 4.16151057227371e-05 0.000116377925074525 0.000232230116428616 2.88487494231863e-05 0.000460603418412664 8.31979658672085e-05 0.000116157425076966 0.000264678088682764 0.00045337906204732 0.000284043255882218 0.000679040789274136 0.00207280327882114
"2" 6.45938238858172e-06 0.000243595012257225 -2.19479855563567e-05 8.78815046864731e-05 3.83091098513906e-05 0.000110316797129109 0.000229608913471215 1.62771833831647e-05 0.000460604567987119 8.13348707045359e-05 0.00011763301700875 0.000287119461424882 0.000441064103468366 0.000264886747189529 0.00064787410905101 0.00207442559791208
"3" -8.79830869965158e-06 0.000233416689895252 -2.97009356748009e-05 8.35658831743154e-05 3.55954649732103e-05 0.000105019855574583 0.000227469343641821 4.06047984784079e-06 0.00046019763380934 8.03664092467113e-05 0.000119102457356968 0.000305160391705961 0.000426409311571965 0.000248291675039794 0.00061787826654541 0.00207392670786189
"4" -2.26962964820266e-05 0.000222559495248697 -3.65534740012935e-05 8.00485657739605e-05 3.3464742136177e-05 0.000100516900611952 0.00022578908623274 -7.66241766232297e-06 0.000459247016481538 8.03507964995403e-05 0.000120536232845263 0.000318709901477532 0.000409526575355321 0.000234465342050093 0.000589353667007512 0.0020707048100519
"5" -3.50634369220353e-05 0.000211100627032063 -4.24996293141375e-05 7.74086868851178e-05 3.19340952055292e-05 9.68289114565388e-05 0.000224552395650123 -1.87449450072465e-05 0.000457637897339995 8.13293245782098e-05 0.000121911838990926 0.000327730743289256 0.000390535775611883 0.000223585878162581 0.000562589379339302 0.00206413874373901
"6" -4.5759993284957e-05 0.000199092071552011 -4.75597987398218e-05 7.5718469577544e-05 3.09808902377793e-05 9.39685590916904e-05 0.000223726929048116 -2.907015606303e-05 0.000455242489041995 8.33440693301259e-05 0.00012320332884968 0.000332204396639414 0.000369591638934124 0.000215798792741086 0.000537843518789098 0.00205368662606338
"7" -5.46573296613905e-05 0.000186593811170617 -5.17420687914165e-05 7.50552659877774e-05 3.06059638212044e-05 9.19471799461998e-05 0.000223298013595903 -3.85072369431478e-05 0.000451954087748831 8.6421184130968e-05 0.000124382692501875 0.000332183559795256 0.000346838850240341 0.000211206159935478 0.000515337949959001 0.00203878711575839
"8" -6.16336883350616e-05 0.000173689000374798 -5.50761517821824e-05 7.54707817550648e-05 3.07939292792599e-05 9.07651003699635e-05 0.000223236613623954 -4.69557503256389e-05 0.000447666669448565 9.05796158774222e-05 0.00012542767136296 0.000327729605039897 0.000322459026190813 0.00020990014912705 0.000495281621847107 0.00201898683708275
"9" -6.6588808336065e-05 0.000160466363597046 -5.75837196420895e-05 7.70244929506282e-05 3.15340166647579e-05 9.04140256889409e-05 0.000223529007091179 -5.43044573825525e-05 0.000442296578689927 9.583338621055e-05 0.000126307575426858 0.000318970423314901 0.000296629952900934 0.000211918258628036 0.000477839752184122 0.00199385850719311
"10" -6.94364785666096e-05 0.000146999074736365 -5.9303278644014e-05 7.9753063252117e-05 3.28003968079151e-05 9.0880433578491e-05 0.000224142431551792 -6.04832365538406e-05 0.000435748428362548 0.000102180960233691 0.000127002496813697 0.00030604572566163 0.000269548825659458 0.000217268483247279 0.000463142711616257 0.00196310443647335
"11" -7.01226296478964e-05 0.00013338003245203 -6.02694359053974e-05 8.36989827438917e-05 3.45771312373682e-05 9.21463665190582e-05 0.000225063185631328 -6.54106037309363e-05 0.000427969250787307 0.000109619103375935 0.000127485444030466 0.000289159094799199 0.000241407028021098 0.000225924182291071 0.000451298885823728 0.00192645754894086
"12" -6.85915187033652e-05 0.000119711338396798 -6.05327590794456e-05 8.88788250211661e-05 3.68317799313138e-05 9.41812786082674e-05 0.000226262924429481 -6.90375018638464e-05 0.000418897132998626 0.000118123632928382 0.000127738363234044 0.000268519496431071 0.000212420784930632 0.000237831172882983 0.00044236327635605 0.00188380968308894
"13" -6.48222811784192e-05 0.000106081455161281 -6.01341339189478e-05 9.53120792894048e-05 3.95431412901203e-05 9.69535710365457e-05 0.000227727933671855 -7.13154954026046e-05 0.000408504002725068 0.00012767548600367 0.000127738898331217 0.000244391346605688 0.000182775307259988 0.000252894829094441 0.000436369089609076 0.0018350663516904
"14" -5.88152139309105e-05 9.25813460617706e-05 -5.91241647635127e-05 0.000103003858448324 4.26796426959929e-05 0.000100427458155134 0.000229430980487231 -7.22168376272583e-05 0.000396760432545495 0.000138236754427966 0.000127467854058809 0.000217060164346635 0.000152684386785443 0.000270990640360384 0.000433306638741555 0.00178029657834144
"15" -5.05927299139176e-05 7.93063177561499e-05 -5.75603410075883e-05 0.000111949389169983 4.62102831439186e-05 0.000104554797538498 0.000231361559487898 -7.17250498498872e-05 0.000383664848249109 0.000149769287634813 0.000126910093569989 0.000186842493287625 0.000122340028657875 0.000291970916255216 0.000433138297939255 0.00171963423803311
"16" -4.01830006543587e-05 6.63646048005317e-05 -5.5498217192495e-05 0.000122126512153044 5.00968136036233e-05 0.000109285995868721 0.000233492315653398 -6.98489667758373e-05 0.00036922262128881 0.000162217104405178 0.000126055054038108 0.000154068152398343 9.1946228176164e-05 0.000315655524599071 0.00043579758784708 0.00165332073661151
"17" -2.76562860318968e-05 5.38258047880777e-05 -5.29947638514297e-05 0.000133514087080057 5.43072830611679e-05 0.0001145669175769 0.000235808570675318 -6.65964051196793e-05 0.000353458011364435 0.000175521717035371 0.000124883111662254 0.000119103539206876 6.16743714775434e-05 0.000341840748417408 0.000441176518101714 0.00158163385308223
"18" -1.30941891265907e-05 4.17845745595479e-05 -5.01069331902431e-05 0.000146073811105242 5.88076658231751e-05 0.000120340102083721 0.000238297634333242 -6.19946498848009e-05 0.000336411991230923 0.000189622975437454 0.000123388413301088 8.23317485428706e-05 3.1692671690017e-05 0.000370300776378989 0.000449141388931249 0.00150493095438454
"19" 3.40336138765312e-06 3.03179205715546e-05 -4.68988307009468e-05 0.000159749777977532 6.35539862872072e-05 0.000126541333608948 0.000240939748798938 -5.60939436686735e-05 0.000318131506317268 0.000204441229611822 0.000121565884872011 4.41329899929697e-05 2.17631269444357e-06 0.000400796947676391 0.000459545343718324 0.00142367527831367
"20" 2.17128219574879e-05 1.94987941686405e-05 -4.34323814094608e-05 0.00017448631872017 6.85141721876717e-05 0.000133104578154893 0.000243715886626929 -4.89530973111215e-05 0.000298679322603163 0.000219901860401706 0.000119410596357373 4.91366561559692e-06 -2.67325695403181e-05 0.000433069349621812 0.000472206162336312 0.00133832267688227
"21" 4.16979279386406e-05 9.39536370389224e-06 -3.97622222729106e-05 0.000190211141240818 7.36450171417826e-05 0.000139959985195415 0.000246613205739347 -4.06366104132318e-05 0.00027813483873752 0.000235917760198201 0.000116916677466855 -3.49187323654645e-05 -5.49036800780153e-05 0.000466842510244703 0.00048692249154419 0.00124935615767598
"22" 6.31971252730057e-05 6.23279335883861e-08 -3.5952685722265e-05 0.000206843214957665 7.89150644526713e-05 0.000147038618090741 0.000249619000722784 -3.12286731028479e-05 0.000256583783630583 0.000252400832962493 0.000114085129631145 -7.49445203858542e-05 -8.2220567943087e-05 0.00050183278860635 0.000503478990432326 0.0011572950918652
"23" 8.60532804346266e-05 -8.44727144263391e-06 -3.20571191398505e-05 0.000224290736643282 8.42860859976341e-05 0.000154266086589968 0.000252717233503841 -2.08190908258538e-05 0.000234117599252709 0.000269250228016081 0.000110917383151664 -0.000114757142573847 -0.000108585215375191 0.000537752523339841 0.000521642859706736 0.00106263488283119
"24" 0.000110063984470728 -1.6105632608328e-05 -2.81361404373675e-05 0.000242451932722449 8.97146600135439e-05 0.000161568385385941 0.000255891489416427 -9.51441668706128e-06 0.000210836094236317 0.000286374663345617 0.000107418309047391 -0.000153953312701249 -0.00013391804305392 0.000574301611375867 0.000541170744763675 0.000965885650940568
"25" 0.000135046326833228 -2.28746624081693e-05 -2.42411603202048e-05 0.00026121139254179 9.51696021081821e-05 0.000168869109423702 0.000259123140900428 2.56959092592524e-06 0.000186849534803209 0.00030366193134661 0.000103593650478035 -0.000192141907223785 -0.000158146172692602 0.000611190127249308 0.000561807687831778 0.000867537989254168
"26" 0.000160787002420123 -2.87423731717909e-05 -2.04250326572274e-05 0.000280461051228491 0.000100620195797584 0.00017609696421342 0.000262404710235554 1.53178379964463e-05 0.00016227437578764 0.000321016489453322 9.94463820308791e-05 -0.000228924424675559 -0.000181236692587813 0.000648114989134895 0.00058329045053679 0.000768008185658311
"27" 0.000187070178084126 -3.37064593269234e-05 -1.67348442403407e-05 0.000300068498827103 0.000106026018442395 0.000183177214635925 0.000265715573559971 2.85986891518323e-05 0.000137221901973343 0.000338326027933739 9.49916528035928e-05 -0.000263945430929716 -0.000203149411564366 0.00068477883748472 0.000605357419327313 0.000667742749409962
"28" 0.000213691490762509 -3.77460182440997e-05 -1.32154742669439e-05 0.000319900881183543 0.00011136271031707 0.000190035300327935 0.000269039609518448 4.22823180019393e-05 0.000111812277701462 0.000355477483337654 9.02384680298252e-05 -0.000296857866197962 -0.000223868011564875 0.000720901915577785 0.000627742281590069 0.000567128261437518
"29" 0.00024041572669859 -4.08973477345527e-05 -9.90524447567084e-06 0.000339827626193652 0.000116602027743433 0.000196605721525941 0.000272365813778536 5.62310104651142e-05 8.61715103865327e-05 0.000372366142892006 8.51974635438853e-05 -0.000327330591248317 -0.000243405741636439 0.000756194115503384 0.000650176439885255 0.000466465744067148
"30" 0.000267019142994869 -4.3169320555107e-05 -6.84507085965148e-06 0.000359705137169034 0.000121710140887118 0.000202817660031691 0.00027567291916975 7.03011246916368e-05 6.0420188300517e-05 0.000388879785069211 7.98822090620011e-05 -0.000355077435029582 -0.000261768108890726 0.000790388892218285 0.000672403413187923 0.000366078683439637
"31" 0.000293284852415587 -4.45908241084342e-05 -4.062935782645e-06 0.000379393561003924 0.000126672367045056 0.000208608172497212 0.000278946455836989 8.43597783383899e-05 3.4678256341545e-05 0.000404909008961613 7.43102669269384e-05 -0.000379827034886494 -0.000278984487860117 0.000823226052132721 0.000694162262239379 0.000266225044515012
"32" 0.00031899306898446 -4.51953441700504e-05 -1.58759787309308e-06 0.000398750722812794 0.000131465709105074 0.000213916847724602 0.000282166578429881 9.82570124888431e-05 9.06798370791678e-06 0.000420349023389801 6.8495894801318e-05 -0.000401350625878561 -0.000295099661510865 0.000854458870918982 0.000715204719566849 0.00016711114429572
"33" 0.000343918298485776 -4.50444911015549e-05 5.54964034786629e-07 0.000417638246740236 0.000136068264753707 0.000218690752291312 0.000285317306949226 0.000111859759941958 -1.62965586335138e-05 0.000435100775244756 6.24540308629651e-05 -0.000419444840984308 -0.000310161874599318 0.000883849351596977 0.000735289765019053 6.89315123474696e-05
"34" 0.000367866752902736 -4.4168741809033e-05 2.34667672402653e-06 0.000435915777606334 0.000140465516390606 0.000222878438728141 0.000288377219344272 0.000125026434636411 -4.12947950893692e-05 0.000449053088624626 5.62106215558512e-05 -0.000433956147767281 -0.000324220432519048 0.000911189620871973 0.000754194000392872 -2.81258693646545e-05
"35" 0.000390632720461552 -4.26252613468822e-05 3.77711100653827e-06 0.00045345039854423 0.000144649009931351 0.000226437484383033 0.000291333071261817 0.000137628965937732 -6.58176358451599e-05 0.000462116839071274 4.9777184567817e-05 -0.000444754095008219 -0.000337346475980264 0.000936275609350562 0.00077169418621647 -0.000123944690467974
"36" 0.000412030498232881 -4.04850009253867e-05 4.83544524014026e-06 0.000470121358190336 0.000148607964491577 0.000229328606246456 0.000294158123609906 0.000149541371778967 -8.97585202393089e-05 0.000474205157071624 4.31775222812609e-05 -0.000451759184805483 -0.000349614450643311 0.000958933627024937 0.000787595223809927 -0.000218400173069294
"37" 0.000431879585384609 -3.78000910105033e-05 5.51748458424331e-06 0.000485806929882385 0.000152334031558638 0.000231520292640045 0.000296837334550636 0.000160643031044971 -0.000113013200588771 0.000485231416974534 3.64312859392202e-05 -0.000454924597603443 -0.000361088076479999 0.000978999304758461 0.000801712538692393 -0.00031135699930854
"38" 0.000450032117801988 -3.46342801557361e-05 5.82595869275967e-06 0.000500401059898753 0.000155825325428232 0.000232989751011076 0.000299347228858153 0.000170820615554071 -0.000135485524921516 0.000495122168231127 2.95616265972113e-05 -0.000454254510071846 -0.000371851579555198 0.000996344537360847 0.000813877249765388 -0.000402732378974438
"39" 0.000466331832700361 -3.10580015423774e-05 5.76247573705914e-06 0.000513808343977978 0.000159083645145359 0.000233721157301621 0.000301672178521617 0.000179976502273817 -0.000157085969534182 0.000503808856338783 2.2590942172337e-05 -0.000449776192534603 -0.000381976203764902 0.00101084129988189 0.000823936155608396 -0.000492397538317488
"40" 0.000480649818138434 -2.71356951806884e-05 5.33980127387757e-06 0.000525948923565001 0.000162110137968912 0.000233708261482585 0.000303791446208075 0.00018802325762381 -0.00017772958234295 0.00051123344036849 1.55424558908929e-05 -0.00044156385043797 -0.000391537321117196 0.00102240368205809 0.000831766179514952 -0.00058024765557977
"41" 0.000492886240287267 -2.29239759960534e-05 4.5695727475778e-06 0.000536749646796266 0.00016491241953495 0.000232945469553649 0.000305682102540415 0.00019487910409667 -0.00019732955898946 0.000517351752785185 8.44026089799607e-06 -0.00042973891360359 -0.000400610803633651 0.00103096168562315 0.000837259762912395 -0.000666162685154834
"42" 0.000502937649599912 -1.84966821948622e-05 3.47154431434029e-06 0.000546160368400613 0.000167496562178136 0.000231445021829509 0.000307326024546211 0.000200471663652492 -0.000215828153996526 0.000522121414710977 1.30355881214444e-06 -0.000414444077417091 -0.000409263569169314 0.00103646485934774 0.000840324998693221 -0.000750000587020552
"43" 0.000510739109017129 -1.38987684755104e-05 2.06558676124729e-06 0.000554143977236787 0.000169876892740861 0.000229218173590498 0.000308709069558647 0.000204753895217874 -0.000233146669106163 0.000525517069562109 -5.83726604841345e-06 -0.000395862157576137 -0.000417564177547159 0.0010388918273542 0.000840901421215765 -0.000831624030820812
"44" 0.000516239119729667 -9.20103339853406e-06 3.74537917554057e-07 0.000560675258701348 0.000172061136541833 0.00022628441466144 0.00030980157562788 0.000207677016645266 -0.000249239000542494 0.000527527891349313 -1.29608848424936e-05 -0.00037421931807301 -0.000425567995616796 0.00103824085062988 0.00083894226765069 -0.000910848058623617
"45" 0.000519401977989017 -4.4482207812514e-06 -1.5690959232231e-06 0.000565757937107051 0.000174068323509087 0.000222680933986513 0.000310595346809526 0.000209217995958164 -0.000264051531048491 0.000528145894374378 -2.00437337740508e-05 -0.000349745471890607 -0.000433338800556382 0.00103453055213991 0.000834423350574893 -0.000987514221390569
"46" 0.000520218499070518 3.09194579586388e-07 -3.73930559392893e-06 0.000569402364807419 0.000175918198414031 0.000218438510696811 0.000311074148714637 0.000209366487703612 -0.000277542594800814 0.000527382041353144 -2.70636140753544e-05 -0.000322713831819136 -0.00044092488639392 0.00102780810320131 0.000827348353526303 -0.00106142523936234
"47" 0.000518695455062633 5.02792967985853e-06 -6.10239165336945e-06 0.00057163742025637 0.000177625259209458 0.000213602179725002 0.000311216129578502 0.000208113629655262 -0.000289682061494748 0.000525259009455348 -3.39945893085172e-05 -0.000293424754319378 -0.000448368191495999 0.00101813831617647 0.00081774304853645 -0.00113235795969418
"48" 0.00051486794763695 9.67171100560633e-06 -8.62614223556984e-06 0.000572507273149737 0.000179206924588595 0.000208217820357348 0.000311011327193755 0.000205474076271885 -0.000300445384476712 0.000521799522968609 -4.08123322278112e-05 -0.000262192883029315 -0.000455703941194427 0.00100561547769766 0.000805647227073678 -0.00120008160828185
"49" 0.00050877492534331 1.4196924216453e-05 -1.12737246028598e-05 0.000572082226688235 0.00018069430976581 0.000202340940244513 0.000310445100194324 0.000201477372631887 -0.000309815070179656 0.000517058620697064 -4.75010718589899e-05 -0.000229336947745174 -0.000462972122780358 0.000990331419379646 0.000791125138485332 -0.00126438892862587
"50" 0.00050049193291107 1.85877249366284e-05 -1.40088167685719e-05 0.000570429102887744 0.000182100344483516 0.000196027457343513 0.000309499344488308 0.000196152869032343 -0.000317786515447267 0.000511083973155004 -5.40326875623655e-05 -0.000195211914557386 -0.000470185342993366 0.000972423309196073 0.000774267814570515 -0.00132499901175638
"51" 0.000490100056836002 2.2812330036868e-05 -1.67931293497047e-05 0.00056764306395979 0.000183447484057131 0.000189342074227998 0.00030817116233781 0.000189556496609377 -0.000324361301086754 0.000503943286615872 -6.03912618092425e-05 -0.000160163111208419 -0.000477368018309484 0.000952036114340345 0.0007551843120076 -0.00138169343275242
"52" 0.000477701743105129 2.68544140581398e-05 -1.95905692699205e-05 0.00056382526454699 0.000184767254776301 0.000182349271680651 0.000306453293741571 0.000181746962558097 -0.000329549292120132 0.000495711854008998 -6.65551885295311e-05 -0.000124544423443403 -0.000484532487756673 0.000929321001055029 0.000733988674993099 -0.00143422805842212
"53" 0.000463416869732858 3.0698982943886e-05 -2.23631679034936e-05 0.000559086103474255 0.000186070237416024 0.000175114393632561 0.000304335379498972 0.000172796054552085 -0.000333369871629063 0.00048647271215881 -7.2509569696606e-05 -8.87169674462219e-05 -0.000491689456259558 0.000904455309601777 0.000710827987678088 -0.00148237628683289
"54" 0.000447378572500539 3.43364960510719e-05 -2.50805223598058e-05 0.000553546145082965 0.000187384379079384 0.000167702964830885 0.0003018104722598 0.000162782445730498 -0.000335853230257746 0.000476314184052199 -7.82371601288187e-05 -5.30391912513288e-05 -0.000498825387381845 0.000877626532756477 0.000685860299880383 -0.00152588272323875
"55" 0.000429733021104135 3.77663282096738e-05 -2.76992354652564e-05 0.000547329980006293 0.000188725325012034 0.000160187048996646 0.000298876145450522 0.000151790074810518 -0.000337039712953754 0.000465336795634201 -8.37221111354622e-05 -1.78615014314168e-05 -0.000505942486747532 0.000849029352237595 0.000659255744543417 -0.00156454581454143
"56" 0.000410636025254798 4.09795494028871e-05 -3.01914782728683e-05 0.000540569592756098 0.000190117320463701 0.000152629191246379 0.000295533227360011 0.00013991808313618 -0.000336970961697532 0.000453645132103422 -8.89517609438872e-05 1.64758911645548e-05 -0.000513029434819023 0.000818863790537545 0.000631198913017333 -0.00159817694905259
"57" 0.000390262594278887 4.39915247348351e-05 -3.25234934327339e-05 0.000533397422624726 0.000191574051687611 0.000145096251481074 0.000291783433185949 0.000127265171523582 -0.000335701587139786 0.000441345232515228 -9.39122350648421e-05 4.96427340544038e-05 -0.000520067260276993 0.000787348925337941 0.000601883366340661 -0.00162660745064658
"58" 0.000368780216108482 4.67914642951888e-05 -3.46675105360048e-05 0.000525951377126877 0.00019311430559548 0.000137653668564189 0.00028762235120555 0.000113931038918803 -0.000333300437498855 0.000428550877408579 -9.85952578758677e-05 8.13234398869448e-05 -0.000527033725596263 0.000754698975607482 0.00057151565064354 -0.00164968678503981
"59" 0.000346371577437572 4.93931072769921e-05 -3.65895460640516e-05 0.000518367340444296 0.000194749229697537 0.000130359045871225 0.000283063918299714 0.000100034137635489 -0.000329830161542067 0.000415378510968004 -0.000102997680628964 0.000111230462285271 -0.000533914372689245 0.000721125444114485 0.000540298820935541 -0.00166734218662136
"60" 0.000323226254466042 5.18079984836784e-05 -3.82739893868581e-05 0.000510771480217197 0.000196496775852619 0.000123271630734902 0.000278110091174894 8.5677514193338e-05 -0.000325373337267075 0.000401937844966511 -0.000107105315114285 0.000139081578009728 -0.000540673793221881 0.000686853164793683 0.000508450910722673 -0.00167947703076975
"61" 0.000299538793992335 5.40494048271758e-05 -3.96952255479455e-05 0.000503290995516163 0.000198357409005676 0.000116439411748269 0.000272765620940256 7.09743432636345e-05 -0.000320012983640604 0.000388341733655952 -0.000110918719129662 0.000164628465278959 -0.000547279571258917 0.000652097250826076 0.000476191373228485 -0.00168607471624467
"62" 0.000275491131175365 5.61246303153161e-05 -4.08383674194048e-05 0.000496047471828544 0.000200338950611329 0.000109910161882735 0.000267039533612738 5.60273369836436e-05 -0.000313843823473437 0.000374706949352374 -0.000114432935319608 0.000187643214209104 -0.000553697850941411 0.00061707289503011 0.00044373514735611 -0.00168713453544017
"63" 0.000251273271602819 5.80465562152292e-05 -4.16847808616001e-05 0.000489154870854364 0.000202441681752237 0.000103723027362311 0.00026094958956547 4.09507783373624e-05 -0.000306955785539515 0.000361140552487962 -0.000117644423713924 0.00020793287705874 -0.000559890609592182 0.000581986749033924 0.000411297726499185 -0.00168271299586597
"64" 0.000227082652420297 5.98442035432224e-05 -4.2222712429774e-05 0.000482717001121934 0.000204676569597794 9.79175771035449e-05 0.000254506586849813 2.5856847805945e-05 -0.000299450277159132 0.00034774624489505 -0.000120558227766513 0.000225337496230938 -0.000565822175100194 0.000547037680227507 0.000379089438052371 -0.00167292291533611
"65" 0.000203086047593575 6.15110591838942e-05 -4.24533560585489e-05 0.000476826040902804 0.000207024906977548 9.25154826497728e-05 0.00024771613674952 1.08314638364509e-05 -0.000291437794834322 0.000334625916717676 -0.000123171518895787 0.000239707264908123 -0.000571445596439447 0.000512427321382399 0.000347323499459987 -0.00165787024308902
"66" 0.000179464670832135 6.30781597225514e-05 -4.23612520231587e-05 0.000471568562845481 0.000209492044907304 8.75441115056943e-05 0.000240607844394863 -4.0104231240831e-06 -0.000283018126486186 0.000321870530692557 -0.000125488977143717 0.000250955409917014 -0.000576727193740102 0.0004783264214325 0.000316187783187354 -0.00163777659312821
"67" 0.000156380416032767 6.45470755392866e-05 -4.19556918911655e-05 0.000467017271193886 0.000212064524912173 8.30150200059699e-05 0.000233188392660903 -1.8583484004343e-05 -0.000274302441368742 0.000309573968002125 -0.000127517628345854 0.000259008320111255 -0.000581620266153491 0.000444910300804295 0.000285879202678041 -0.00161283692783759
"68" 0.000133994745823063 6.59401457544285e-05 -4.12351260623115e-05 0.000463229552327489 0.000214723689209142 7.89410291509423e-05 0.000225479483065595 -3.28000200976802e-05 -0.000265400108867675 0.000297807695951084 -0.000129258937927053 0.000263826309283938 -0.000586082254575033 0.000412339614442279 0.000256576939193899 -0.00158331457547914
"69" 0.000112444111498475 6.72667604036995e-05 -4.02078708491592e-05 0.000460258259733997 0.000217462943847175 7.53209015542673e-05 0.000217502759923208 -4.65782650732352e-05 -0.000256417744851056 0.000286649600874873 -0.00013072248054543 0.000265419289709044 -0.000590074657255468 0.000380751803284821 0.000228438237802553 -0.00154951590060436
"70" 9.18707373914884e-05 6.85431950341089e-05 -3.88875638688505e-05 0.000458130398589015 0.000220251186608653 7.21471134442855e-05 0.000209268845389449 -5.98514819963475e-05 -0.000247466484473876 0.000276154492236821 -0.000131914949048421 0.000263808583716147 -0.000593544858620031 0.000350283968093503 0.000201622901887584 -0.00151173549087117
"71" 7.23840924162032e-05 6.9775429590803e-05 -3.72920572722379e-05 0.000456869149288693 0.000223071345200651 6.94125835881597e-05 0.000200802988321046 -7.25539220543438e-05 -0.000238646531143206 0.000266378967005376 -0.000132842411810918 0.000259057556541972 -0.000596452757641297 0.000321049551657662 0.000176270188499995 -0.00147031001811999
"72" 5.40905049507798e-05 7.09813775317912e-05 -3.5433104593128e-05 0.00045648813112602 0.000225896521130046 6.70988864586587e-05 0.000192128966993872 -8.461860893368e-05 -0.000230054538598289 0.000257367230968518 -0.000133521469559645 0.000251277206004666 -0.000598767950905435 0.000293143963707163 0.000152491197160905 -0.00142563886628814
"73" 3.70797833146721e-05 7.21632803179401e-05 -3.33367821296385e-05 0.000456978303653594 0.000228693688361107 6.51769365338435e-05 0.000183263590935077 -9.60099908328671e-05 -0.000221792886371464 0.000249148683851424 -0.000133954086282308 0.000240584810659792 -0.000600441522263265 0.000266644909537939 0.00013039497133768 -0.00137806249796343
"74" 2.14187677715607e-05 7.33377647182611e-05 -3.10234766792671e-05 0.000458325217284744 0.00023143801143216 6.36273799181606e-05 0.000174233895496729 -0.000106675481515999 -0.000213935255411449 0.000241752566513657 -0.000134155228763889 0.000227143617535443 -0.000601441794043717 0.000241631780305953 0.000110072764301325 -0.00132798844122594
"75" 7.16342070133803e-06 7.45064147532893e-05 -2.85270115089163e-05 0.000460496737471562 0.000234089470552441 6.24069243803029e-05 0.000165051641438638 -0.000116592864731725 -0.000206574899877605 0.000235183303082039 -0.000134133103912299 0.000211132084965485 -0.000601725432687322 0.000218139811704797 9.15839578558184e-05 -0.00127577200501927
"76" -5.65060398528715e-06 7.56836742145796e-05 -2.58734460041832e-05 0.000463455299700021 0.000236621663094225 6.14818554088477e-05 0.00015574943302033 -0.000125732075974491 -0.00019977522614553 0.000229450354323276 -0.000133902904079022 0.000192767151968504 -0.00060126932977949 0.000196208046695639 7.49863605842519e-05 -0.00122182011970375
"77" -1.70026002390009e-05 7.68582707344404e-05 -2.30984277786362e-05 0.000467146588025359 0.000238983427519654 6.08072168381677e-05 0.000146340035695991 -0.000134081531861856 -0.000193602542035022 0.000224549664395875 -0.000133474379878355 0.000172271759721713 -0.000600041651183662 0.000175853913309638 6.03083986608239e-05 -0.0011664940006274
"78" -2.68915614693121e-05 7.8046614098738e-05 -2.02302283490878e-05 0.000471509544990385 0.000241146583389551 6.03396850886598e-05 0.000136850336919201 -0.000141630771198712 -0.000188104737953039 0.000220460450526737 -0.000132859461217428 0.000149906529447765 -0.000598019262881667 0.000157069217440997 4.75644887691413e-05 -0.00111016352842843
"79" -3.53222961589037e-05 7.92541704675843e-05 -1.73125600416934e-05 0.000476467697538198 0.000243065106757031 6.00265106488015e-05 0.000127297310352256 -0.000148383695997831 -0.000183329500590619 0.00021715764334042 -0.000132070886381516 0.000125925600792774 -0.000595171319838096 0.00013985496821171 3.67575293672534e-05 -0.0010531579245655
"80" -4.23340216439268e-05 8.04737983213625e-05 -1.43760179682919e-05 0.000481945409227071 0.000244705585531622 5.98153675255606e-05 0.000117706201578028 -0.000154344689102204 -0.000179301661480931 0.000214614969870999 -0.000131118467880401 0.000100626345961853 -0.000591490545196296 0.000124168339983859 2.78543391121462e-05 -0.000995819921554082
"81" -4.79633030920882e-05 8.17094363067459e-05 -1.14633567284543e-05 0.000487846109148363 0.000246018542553933 5.9656622236819e-05 0.000108086876055972 -0.00015953187327646 -0.000176046453052495 0.000212781570758239 -0.000130016951143104 7.42856622766619e-05 -0.00058695209142332 0.000109977987447236 2.08291234451938e-05 -0.00093842590515872
"82" -5.22731158767849e-05 8.29574522391136e-05 -8.60839316252783e-06 0.00049408039316988 0.000246971268873852 5.94932965488917e-05 9.84726893984966e-05 -0.000163957946421977 -0.000173567572394093 0.000211615061934431 -0.000128778504873772 4.72190792624925e-05 -0.000581557963673855 9.72203312772248e-05 1.56254884413553e-05 -0.000881291656455478
"83" -5.53344938529281e-05 8.42139813517693e-05 -5.85421901712073e-06 0.000500541793540289 0.000247523252772957 5.92752393270045e-05 8.88757659806313e-05 -0.00016765630794909 -0.000171869876456088 0.000211058312530355 -0.000127415530001372 1.97208604278926e-05 -0.000575299378227884 8.58363290293662e-05 1.21711862909662e-05 -0.000824657451063905
"84" -5.72343918436074e-05 8.54684897251449e-05 -3.23425732657826e-06 0.000507123184729578 0.00024763356244284 5.89428414864446e-05 7.93154637590818e-05 -0.000170657801703165 -0.000170935954371046 0.000211049562760737 -0.000125941367382967 -7.90115731503793e-06 -0.000568177880290077 7.57401191517755e-05 1.03880216433702e-05 -0.000768752450218564
"85" -5.80670466954032e-05 8.67192245515611e-05 -7.87316011822999e-07 0.000513714200041831 0.000247271293659096 5.84472071858697e-05 6.98085861773825e-05 -0.000172994685202636 -0.00017074566568281 0.000211521306599955 -0.000124365940896581 -3.53418676463144e-05 -0.000560203209228131 6.68548747249546e-05 1.01791265499554e-05 -0.000713798641492474
"86" -5.79328089726006e-05 8.7957169005332e-05 1.44600143469997e-06 0.000520198065336347 0.000246397898756407 5.77338523821504e-05 6.03746717131637e-05 -0.000174706915319026 -0.000171269303499346 0.00021239923741094 -0.000122701571048904 -6.23093897177742e-05 -0.000551381372219192 5.90823638704886e-05 1.14409506338061e-05 -0.000659965028795217
"87" -5.69450969948123e-05 8.91700675646365e-05 3.43630597615595e-06 0.000526456500587351 0.000244982743491409 5.67538032546622e-05 5.10239093825612e-05 -0.000175843689756714 -0.000172463419835702 0.000213609683249245 -0.000120958824985134 -8.85203429654517e-05 -0.000541720826819668 5.23310969269445e-05 1.40614824664073e-05 -0.000607393895425365
"88" -5.52260500013243e-05 9.03400865273143e-05 5.14680556311664e-06 0.000532375553034625 0.000242993651662214 5.54617038076341e-05 4.17749515981122e-05 -0.000176448890453957 -0.000174280592656235 0.000215072368208473 -0.000119151055544929 -0.000113691674347398 -0.000531253271769744 4.64835832631872e-05 1.79100914097811e-05 -0.000556260562510267
"89" -5.28987043837505e-05 9.14549042137678e-05 6.55047837179553e-06 0.000537839149083029 0.000240409373461965 5.38141997256031e-05 3.26387670814402e-05 -0.000176568557143264 -0.000176666960478634 0.00021670734253834 -0.000117289210936858 -0.000137566929812613 -0.000520001344189879 4.14437851948843e-05 2.28641408247687e-05 -0.000506675231708497
"90" -5.00870796616659e-05 9.24988043706357e-05 7.61812840009289e-06 0.00054273122164586 0.000237204925260808 5.17704780351667e-05 2.36357046912297e-05 -0.000176251789432557 -0.000179556045761449 0.000218435130939399 -0.00011538367199798 -0.000159899124501772 -0.000507993263673557 3.7093481759532e-05 2.87824249642349e-05 -0.000458742648720817
"91" -4.69251808626295e-05 9.34443206227916e-05 8.32053235123275e-06 0.000546939626018252 0.000233364561178322 4.9298726451366e-05 1.47735692161571e-05 -0.000175549654817653 -0.00018288845303355 0.000220171412754863 -0.000113444310209596 -0.000180465665929752 -0.000495263600319293 3.33250531584788e-05 3.55257120301656e-05 -0.000412553279674193
"92" -4.35375759396155e-05 9.42794702855475e-05 8.63936030392822e-06 0.000550360260454735 0.000228872378155196 4.63635184867977e-05 6.0629485838007e-06 -0.00017451083254955 -0.000186590314224936 0.000221837236168254 -0.000111480974091192 -0.000199064820287637 -0.000481852366063493 3.00252932872776e-05 4.29537753288447e-05 -0.000368192125852182
"93" -4.00547972687865e-05 9.49748988962354e-05 8.54958540896471e-06 0.000552883800273206 0.000223713614382668 4.29384943214586e-05 -2.48965157011867e-06 -0.00017319192985551 -0.000190593371515245 0.000223351891382519 -0.000109502520102308 -0.000215521807808509 -0.000467795494408918 2.70855434851948e-05 5.09210778661267e-05 -0.000325704259918056
"94" -3.65969123986032e-05 9.55115985237208e-05 8.03876846950495e-06 0.000554419610977782 0.00021789030853015 3.9008493595499e-05 -1.08669381252963e-05 -0.000171633328281295 -0.000194820883111516 0.000224639675184546 -0.000107518031056851 -0.000229683747131925 -0.000453146460629097 2.43993717249518e-05 5.92878216827226e-05 -0.000285173434796717
"95" -3.32833790438803e-05 9.58649182401049e-05 7.09586930248981e-06 0.000554878938345658 0.000211397148048611 3.45581230394871e-05 -1.90606823658972e-05 -0.000169882138831042 -0.000199192872521943 0.000225628793259273 -0.000105533745523907 -0.000241417971973523 -0.000437949920997951 2.18652602691449e-05 6.79133609768325e-05 -0.000246642952182062
"96" -3.02314089099269e-05 9.6005950283375e-05 5.71084340422874e-06 0.000554180224967509 0.000204240367591833 2.95747663705902e-05 -2.70634054078545e-05 -0.000167982175809064 -0.000203639713355487 0.000226251543428796 -0.000103563796324868 -0.000250627925420379 -0.000422267283603571 1.93812782180209e-05 7.66572440839869e-05 -0.000210181550551326
"97" -2.75494650839311e-05 9.59096904060658e-05 3.87556517069032e-06 0.000552250396083413 0.0001964246830126 2.40591623398806e-05 -3.48733318968292e-05 -0.000165981049647334 -0.000208088101701048 0.000226443906215022 -0.000101607529980271 -0.000257248344361347 -0.0004061415558352 1.68621445563282e-05 8.53932577318852e-05 -0.000175810152451299
"98" -2.5332088219409e-05 9.55537024127629e-05 1.5889859708925e-06 0.000549027358100675 0.000187962350226939 1.80108388372185e-05 -4.24826416205144e-05 -0.000163916106792898 -0.000212466055287632 0.000226152308840838 -9.96765889817874e-05 -0.000261239806371181 -0.000389636317805534 1.42228330950185e-05 9.39898036028535e-05 -0.000143588993196329
"99" -2.36683957632683e-05 9.4911229584044e-05 -1.14399214055394e-06 0.000544464282390328 0.000178881057489692 1.14433115376787e-05 -4.98820653503515e-05 -0.000161816416186322 -0.00021670256962745 0.000225320107765129 -9.77742788386147e-05 -0.000262574316927499 -0.000372815799419197 1.1378488476429e-05 0.000102328798957062 -0.000113571460586015
"100" -2.26447202034465e-05 9.39557626364833e-05 -4.31958283261351e-06 0.000538515796732164 0.000169191517378817 4.36671355027681e-06 -5.70677136043606e-05 -0.000159722151833231 -0.000220732939610231 0.000223911221311265 -9.59062759737977e-05 -0.000261279004023408 -0.000355739939291759 8.2685592384396e-06 0.000110301693807051 -8.58064790993772e-05
"101" -2.23256934522559e-05 9.26597665715907e-05 -7.9310392910144e-06 0.000531158247207608 0.000158922525906018 -3.19626239289257e-06 -6.4037064796022e-05 -0.000157656706168347 -0.00022449503819787 0.000221890692313541 -9.40762150407546e-05 -0.000257393074416029 -0.000338474642809697 4.82840568195471e-06 0.00011780516120223 -6.03392701785331e-05
"102" -2.27721326632911e-05 9.10085897302733e-05 -1.19614830883136e-05 0.000522371769192067 0.000148110077590322 -1.12224964867795e-05 -7.07899051995006e-05 -0.000155644819056357 -0.00022793208562899 0.000219225472984246 -9.22906668765674e-05 -0.000250980225787844 -0.000321083541930802 1.00748166824519e-06 0.000124744284198137 -3.72310157704545e-05
"103" -2.40260638764069e-05 8.89820690838434e-05 -1.63972426416476e-05 0.000512154498592956 0.000136787397240879 -1.96768593182851e-05 -7.73116524061114e-05 -0.000153709000737413 -0.000230996788462211 0.000215903768236662 -9.05493050476653e-05 -0.000242134902668416 -0.000303642646743519 -3.23409949707699e-06 0.000131040411630517 -1.65496973174491e-05
"104" -2.61287684721195e-05 8.65535854970229e-05 -2.12197301026822e-05 0.000500511722994513 0.00012498753715766 -2.8527386103593e-05 -8.36150829441884e-05 -0.000151863641542922 -0.000233641237227212 0.000211914376047125 -8.88579086979961e-05 -0.000230976126412451 -0.000286221612383987 -7.92797592454326e-06 0.000136618835336385 1.6405557972063e-06
"105" -2.90939194692997e-05 8.37153067579547e-05 -2.64098091987269e-05 0.000487459447354226 0.000112752406233631 -3.7733286390023e-05 -8.96954930234277e-05 -0.000150131680072801 -0.000235822458081597 0.000207254020125269 -8.72129601516072e-05 -0.000217649152079607 -0.000268884757091463 -1.30925606601011e-05 0.000141423591093374 1.72863512592727e-05
"106" -3.29380179605079e-05 8.04496411951001e-05 -3.19390036576563e-05 0.000473030152916478 0.000100133988832267 -4.72521916172418e-05 -9.55447265368321e-05 -0.000148509726416672 -0.000237513483096463 0.000201928188425658 -8.56234543843263e-05 -0.000202301867748191 -0.00025171307486001 -1.87484235312973e-05 0.000145400859198953 3.02930853298805e-05
"107" -3.76580325785341e-05 7.67533914876431e-05 -3.77803519143497e-05 0.000457267455580189 8.71738410033904e-05 -5.70323568849186e-05 -0.000101170481466881 -0.000147004798158537 -0.00023867857306491 0.000195952787569746 -8.40832998308521e-05 -0.000185110374086757 -0.000234780451762277 -2.48905640355549e-05 0.000148518113223092 4.05814136895676e-05
"108" -4.32446816228976e-05 7.260561412267e-05 -4.39097043800002e-05 0.000440220819961064 7.39202772347244e-05 -6.7029018804609e-05 -0.000106571205299441 -0.000145624967145585 -0.000239308155217917 0.000189355130399161 -8.25976613695711e-05 -0.000166276743484609 -0.00021816248368078 -3.1514913984515e-05 0.000150746297954625 4.80738967036965e-05
"109" -4.96684466912909e-05 6.80133816388956e-05 -5.02916377278065e-05 0.000421954458914549 6.04286440351346e-05 -7.7182478673507e-05 -0.000111746154699741 -0.00014436217801009 -0.000239377577009731 0.000182162425015538 -8.11637623708452e-05 -0.000145995673596605 -0.000201937254584405 -3.86063549282634e-05 0.000152071507577853 5.26699546214449e-05
"110" -5.69019850647791e-05 6.29709653027574e-05 -5.68962451262813e-05 0.000402535444044982 4.67467787194009e-05 -8.744655207066e-05 -0.00011670283917182 -0.000143219801060558 -0.000238884434007527 0.000174414392485445 -7.9780518849812e-05 -0.000124493123803858 -0.000186178015781114 -4.61320514167698e-05 0.000152497136458126 5.42905903299472e-05
"111" -6.48901496201822e-05 5.74913689374148e-05 -6.36908786283051e-05 0.000382045546383214 3.29332014412923e-05 -9.77600155691481e-05 -0.000121437863131936 -0.000142184401451043 -0.000237824703774216 0.000166154141064989 -7.84476781127625e-05 -0.000101988306382251 -0.000170965126603773 -5.40712425467196e-05 0.00015202208272063 5.28450820464313e-05
"112" -7.358953774967e-05 5.1569938903068e-05 -7.06413161469553e-05 0.000360567680467211 1.90355069181272e-05 -0.000108070711327739 -0.000125963973992537 -0.000141252546066315 -0.000236208261929019 0.000157432065391216 -7.71624958657228e-05 -7.87178162461623e-05 -0.000156372732957413 -6.23722403857105e-05 0.000150672022423371 4.82560811851639e-05
"113" -8.29343363869752e-05 4.52162891152926e-05 -7.77097802832637e-05 0.00033820131202177 5.11279744193433e-06 -0.000118316091286306 -0.000130273007393948 -0.000140410700512352 -0.000234041217524481 0.000148309487074341 -7.59252155647693e-05 -5.49095573324109e-05 -0.00014248406729538 -7.09949982925561e-05 0.000148472026407322 4.04111554463247e-05
"114" -9.28579226530543e-05 3.8454937379567e-05 -8.48650519467276e-05 0.000315036897102581 -8.78385644478952e-06 -0.00012844583587322 -0.000134380615876266 -0.000139645249543007 -0.000231341622377365 0.0001388385036531 -7.47321382622868e-05 -3.08029642624748e-05 -0.000129366739782335 -7.98839338239886e-05 0.000145458189691832 2.92560761006357e-05
"115" -0.000103284882953984 3.12873938999903e-05 -9.20703015448326e-05 0.000291181514550079 -2.25991460726334e-05 -0.000138402049823729 -0.000138282263209663 -0.000138940267649182 -0.000228129495351558 0.000129093785164566 -7.3584065134208e-05 -6.63133457785627e-06 -0.000117103732502649 -8.89890271363131e-05 0.00014167165066401 1.46961300292532e-05
"116" -0.000114129482698022 2.37560225861812e-05 -9.92890367954853e-05 0.000266735054055909 -3.6280010765002e-05 -0.000148131605508119 -0.000141988338057892 -0.000138283987369004 -0.000224432807288612 0.00011913618674841 -7.24742948382913e-05 1.73703497417886e-05 -0.000105755788978973 -9.82335993392165e-05 0.000137170009497269 -3.31705969970484e-06
"117" -0.000125312697185793 1.58631196850514e-05 -0.000106489323500709 0.000241804382917151 -4.97854585868883e-05 -0.000157588653352408 -0.000145509656749552 -0.000137664678477363 -0.000220283733935248 0.000109037418368952 -7.13988159220106e-05 4.09707386092816e-05 -9.53901565751045e-05 -0.000107559074001259 0.00013201152397081 -2.48080714386153e-05
"118" -0.000136746544063828 7.64339589374234e-06 -0.000113639448793702 0.000216500621083839 -6.30589927602625e-05 -0.000166717901099431 -0.000148844763642707 -0.000137060183742624 -0.000215722977090571 9.88701616234632e-05 -7.03623367797801e-05 6.39617846790488e-05 -8.60804921776125e-05 -0.000116902943664006 0.000126253580574805 -4.98452976129228e-05
"119" -0.000148332524436148 -8.68236921897692e-07 -0.000120703996394362 0.000190924202276332 -7.60569991753529e-05 -0.000175480161327746 -0.000152009388629792 -0.000136462061119573 -0.000210776492958396 8.87095990047442e-05 -6.9354366668673e-05 8.61246789957727e-05 -7.78770922684785e-05 -0.000126185419179764 0.000119973139353603 -7.84051761896956e-05
"120" -0.000159984588599143 -9.64296778822401e-06 -0.000127654045216695 0.000165182298546358 -8.87386184458224e-05 -0.00018383421636604 -0.000155012564217268 -0.000135856782704104 -0.000205503082363968 7.86202822874713e-05 -6.83728796940253e-05 0.000107264171110156 -7.08319783210551e-05 -0.00013534331260157 0.000113233695875977 -0.00011047424977176
"121" -0.000171617435855316 -1.8656665826149e-05 -0.000134460631596883 0.000139378940661997 -0.000101063711880868 -0.000191738161755411 -0.000157856411603333 -0.000135223597627147 -0.000199936473896086 6.86849063333851e-05 -6.74174640724932e-05 0.000127199205201261 -6.50045008333282e-05 -0.000144300833874272 0.000106112327613997 -0.000146033108570344
"122" -0.000183134588210674 -2.78604768813774e-05 -0.000141094537838929 0.000113613819860665 -0.000112991461599935 -0.000199162081222023 -0.000160549380108417 -0.000134550669169829 -0.000194127528529979 5.89664130526906e-05 -6.64850849109935e-05 0.000145762512491659 -6.04305964094073e-05 -0.000152999632393403 9.86751552966267e-05 -0.000185012833939877
"123" -0.000194445300292729 -3.72172786747168e-05 -0.000147532792470302 8.79786649165932e-05 -0.000124494792945293 -0.00020607525688359 -0.000163110447376792 -0.000133834575977868 -0.00018812513590201 4.95353323332964e-05 -6.55699059839686e-05 0.000162790783608299 -5.71357158098464e-05 -0.00016135846847321 9.10115658118097e-05 -0.000227282788880214
"124" -0.000205472526092684 -4.66949031074393e-05 -0.000153753949263599 6.25643360468836e-05 -0.000135544290703499 -0.000212457262703111 -0.00016554684716577 -0.000133066224795793 -0.000181978481512945 4.04568347418134e-05 -6.46708503196538e-05 0.000178155366238795 -5.51543380201124e-05 -0.000169324788282484 8.31834576618187e-05 -0.000272741439269803
"125" -0.0002161372354184 -5.62549994967154e-05 -0.000159732359383401 3.74632585770714e-05 -0.000146109971226624 -0.000218284811309378 -0.000167863946613666 -0.000132227542985808 -0.000175735375495698 3.17944148778879e-05 -6.37864878033943e-05 0.000191742240205813 -5.45124003976594e-05 -0.00017683160313458 7.52655561965047e-05 -0.000321243898632502
"126" -0.000226353763218071 -6.58463891512323e-05 -0.00016545100457363 1.27452054541112e-05 -0.000156173327482493 -0.00022354622717089 -0.000170080796720151 -0.000131322784812624 -0.000169451385643496 2.36019700553371e-05 -6.29110266373606e-05 0.0002034425210028 -5.5213252427342e-05 -0.000183827118238538 6.7327944571558e-05 -0.000372584418259144
"127" -0.000236066121664892 -7.54428493207159e-05 -0.000170895089987886 -1.15114749885451e-05 -0.00016571841248786 -0.000228231084884759 -0.000172207980910879 -0.000130345970154057 -0.000163170729459713 1.59341900009012e-05 -6.20424086709549e-05 0.000213181620202148 -5.7255249738397e-05 -0.00019025240670784 5.94354469644963e-05 -0.000426527444089491
"128" -0.000245200275663578 -8.49909921112137e-05 -0.000176051571344351 -3.52424539077197e-05 -0.000174728484634469 -0.000232333184256478 -0.000174249234153878 -0.000129292621243422 -0.00015693861531885 8.84240307998707e-06 -6.11804155404447e-05 0.00022090886331905 -6.06362258399047e-05 -0.000196070273929211 5.16467061075427e-05 -0.000482849463223936
"129" -0.000253705418359641 -9.44517590262066e-05 -0.000180906130716406 -5.83877223663395e-05 -0.000183196107987909 -0.000235854865803241 -0.000176227042204045 -0.00012816547592615 -0.000150803687088682 2.36184074661968e-06 -6.03241010108928e-05 0.000226579624480975 -6.53370038404349e-05 -0.000201240245232925 4.40199984708395e-05 -0.000541255257241073
"130" -0.000261534050167426 -0.000103790076487027 -0.000185451492591291 -8.08931952109898e-05 -0.000191113983369311 -0.000238798794723025 -0.000178146439962125 -0.000126962781187917 -0.000144805062093589 -3.46459323049209e-06 -5.94674737722756e-05 0.000230181226968392 -7.13312892702365e-05 -0.000205722901486533 3.66090004292103e-05 -0.000601442659234972
"131" -0.000268641956914772 -0.000112968498871315 -0.000189684238042853 -0.000102718250135204 -0.000198485026616538 -0.000241175989985766 -0.000180028694849982 -0.000125695738156537 -0.000138983892903494 -8.60705003205076e-06 -5.86097700347039e-05 0.000231708473753615 -7.85884433073676e-05 -0.000209490808989318 2.94515853073601e-05 -0.000663078586637211
"132" -0.000274999275360638 -0.000121943572338343 -0.000193597791790458 -0.000123822670263555 -0.000205309246053 -0.000242999739918417 -0.000181877086657914 -0.000124370762974172 -0.000133375699670374 -1.30441278070564e-05 -5.77514185600012e-05 0.000231186591049842 -8.70589827111046e-05 -0.00021252745260168 2.2592975182732e-05 -0.000725802188984796
"133" -0.000280586284665666 -0.000130690903171148 -0.000197189701519477 -0.00014417376150982 -0.000211598989275681 -0.000244287430103705 -0.000183711944636065 -0.000122988331170448 -0.000128014849013121 -1.67565981559467e-05 -5.68935918243119e-05 0.000228660216062881 -9.66969815449899e-05 -0.000214818529192954 1.6058208672862e-05 -0.000789256009971099
"134" -0.00028537575000847 -0.000139158899185057 -0.000200461305891001 -0.000163748429661104 -0.000217350281807174 -0.000245058375590376 -0.000185535342582627 -0.000121559391085856 -0.000122926701522171 -1.97328669453609e-05 -5.60346973083747e-05 0.000224196124389718 -0.000107444522038148 -0.000216360251590533 9.87124054096499e-06 -0.000853060369527065
"135" -0.000289373577036637 -0.00014733748739215 -0.000203415739886255 -0.000182528715821922 -0.000222586819323745 -0.000245336118757883 -0.000187366737086584 -0.000120096737298661 -0.000118131816748442 -2.19629991723897e-05 -5.51744200390622e-05 0.000217863076241068 -0.000119236824581989 -0.000217153615884982 4.05308742859527e-06 -0.000916817693068683
"136" -0.000292570754280928 -0.000155180894618103 -0.000206059084017782 -0.000200506066842554 -0.000227322447163313 -0.000245153641255416 -0.00018921431495395 -0.000118614935941855 -0.000113654510633564 -2.34586959452567e-05 -5.4310586684979e-05 0.000209754682289233 -0.000131984423586491 -0.000217206425477983 -1.38731076433796e-06 -0.000980099157138462
"137" -0.000294983139045956 -0.000162673048923656 -0.000208394453392561 -0.000217673908375047 -0.000231577734118672 -0.000244536403688241 -0.000191094808565537 -0.000117123311512175 -0.000109505453847254 -2.42200161144053e-05 -5.34473728835036e-05 0.000199979638585388 -0.000145623379907131 -0.000216530124124769 -6.45088655838033e-06 -0.0010425265171148
"138" -0.000296623072515978 -0.000169788419223661 -0.00021042991839693 -0.000234034847147828 -0.000235373752440033 -0.000243518783044867 -0.00019301429665494 -0.000115635631467639 -0.000105694484493799 -2.42605069726112e-05 -5.25848646291629e-05 0.000188660940422301 -0.000160058470782999 -0.000215153450470387 -1.11333420406725e-05 -0.001103679902189
"139" -0.000297518325917372 -0.000176502715004139 -0.00021217401121267 -0.000249589668726903 -0.000238725770832299 -0.00024213187534188 -0.000194979223369533 -0.00011415978228434 -0.00010222338918354 -2.35993333224285e-05 -5.17259917009045e-05 0.000175940431773316 -0.000175207408740033 -0.00021309934397447 -1.54532789191228e-05 -0.00116319835380154
"140" -0.00029769961406238 -0.000182811420918553 -0.000213642106962648 -0.000264355784232331 -0.000241671656569144 -0.000240414699846988 -0.000197004761401002 -0.000112722473218685 -9.91005399859814e-05 -2.22636790925895e-05 -5.08699441172283e-05 0.000161948800817502 -0.000190961434573474 -0.000210407119942325 -1.94269234736327e-05 -0.00122064487025607
"141" -0.000297199662391432 -0.000188687001824375 -0.000214840296778363 -0.000278344461303582 -0.000244227838397354 -0.00023840215202907 -0.000199093457200713 -0.000111326726293842 -9.63123391590124e-05 -2.02831583292712e-05 -5.00254278041044e-05 0.00014684808267435 -0.000207233818700365 -0.000207115039190825 -2.30755814733295e-05 -0.00127568675052942
"142" -0.000296064394403272 -0.000194128242496939 -0.000215782291413284 -0.000291575760760137 -0.000246424948502614 -0.000236130706027597 -0.000201255096036716 -0.000109987600309445 -9.38531184151298e-05 -1.76894628405987e-05 -4.91890664947378e-05 0.000130796919634583 -0.00022391326770979 -0.000203266865222343 -2.64225466580899e-05 -0.00132794074854331
"143" -0.000294338193887342 -0.000199124045771844 -0.000216484861821212 -0.000304077673734199 -0.000248298637728365 -0.000233643054954362 -0.000203502000919453 -0.000108727407016162 -9.17127711597818e-05 -1.4528122253747e-05 -4.83664709570472e-05 0.000113949872319839 -0.000240892154572818 -0.000198917094261874 -2.95070895781562e-05 -0.00137706019461324
"144" -0.000292072559290437 -0.000203675114058204 -0.000216953988969954 -0.000315868524937524 -0.000249865642749795 -0.000230968363378808 -0.000205826065901911 -0.000107544241898905 -8.98722256599415e-05 -1.08382674302623e-05 -4.75640484214708e-05 9.64889012698166e-05 -0.000258066397130874 -0.000194115368725791 -3.2364456397233e-05 -0.00142274714442764
"145" -0.000289325037590863 -0.000207775949439191 -0.000217207875297713 -0.000326981595095412 -0.000251165337557013 -0.000228150374406514 -0.000208245499778596 -0.000106463899731782 -8.83151356814558e-05 -6.66552497224255e-06 -4.67837177135096e-05 7.85715734212212e-05 -0.000275326384755368 -0.000188920720349966 -3.50376489800954e-05 -0.00146470372912769
"146" -0.000286151253136943 -0.000211435310104077 -0.00021725717582467 -0.000337446173414617 -0.000252216812796548 -0.000225219139464904 -0.000210749774854012 -0.000105481223434564 -8.70128631078546e-05 -2.06026519131343e-06 -4.60279630009703e-05 6.03806420478799e-05 -0.0002925609446243 -0.000183395434850379 -3.75674286568933e-05 -0.00150265274635013
"147" -0.000282612756518446 -0.000214659591877003 -0.000217119231348587 -0.000347294004133411 -0.000253057685442691 -0.000222212640953206 -0.00021334913091222 -0.000104618243587009 -8.59491587301915e-05 2.92822864931587e-06 -4.53026798236036e-05 4.20702347938697e-05 -0.000309656531507033 -0.000177595589979653 -3.99946353256376e-05 -0.00153635475730707
"148" -0.000278760396412603 -0.000217447328486226 -0.000216802803752336 -0.00035655899037771 -0.000253707890432827 -0.000219161859710242 -0.000216040118963905 -0.00010387417800332 -8.50902768800322e-05 8.2428462714787e-06 -4.46136370618361e-05 2.3810753677784e-05 -0.00032650891683064 -0.000171587025683071 -4.23681162071941e-05 -0.00156561132648996
"149" -0.000274667227686302 -0.000219829764038988 -0.000216319395996246 -0.000365272649790494 -0.000254196974793351 -0.000216099852277817 -0.000218821760592376 -0.000103258853197625 -8.44159756476409e-05 1.38340368055401e-05 -4.39639456313005e-05 5.76951772460833e-06 -0.000343009477550508 -0.00016544854030823 -4.47487509582454e-05 -0.00159024191422539
"150" -0.000270378643283696 -0.000221798181121901 -0.000215687121472453 -0.000373473894321201 -0.000254553358297991 -0.000213054428796412 -0.000221698354398824 -0.000102776190901818 -8.38950900812336e-05 1.96389698647844e-05 -4.33588327203295e-05 -1.19122613036442e-05 -0.000359041131808056 -0.000159227635788131 -4.71690073492843e-05 -0.00161007860027286
"151" -0.000265966219577844 -0.000223393206446728 -0.000214913545157288 -0.000381188120313625 -0.000254795653968469 -0.000210048916395457 -0.000224652595984769 -0.000102424658383738 -8.34980418508791e-05 2.56129495094952e-05 -4.28050594199126e-05 -2.90766227926293e-05 -0.000374512664721179 -0.000152997321442823 -4.96824910705313e-05 -0.00162503199417995
"152" -0.000261477778936472 -0.000224615274656776 -0.000214004834849274 -0.000388451820775517 -0.000254941775957896 -0.000207108634553951 -0.000227687923241881 -0.000102204761722756 -8.31908956999936e-05 3.16987033051717e-05 -4.23049713552334e-05 -4.55875329162831e-05 -0.000389321905119475 -0.000146817776502 -5.23352833879174e-05 -0.00163502206292615
"153" -0.000256962880424296 -0.000225489238156451 -0.000212972664912626 -0.00039529652234348 -0.000255014927704885 -0.000204255010636923 -0.000230794517151297 -0.000102110937310839 -8.29517165986027e-05 3.78391670970953e-05 -4.18632371609043e-05 -6.1313970498151e-05 -0.000403363637137374 -0.000140752178756175 -5.51714605063397e-05 -0.00163998908231624
"154" -0.000252485345430656 -0.000226043180651939 -0.000211829114851052 -0.000401752935547424 -0.000255038987327093 -0.000201504140547788 -0.000233970657893574 -0.000102149183509609 -8.27501060272724e-05 4.39881959366605e-05 -4.1484595155109e-05 -7.61442361573697e-05 -0.00041654449471882 -0.000134859555595851 -5.82345552720709e-05 -0.00163990722116253
"155" -0.000248079862950665 -0.000226291948039542 -0.000210576740295765 -0.000407848505001577 -0.00025502015900458 -0.000198872434177781 -0.000237201653811023 -0.000102308858447049 -8.25623523065514e-05 5.00906088378469e-05 -4.11730496301393e-05 -8.99613601546132e-05 -0.000428777614339941 -0.000129198839996099 -6.15613182952563e-05 -0.00163480935754319
"156" -0.00024379076936564 -0.000226259345874493 -0.000209225465533584 -0.000413610153424477 -0.00025497744853385 -0.00019637226508418 -0.000240481986368469 -0.000102583841747413 -8.23622874883389e-05 5.61046752257023e-05 -4.09322176386265e-05 -0.000102676453547792 -0.000439978491948474 -0.000123823679878181 -6.51881308237583e-05 -0.00162474341394739
"157" -0.000239661088292632 -0.000225980721098778 -0.000207776625974436 -0.000419057985199521 -0.000254920793636942 -0.000194009177475776 -0.000243797432597495 -0.000102958605123822 -8.21288880682068e-05 6.19869931883015e-05 -4.07673974889637e-05 -0.000114193550885604 -0.000450074801302279 -0.000118786945397348 -6.91523189410439e-05 -0.00160980957690629
"158" -0.000235721429621334 -0.000225475720043635 -0.000206233875771289 -0.000424213766342993 -0.000254852594715235 -0.000191789086439991 -0.000247133573074926 -0.000103427242144351 -8.18353942285492e-05 6.7695977091505e-05 -4.06813364879754e-05 -0.000124440702467872 -0.000458997177938801 -0.000114129396382863 -7.34781011341245e-05 -0.00159012990249852
"159" -0.000231995794949154 -0.000224761373862904 -0.000204605721118693 -0.000429101252511544 -0.000254788458921859 -0.0001897148955092 -0.000250486475328958 -0.00010397803114222 -8.14680846657503e-05 7.31915875564696e-05 -4.06745656117826e-05 -0.000133365639802715 -0.000466671660282783 -0.000109892096899829 -7.81844185910989e-05 -0.0015658201571414
"160" -0.000228507658480719 -0.000223866240232073 -0.000202887440756909 -0.000433729826164814 -0.000254727969726962 -0.000187785332217635 -0.000253836861742064 -0.000104592128849742 -8.10095579165868e-05 7.84434654212989e-05 -4.07479212203433e-05 -0.000140911114721677 -0.00047305009014363 -0.000106116068257106 -8.32928891898794e-05 -0.0015370900026655
"161" -0.000225273246034744 -0.000222815554122403 -0.000201082977083706 -0.000438114346973187 -0.000254670487662584 -0.000185995421413879 -0.000257173063367094 -0.000105259225563913 -8.0448444252559e-05 8.34227999652734e-05 -4.09061705189806e-05 -0.000147042873771331 -0.000478087869522202 -0.000102830517747562 -8.8821208254646e-05 -0.00150415976177854
"162" -0.000222307436269295 -0.000221630243282025 -0.000199191590826328 -0.00044226130208737 -0.000254615806021581 -0.000184336946333271 -0.000260476363694248 -0.000105955124429905 -7.97673204604415e-05 8.81055183988556e-05 -4.1150560888316e-05 -0.000151724933075513 -0.000481751936647694 -0.0001000630872741 -9.47758231001067e-05 -0.00146728476694861
"163" -0.000219612484510982 -0.000220339975786029 -0.000197214954166501 -0.000446183977079924 -0.000254571810013525 -0.000182808441653575 -0.000263743883593158 -0.000106676253284894 -7.89711448638597e-05 9.24704363601999e-05 -4.14751700207295e-05 -0.000154959711789661 -0.000484001818218372 -9.78357459073453e-05 -0.000101161297257961 -0.00142669787532566
"164" -0.000217191492327864 -0.000218951207404943 -0.000195147842393436 -0.000449879892406495 -0.00025452471506538 -0.000181389482112221 -0.000266949968675221 -0.000107389328623689 -7.80423814813463e-05 9.64984744609582e-05 -4.18871511060419e-05 -0.000156730180553877 -0.00048483030649136 -9.61570477780995e-05 -0.000107973343271178 -0.00138274095718601
"165" -0.000215040057103537 -0.000217497549307699 -0.00019299383416195 -0.000453352497601314 -0.000254474035204257 -0.000180072076737086 -0.000270089429692774 -0.000108087066500818 -7.69840440018225e-05 0.000100181165502292 -4.23800929064434e-05 -0.000157046590961505 -0.000484230437424165 -9.50470607790128e-05 -0.000115209488995623 -0.00133572476653589
"166" -0.00021314895424477 -0.000215985554087635 -0.00019074342345142 -0.000456598824959412 -0.000254409846545181 -0.000178836056497676 -0.000273137368804398 -0.000108740342938032 -7.57984587048238e-05 0.000103512633400163 -4.29590981250572e-05 -0.000155924912344197 -0.000482212131839392 -9.45044757806512e-05 -0.000122858718799858 -0.0012860314432614
"167" -0.000211502243382325 -0.000214436872946755 -0.00018840004740515 -0.000459614822271905 -0.000254331181894003 -0.000177667657527827 -0.000276092324760905 -0.000109338483553432 -7.44879832069236e-05 0.000106481771935524 -4.36134079099165e-05 -0.000153390397086918 -0.000478783811766691 -9.45301846115736e-05 -0.000130904460062876 -0.00123400674980037
"168" -0.000210089612730265 -0.000212869295017805 -0.000185959986014297 -0.000462394243127748 -0.000254223919241265 -0.000176547639850774 -0.000278934205089073 -0.000109858757538331 -7.3056268900375e-05 0.000109092380205638 -4.43464771445183e-05 -0.000149478136048928 -0.000473974169845362 -9.51172401600409e-05 -0.000139330158181849 -0.00118005685843636
"169" -0.000208880146947333 -0.000211284701912374 -0.000183417851615968 -0.000464930089999306 -0.000254076378083218 -0.000175453582606924 -0.00028165140081964 -0.000110282464712628 -7.15104224807488e-05 0.000111347474786028 -4.51484879700301e-05 -0.000144230734874905 -0.000467820814228746 -9.62536093867947e-05 -0.000148106036163738 -0.00112458472584188
"170" -0.00020785628800792 -0.000209709520979457 -0.000180775309422132 -0.000467210279682081 -0.000253891172110083 -0.000174370758029034 -0.000284240866015705 -0.000110595549445715 -6.98682544684946e-05 0.000113255239320622 -4.6021271603643e-05 -0.000137703809231507 -0.000460375803618255 -9.79181674880973e-05 -0.000157210203149295 -0.00106801314412026
"171" -0.000206989766504828 -0.000208142102786322 -0.000178023721442575 -0.000469220342187179 -0.000253640423438587 -0.000173275425466352 -0.000286677689006145 -0.000110775411947227 -6.81361926564164e-05 0.000114826369375681 -4.69610765032608e-05 -0.000129943422265354 -0.000451707963152285 -0.000100104636412982 -0.000166614103896802 -0.00101080407361744
"172" -0.000206244912847212 -0.00020658377524179 -0.00017516380099753 -0.000470950075461705 -0.000253327266315582 -0.000172144257713498 -0.00028896249874582 -0.000110805144272775 -6.63259891662823e-05 0.000116072360348959 -4.79571548549818e-05 -0.000121019215136295 -0.000441879620444312 -0.000102774352536108 -0.0001762778330969 -0.000953362778866535
"173" -0.000205598755397095 -0.000205054875277908 -0.000172195750252581 -0.000472385993313452 -0.000252935303575204 -0.000170959250583133 -0.000291084736744593 -0.000110673371524278 -6.44574657962359e-05 0.000117010802594026 -4.90082936417376e-05 -0.000111003291367257 -0.000430974600099713 -0.000105902258219287 -0.000186170721763309 -0.000896134740685842
"174" -0.000205013009844324 -0.000203548552130489 -0.000169115017470865 -0.000473515714070818 -0.000252458497535565 -0.000169701723610438 -0.000293038716166932 -0.000110363442558931 -6.25453555686139e-05 0.000117654186264314 -5.01063606209125e-05 -9.99701940953618e-05 -0.000419087153080178 -0.000109452098962223 -0.000196252467268671 -0.000839557841675771
"175" -0.000204456999671146 -0.000202070047185935 -0.000165923940051692 -0.00047431997751752 -0.000251886682261487 -0.000168351873576334 -0.000294820748726525 -0.000109865636679778 -6.06090541160834e-05 0.000118029731370479 -5.12421632661401e-05 -8.80001915684617e-05 -0.000406306742509623 -0.000113393613355802 -0.000206483322954644 -0.000784026379570932
"176" -0.000203900564700989 -0.000200623020823113 -0.000162619442446665 -0.000474785404828369 -0.000251206389649097 -0.000166887578523228 -0.000296421326270185 -0.000109162287249552 -5.86656445682534e-05 0.000118155139609038 -5.2415172562434e-05 -7.51686923529857e-05 -0.000392762120197456 -0.000117682184867472 -0.000216825157008463 -0.000730003854176567
"177" -0.00020330644757812 -0.000199204345292503 -0.000159207386882728 -0.000474902455654597 -0.000250419508170076 -0.000165297575103838 -0.000297844042786508 -0.000108253164433783 -5.67311289642543e-05 0.000118054070675958 -5.36129655759748e-05 -6.15791109094244e-05 -0.000378542329898429 -0.000122275759098135 -0.00022723317203725 -0.000677813162844634
"178" -0.000202643351383586 -0.000197804347121278 -0.0001556825410906 -0.000474657529953519 -0.000249510349830571 -0.000163562176699591 -0.000299082124087437 -0.00010712576501493 -5.48245279470923e-05 0.000117744441798968 -5.48312125654695e-05 -4.73114093218926e-05 -0.000363783680296042 -0.000127134300459117 -0.000237667969283787 -0.000627855703764513
"179" -0.000201874511766029 -0.000196421284727923 -0.000152049942674568 -0.000474035009692359 -0.000248473262958106 -0.00016166973997021 -0.00030013547327963 -0.000105765231612701 -5.29666874806199e-05 0.000117253323247092 -5.60603449907404e-05 -3.24587850999267e-05 -0.000348607610412843 -0.000132208730475575 -0.000248085299320515 -0.000580460687487596
"180" -0.000200982853767108 -0.000195060804365678 -0.000148317354207401 -0.000473028064129482 -0.00024730912592949 -0.000159609007709441 -0.00030101158906896 -0.000104178107702445 -5.11741229563057e-05 0.000116608097357757 -5.72938601723447e-05 -1.71230783209208e-05 -0.000333134634082277 -0.00013745671781959 -0.000258451287640967 -0.00053590707349708
"181" -0.000199937164631923 -0.000193709902900877 -0.000144488547325139 -0.000471631371651949 -0.000246013292989154 -0.000157370795680232 -0.000301715455898193 -0.000102362566297867 -4.94638147560561e-05 0.000115827257463368 -5.85245121091408e-05 -1.40085567062778e-06 -0.000317499192059785 -0.000142826789292755 -0.000268723339982959 -0.000494459851289179
"182" -0.000198710811966925 -0.000192360696680929 -0.000140561692059844 -0.000469831926447242 -0.000244576395218798 -0.000154943805768317 -0.000302239021369861 -0.000100307946158047 -4.78503562768199e-05 0.000114933260399747 -5.97436308053646e-05 1.4614312444609e-05 -0.000301833299465337 -0.000148272206755279 -0.000278857772696658 -0.000456349925519254
"183" -0.000197286118182951 -0.000191006136782124 -0.000136551729198388 -0.000467633059298144 -0.000243010904790262 -0.000152330710469445 -0.000302607023996949 -9.80267494787316e-05 -4.63554733220081e-05 0.000113947746788202 -6.09434981860165e-05 3.08084635699963e-05 -0.00028625967718833 -0.000153747532448951 -0.000288828144500236 -0.000421716441716764
"184" -0.000195644300791106 -0.000189637592871526 -0.00013246046898446 -0.000465030388520486 -0.000241302933625427 -0.000149523648887647 -0.000302812880537786 -9.55142634117288e-05 -4.49803116924328e-05 0.000112895139797152 -6.21201542313236e-05 4.70952409591407e-05 -0.000270915155198593 -0.000159205580716349 -0.00029859663644292 -0.000390723530565429
"185" -0.000193764474236938 -0.000188243940801164 -0.000128300865150549 -0.000462029199912732 -0.000239466252535312 -0.000146527168938145 -0.000302872264494834 -9.27795075003393e-05 -4.37471277083841e-05 0.000111785999247557 -6.32594482884818e-05 6.33607714936848e-05 -0.00025590467631723 -0.000164597912700237 -0.000308126548276107 -0.000363389390616721
"186" -0.00019164858096487 -0.000186829792371851 -0.000124078087368295 -0.000458627317535256 -0.000237496196263611 -0.000143339715371472 -0.000302790296369504 -8.98250279249541e-05 -4.26620060544313e-05 0.00011065174434187 -6.43637133388037e-05 7.95191049870808e-05 -0.000241372453280615 -0.00016988751973015 -0.000317400421967724 -0.000339800302268886
"187" -0.000189280810060257 -0.000185367784493164 -0.000119802744252538 -0.000454836918043063 -0.000235399691546241 -0.000139969816804799 -0.000302583021782112 -8.66614577689831e-05 -4.17305920495914e-05 0.000109493677973614 -6.54226540224994e-05 9.54603664102095e-05 -0.000227415842810691 -0.0001750213624207 -0.00032638098641177 -0.000319884668191734
"188" -0.000186661804580591 -0.000183862769580971 -0.00011548866632205 -0.000450667696786845 -0.000233184064392218 -0.000136425064972241 -0.00030226123104238 -8.33005328720682e-05 -4.09600448855523e-05 0.000108334237877231 -6.64258360481388e-05 0.000111085849581795 -0.000214144318795025 -0.00017996890620725 -0.000335052223471684 -0.000303574179525417
"189" -0.000183791452398304 -0.000182301025187868 -0.000111142352858075 -0.000446133511573737 -0.00023085546050161 -0.000132715271778692 -0.000301840006705629 -7.97519025020294e-05 -4.03575609754607e-05 0.000107183501526342 -6.73756140577961e-05 0.000126301806300527 -0.000201661291500568 -0.00018468834536261 -0.000343393400840414 -0.000290764114613129
"190" -0.000180681450546506 -0.000180678663356029 -0.000106776724189558 -0.000441248416704931 -0.000228419841059058 -0.000128853823903523 -0.000301326187068201 -7.60281073804939e-05 -3.99192975435562e-05 0.000106049472860619 -6.8260515544797e-05 0.000141017622977297 -0.000190061244726682 -0.000189144600709199 -0.000351389830861952 -0.000281284893574086
"191" -0.000177329135625994 -0.00017898181338825 -0.000102405816509256 -0.000436034131904681 -0.000225887855655964 -0.000124853725954676 -0.000300740263600474 -7.21451016380458e-05 -3.96496610560507e-05 0.000104938169766079 -6.90803322243356e-05 0.000155131184953367 -0.000179423738776093 -0.000193302889856859 -0.00035902620713149 -0.000274926902044006
"192" -0.000173749721773375 -0.000177202591660063 -9.80437407114677e-05 -0.000430513401985932 -0.000223270172899229 -0.000120738951931576 -0.000300099046260149 -6.81208404595943e-05 -3.95417999906148e-05 0.000103854316638756 -6.98286826765447e-05 0.000168556212730462 -0.000169817983873244 -0.000197130429935747 -0.000366291731080444 -0.000271435605944498
"193" -0.000169969114847913 -0.000175346764332505 -9.37012604813551e-05 -0.000424709685170725 -0.000220579274683925 -0.000116520064258702 -0.000299408739239993 -6.39692878628039e-05 -3.95913134177746e-05 0.000102804890852357 -7.05023535878242e-05 0.000181211854405938 -0.000161320129807459 -0.000200610311116304 -0.000373185080131815 -0.000270562061188348
"194" -0.000166003163820781 -0.000173398243298541 -8.93876016730389e-05 -0.000418646995130327 -0.000217815742905715 -0.000112221089683721 -0.000298690206243876 -5.97021118033619e-05 -3.97945602192766e-05 0.000101785122861281 -7.11035480276981e-05 0.00019302146242665 -0.000153977959206531 -0.000203719439260671 -0.0003797066528483 -0.000272009678558753
"195" -0.000161865984539653 -0.000171353632674152 -8.51186275588537e-05 -0.000412358736594792 -0.000215002722410396 -0.000107866663003394 -0.000297958904835507 -5.53449370006625e-05 -4.01355409634583e-05 0.000100791620801623 -7.1624246628287e-05 0.000203895278915149 -0.000147836963946412 -0.000206431369346862 -0.000385847295530207 -0.000275438635359102
"196" -0.000157593980952909 -0.000169216490286263 -8.09077810697301e-05 -0.0004058726409903 -0.000212142930874427 -0.000103474403825317 -0.000297221539089342 -5.09164685810119e-05 -4.06058440557437e-05 9.98273082812495e-05 -7.2068412935573e-05 0.00021377292393205 -0.000142933728973938 -0.000208739509161245 -0.000391624742052595 -0.000280542037262724
"197" -0.000153201248872209 -0.000166968737053133 -7.67665508622268e-05 -0.000399230337010926 -0.000209254138091923 -9.90760156946987e-05 -0.000296501337440166 -4.64385979589795e-05 -4.11948007749622e-05 9.8878315654041e-05 -7.24319282291945e-05 0.000222568555139649 -0.000139280881323739 -0.000210625580710143 -0.000397032133935267 -0.000286937033674807
"198" -0.000148735478818371 -0.000164630818248611 -7.27040129948554e-05 -0.000392455909858748 -0.000206343141057738 -9.46925365320602e-05 -0.000295806180494787 -4.19231882648698e-05 -4.18851379710085e-05 9.79424257207209e-05 -7.27171303390256e-05 0.000230240237412286 -0.000136906897399771 -0.000212087555461361 -0.000402092854013959 -0.000294311885118451
"199" -0.000144211758948167 -0.000162187137731231 -6.87332107611086e-05 -0.000385592517209832 -0.00020342229001989 -9.03479845772618e-05 -0.000295146772866816 -3.7394727369972e-05 -4.2657554015391e-05 9.70061262157174e-05 -7.29256807366651e-05 0.000236717299264429 -0.000135803170982591 -0.000213120914063701 -0.000406809918884883 -0.000302298745366942
"200" -0.000139664552636203 -0.000159639909657322 -6.48648737500668e-05 -0.000378676707392865 -0.000200502074442774 -8.60744538733404e-05 -0.000294537282266877 -3.28761574959281e-05 -4.35016757445652e-05 9.606343138645e-05 -7.3055556634579e-05 0.000241946223180117 -0.000135964730394522 -0.000213725496769259 -0.000411202778725721 -0.000310549460320778
"201" -0.000135135194520881 -0.000156998860729828 -6.11080810272266e-05 -0.000371743585080396 -0.000197594531153102 -8.18933258977871e-05 -0.000293989654463782 -2.83886688574632e-05 -4.43911688893752e-05 9.50996163335286e-05 -7.31142934830194e-05 0.000245883239434088 -0.000137374182292234 -0.000213911972876323 -0.000415293932412908 -0.000318746195101141
"202" -0.000130646821480083 -0.000154269166445919 -5.74743036243516e-05 -0.000364835471985116 -0.000194710498559464 -7.78354803645172e-05 -0.000293508362477818 -2.39551105930624e-05 -4.53135680029407e-05 9.41050512354318e-05 -7.31000096803512e-05 0.00024848270882554 -0.000140005798082279 -0.000213685123420773 -0.000419094152656513 -0.00032655565077732
"203" -0.000126235374312971 -0.000151444290230305 -5.39669519033195e-05 -0.000357987352497294 -0.000191852817023002 -7.39207862594436e-05 -0.000293101870228668 -1.95840147104489e-05 -4.62388726607106e-05 9.30680227991511e-05 -7.30192937672555e-05 0.000249715621924429 -0.00014382408076321 -0.000213060691311446 -0.000422631870086665 -0.000333697922873729
"204" -0.000121928804797954 -0.000148537105659231 -5.0596224521397e-05 -0.000351238751396374 -0.000189032010355297 -7.0178563905756e-05 -0.000292778040370514 -1.53095787591713e-05 -4.71521183860083e-05 9.19764122186576e-05 -7.28769059499503e-05 0.000249545973781735 -0.000148782112433686 -0.000212052905924102 -0.000425925803097087 -0.000339883430342484
"205" -0.000117763536891015 -0.000145562928360612 -4.73710652426981e-05 -0.000344628232108539 -0.000186264838574883 -6.66342517868643e-05 -0.000292544997914105 -1.11498318262391e-05 -4.80384307949551e-05 9.08145499793165e-05 -7.2675135556087e-05 0.000247944195175828 -0.000154819437053499 -0.000210690464826395 -0.000429006040559461 -0.000344833894601887
"206" -0.00011376345146965 -0.000142518997759934 -4.4292659890659e-05 -0.000338190107365435 -0.000183544750843891 -6.33088628907263e-05 -0.000292396000900976 -7.12128175972197e-06 -4.88707718999268e-05 8.95763329449563e-05 -7.24186885795059e-05 0.000244899424958045 -0.000161885364961946 -0.000208990853860589 -0.000431890604786884 -0.000348360754315184
"207" -0.000109958123958813 -0.000139425526075063 -4.13627671763336e-05 -0.000331957812249047 -0.000180883646666835 -6.02225350706195e-05 -0.00029233216852244 -3.243458978112e-06 -4.96242026723171e-05 8.82523515905978e-05 -7.21170421701931e-05 0.000240403441705469 -0.000169910512521769 -0.000206989390203389 -0.000434614129462016 -0.000350265970495194
"208" -0.000106361656250303 -0.000136281536176217 -3.85865221584814e-05 -0.000325967952644934 -0.000178281429440265 -5.73977848141555e-05 -0.000292359264090754 4.66894015877473e-07 -5.02838631974602e-05 8.68282782709454e-05 -7.17737035144138e-05 0.000234438809110139 -0.000178813470389041 -0.000204715358687675 -0.000437196065031378 -0.000350362429593078
"209" -0.000103005919004518 -0.000133110034914369 -3.5966852528373e-05 -0.000320254896302898 -0.000175748472427338 -5.48550282364624e-05 -0.000292472702751349 3.98088597578329e-06 -5.0829071251563e-05 8.5301024609234e-05 -7.1392620598614e-05 0.000227005686087263 -0.000188512445249328 -0.000202201977038711 -0.000439664306342179 -0.000348508748164497
"210" -9.99068963440849e-05 -0.000129922393211439 -3.3504364236066e-05 -0.00031484332138028 -0.000173280383441292 -5.26101211788152e-05 -0.000292668882878668 7.28788571837444e-06 -5.12465866313538e-05 8.36668452146062e-05 -7.09834063439198e-05 0.000218112713823924 -0.000198925797399641 -0.000199496384224752 -0.000442049565656129 -0.000344610485167749
"211" -9.70705675987647e-05 -0.000126729748561151 -3.11948714691098e-05 -0.000309760028772795 -0.000170886058749172 -5.06752369993402e-05 -0.000292937872740926 1.03716897826901e-05 -5.15111803094844e-05 8.1916171954963e-05 -7.05491522421937e-05 0.000207769179910922 -0.000209956878017788 -0.000196625500172017 -0.000444374604219682 -0.000338581434564994
"212" -9.45177220913932e-05 -0.000123548884140912 -2.9045097779585e-05 -0.000305034082645811 -0.000168559636931934 -4.90685019838832e-05 -0.000293281278865274 1.32111047560652e-05 -5.16133586075539e-05 8.00512231747583e-05 -7.00994260151472e-05 0.000195989144751243 -0.000221505436663071 -0.000193639848032547 -0.0004466629038365 -0.000330359924814916
"213" -9.22523558001111e-05 -0.000120395681407269 -2.70462037073999e-05 -0.000300682610555504 -0.000166306469398624 -4.77994451498498e-05 -0.000293678288244844 1.57892131668913e-05 -5.15382197772525e-05 7.80742664498735e-05 -6.96372028693589e-05 0.000182802681489411 -0.000233474842526569 -0.000190584429027171 -0.000448945101348587 -0.000319948972215135
"214" -9.02751974938931e-05 -0.000117285663577599 -2.51941147096214e-05 -0.000296722641052025 -0.000164117663556774 -4.68729464299432e-05 -0.000294124243704345 1.81028420323115e-05 -5.12723409048272e-05 7.59837243395323e-05 -6.91736553420845e-05 0.000168246175060197 -0.000245768277571112 -0.000187500219952459 -0.000451240367965498 -0.000307362826178714
"215" -8.85855449942518e-05 -0.000114231747463778 -2.34904334634445e-05 -0.000293169949988849 -0.000161997177047429 -4.62982202254226e-05 -0.000294611798973882 2.01240492137445e-05 -5.08102238526806e-05 7.37868087774027e-05 -6.87078830168728e-05 0.000152347408344973 -0.000258267725784613 -0.000184433017245863 -0.00045357354451139 -0.000292611680878444
"216" -8.71830484049248e-05 -0.000111258310090352 -2.19213735361383e-05 -0.000290033814570997 -0.000159942170232378 -4.6073519756421e-05 -0.000295118179596501 2.18505961356251e-05 -5.01422606028551e-05 7.14934831347764e-05 -6.82538555704397e-05 0.000135169392815528 -0.000270879662855667 -0.000181429646857971 -0.000455964394169619 -0.000275792559388234
"217" -8.60538357088925e-05 -0.000108376359054423 -2.04912293445657e-05 -0.000287324791738936 -0.000157950028199369 -4.6209464340993e-05 -0.000295642567400387 2.32553383556378e-05 -4.92632212360842e-05 6.91074737355596e-05 -6.78120673077435e-05 0.000116751781160648 -0.000283484816493274 -0.000178533423304263 -0.00045842886780815 -0.000256948194785903
"218" -8.51912370843677e-05 -0.000105604079879787 -1.91875140447967e-05 -0.000285038369123148 -0.00015601625771113 -4.66973627408922e-05 -0.000296157154999881 2.43447563310994e-05 -4.8174274232957e-05 6.66435110832496e-05 -6.73870701927517e-05 9.71739257637006e-05 -0.000295990284327589 -0.000175790983224775 -0.000460992461692482 -0.00023622908434313
"219" -8.4583608888028e-05 -0.000102965782938663 -1.80053245351095e-05 -0.000283181273024306 -0.00015414155153756 -4.75362460119268e-05 -0.000296654979969147 2.50940085463036e-05 -4.68727082903475e-05 6.41131033110045e-05 -6.69865615200705e-05 7.65003548507201e-05 -0.000308283512799132 -0.000173238085622275 -0.00046365768291076 -0.000213742743997187
"220" -8.42000252981527e-05 -0.000100463918541353 -1.69380913565535e-05 -0.000281743559545272 -0.000152315527604296 -4.87196275939292e-05 -0.000297121705289177 2.54962787630494e-05 -4.5367601943989e-05 6.15298389423852e-05 -6.66121739968823e-05 5.4818592251012e-05 -0.000320262081080522 -0.000170914244565984 -0.000466443957458178 -0.000189636211668924
"221" -8.40302798766792e-05 -9.81231719834154e-05 -1.59776887152537e-05 -0.000280719228573691 -0.000150541934257913 -5.02375354360348e-05 -0.0002975404251676 2.55496109565131e-05 -4.36603775217573e-05 5.89084096794586e-05 -6.62660613550928e-05 3.22215790302422e-05 -0.000331829813823909 -0.000168857249244716 -0.00046935883185105 -0.000164090104144739
"222" -8.40450271241819e-05 -9.5955212668374e-05 -1.51116622320049e-05 -0.000280087839527016 -0.000148805047190909 -5.20781230603007e-05 -0.000297893103468752 2.52468854183102e-05 -4.17614037500373e-05 5.62699645620131e-05 -6.59573604763386e-05 8.82209974014901e-06 -0.000342900251530133 -0.000167096657277309 -0.000472409790457788 -0.000137313400108356
"223" -8.4219681188163e-05 -9.39765018404646e-05 -1.43367459233921e-05 -0.000279841496253054 -0.000147114611233897 -5.42331314571397e-05 -0.000298169799918721 2.45740277381226e-05 -3.96837349736783e-05 5.36237712910268e-05 -6.56786530888355e-05 -1.5280261741664e-05 -0.00035337230169796 -0.000165659355228964 -0.000475597252694491 -0.000109466754104413
"224" -8.45314145455248e-05 -9.22051673505628e-05 -1.36436912426577e-05 -0.000279950377324102 -0.00014546212324174 -5.6682051731285e-05 -0.000298351741873375 2.35346772768671e-05 -3.74407101143323e-05 5.09927085713548e-05 -6.54397439672065e-05 -3.99503838817148e-05 -0.00036317362691477 -0.000164568692736273 -0.00047892759734779 -8.07951307147846e-05
"225" -8.49409109125911e-05 -9.06431885844031e-05 -1.3027446501188e-05 -0.000280398339145482 -0.000143842632736952 -5.94130942331641e-05 -0.000298429284852056 2.21150181176685e-05 -3.50529545793943e-05 4.83901981970683e-05 -6.5237470178078e-05 -6.50655376801136e-05 -0.000372218045420165 -0.000163844971615979 -0.000482395934378573 -5.15000134055912e-05
"226" -8.54260549712266e-05 -8.93084528637234e-05 -1.24713206479266e-05 -0.000281151149659241 -0.000142256616745792 -6.24012309256828e-05 -0.000298384911886697 2.03232953663734e-05 -3.25340261179635e-05 4.58381239655431e-05 -6.50721844305969e-05 -9.04776614617738e-05 -0.000380444139962396 -0.000163495815948779 -0.000485996037000729 -2.18285066114837e-05
"227" -8.5953788657586e-05 -8.82193084900043e-05 -1.19772285831721e-05 -0.000282185268871325 -0.000140706385083873 -6.56322433692869e-05 -0.000298218733866304 1.81466818030882e-05 -2.99148870208622e-05 4.33503987977506e-05 -6.49424814671652e-05 -0.000116048391037538 -0.000387787389532203 -0.000163529978849023 -0.000489720618158105 7.99503441938824e-06
"228" -8.64917692068879e-05 -8.7369788118639e-05 -1.15300691232795e-05 -0.00028346229687434 -0.000139181818985297 -6.90804902500861e-05 -0.000297906426863493 1.55959108364396e-05 -2.72077668261962e-05 4.0944500850168e-05 -6.48467312765304e-05 -0.000141615699105824 -0.000394196637067294 -0.000163952504159694 -0.000493566703175329 3.7720982830181e-05
"229" -8.70098351279704e-05 -8.67783117315644e-05 -1.11271749738451e-05 -0.000284948923163677 -0.000137687735596495 -7.2726529042314e-05 -0.00029744914683839 1.26658822901962e-05 -2.44447374231734e-05 3.86384245295234e-05 -6.47856857821062e-05 -0.000167020243607687 -0.000399628033714472 -0.000164759436113736 -0.000497515707776007 6.71155207033199e-05
"230" -8.74761600204181e-05 -8.64497649335204e-05 -1.07661533753646e-05 -0.000286615374362439 -0.000136233841198706 -7.6551617059069e-05 -0.000296839805662349 9.35329687036868e-06 -2.16512662286665e-05 3.64435352325318e-05 -6.47515599527815e-05 -0.000192114870525224 -0.000404037011163967 -0.00016593712122613 -0.000501558485966445 9.59700493947279e-05
"231" -8.78617733091824e-05 -8.6380127257806e-05 -1.04326909774589e-05 -0.000288417412866003 -0.000134806721330483 -8.05235394583873e-05 -0.000296069290649191 5.67230158688572e-06 -1.88489674560094e-05 3.43756226322219e-05 -6.47467277813354e-05 -0.000216724568986186 -0.000407409553999894 -0.000167474090782908 -0.000505671318096273 0.000124020928764678
"232" -8.81410546416738e-05 -8.65858744976766e-05 -1.01255287393981e-05 -0.000290318578181388 -0.000133417605066264 -8.46254725110858e-05 -0.000295135516723469 1.62237659506029e-06 -1.60643562011302e-05 3.24492097208331e-05 -6.47587343446312e-05 -0.000240683814949349 -0.000409718640676235 -0.000169355460469088 -0.000509845422140526 0.000151080342335776
"233" -8.82831904615329e-05 -8.70559746668476e-05 -9.84307909813153e-06 -0.000292287381688247 -0.000132074165639764 -8.88365814015088e-05 -0.000294040820393496 -2.79610988868047e-06 -1.3330477719344e-05 3.06741751731508e-05 -6.47901019048963e-05 -0.000263849197249082 -0.000410957525658782 -0.000171556613161773 -0.000514057639634917 0.000176945628872084
"234" -8.82729922419945e-05 -8.77999465602453e-05 -9.57754610184352e-06 -0.00029428164295183 -0.000130772098965491 -9.3130135860656e-05 -0.000292780728755914 -7.56966662313223e-06 -1.06657964002613e-05 2.90605281749559e-05 -6.48317024909226e-05 -0.000286052290640849 -0.000411128099031769 -0.000174050088612704 -0.000518287188040716 0.000201419119695414
"235" -8.8079064115997e-05 -8.8812380367331e-05 -9.32901700298199e-06 -0.000296269051292166 -0.000129525483660346 -9.74890967875788e-05 -0.000291358896946959 -1.26946998990938e-05 -8.09804161581519e-06 2.76235435386732e-05 -6.48803298716304e-05 -0.000307149801717293 -0.000410242049118206 -0.000176806929155303 -0.000522516918870144 0.000224336402633787
"236" -8.76895800036781e-05 -9.00912645264903e-05 -9.09764929298818e-06 -0.000298212253902008 -0.000128339540420371 -0.000101888624865884 -0.000289782264821428 -1.81575459148426e-05 -5.65194858150568e-06 2.63626699021191e-05 -6.49261222138916e-05 -0.000326996325895451 -0.000408311411154868 -0.000179797144991065 -0.000526720503127458 0.000245564718862859
"237" -8.70845850415444e-05 -9.16275803643812e-05 -8.88191359916226e-06 -0.000300086120654166 -0.00012722261222887 -0.000106314964497783 -0.000288059946375849 -2.39575043067539e-05 -3.343587596326e-06 2.52866202663226e-05 -6.49635630206136e-05 -0.000345467931713948 -0.000405364781812323 -0.000182982511407832 -0.000530880775283779 0.000264979645684181
"238" -8.62520415842168e-05 -9.34140569359761e-05 -8.67895495863635e-06 -0.000301853534965663 -0.000126182038420199 -0.00011074568579131 -0.000286188140514323 -3.00689501460788e-05 -1.19451816756504e-06 2.44023620291834e-05 -6.4988176356486e-05 -0.000362432647087377 -0.00040143704276253 -0.000186325497769306 -0.000534974045205199 0.000282472180883489
"239" -8.51852484233886e-05 -9.54502094944847e-05 -8.49888649236105e-06 -0.000303495331624354 -0.000125232851747211 -0.000115168027994069 -0.000284195044889884 -3.64964459186094e-05 7.76097661732108e-07 2.37113562346847e-05 -6.49886292478066e-05 -0.000377799708798196 -0.000396562603199396 -0.000189787192158975 -0.000538979515411826 0.000297995832632436
"240" -8.38811943465961e-05 -9.7721948085912e-05 -8.33666275633389e-06 -0.000304983768341405 -0.000124376982507733 -0.000119568928371293 -0.000282077926012239 -4.32135810842651e-05 2.55688433790689e-06 2.32120867113575e-05 -6.49627110539067e-05 -0.000391458598791659 -0.000390804059065694 -0.000193331241511673 -0.000542875971578637 0.000311469006455547
"241" -8.23344653519135e-05 -0.000100211685742044 -8.20140150323313e-06 -0.000306303639923995 -0.000123637452271008 -0.000123936507891808 -0.000279858868901963 -5.02153648312687e-05 4.13670225896414e-06 2.29026883547115e-05 -6.49011021663301e-05 -0.000403342920521198 -0.000384201358352234 -0.000196911728293408 -0.000546645500916968 0.0003229114658158
"242" -8.05514409444824e-05 -0.000102917717086005 -8.09041087109216e-06 -0.000307433073139414 -0.000123015497350058 -0.00012825869291818 -0.000277542934318084 -5.74786288827532e-05 5.50908055708658e-06 2.27862060466011e-05 -6.47985193997381e-05 -0.000413378686053733 -0.000376833928218865 -0.000200494813949947 -0.000550268226650139 0.000332290776086396
"243" -7.85308533454498e-05 -0.000105814381871699 -8.01541699529138e-06 -0.00030837073272675 -0.000122529678246155 -0.000132531391796364 -0.000275164573705888 -6.49927649883187e-05 6.67055818449316e-06 2.28501518321518e-05 -6.46415001780731e-05 -0.000421535731573204 -0.000368750702090072 -0.000204030111045767 -0.000553724073304511 0.000339687539220354
"244" -7.62951532025253e-05 -0.000108900250587061 -7.97890037105823e-06 -0.000309099623317842 -0.000122192500412119 -0.000136746033192476 -0.00027272689200658 -7.27376787432704e-05 7.61651279657558e-06 2.30906635256852e-05 -6.4431766681652e-05 -0.000427765141240473 -0.000360036821164917 -0.000207486044835499 -0.000556998389278716 0.00034512116863885
"245" -7.38453887142141e-05 -0.000112149352634942 -7.99211960274987e-06 -0.000309625577215919 -0.000122019054382392 -0.000140902759324756 -0.000270255342423401 -8.07009523495711e-05 8.35470908608479e-06 2.34934900990897e-05 -6.41580575566217e-05 -0.000432071229734795 -0.000350760090528358 -0.000210815791184611 -0.000560072016573085 0.000348705761504886
"246" -7.12122316295216e-05 -0.000115549768045123 -8.05424681472099e-06 -0.00030994224280667 -0.000122012287291026 -0.00014499709295681 -0.000267766411192628 -8.88570755762887e-05 8.89166740244221e-06 2.40497434592322e-05 -6.38168777336103e-05 -0.000434441643744493 -0.000341014115014502 -0.00021399114254243 -0.000562941179126975 0.000350493999710934
"247" -6.84055114558623e-05 -0.000119081199972132 -8.18074681989326e-06 -0.000310063606552311 -0.000122198443706994 -0.000149034228560181 -0.000265288208673494 -9.71974606980334e-05 9.23270351457603e-06 2.47431462371395e-05 -6.33964619915856e-05 -0.000434914883515497 -0.000330862490479832 -0.000216968403799028 -0.000565581856324487 0.000350671686096836
"248" -6.54601946522614e-05 -0.000122726543860304 -8.37408913173696e-06 -0.000309995538850326 -0.000122577874434772 -0.000153011847270493 -0.00026283903511892 -0.000105688413461494 9.3986999286644e-06 2.5557633847562e-05 -6.28974516866549e-05 -0.000433511859794246 -0.000320406690664601 -0.000219711482189702 -0.00056798410330526 0.000349327768316548
"249" -6.23994868188583e-05 -0.000126474195713862 -8.64802405525047e-06 -0.000309752629626717 -0.000123170899955067 -0.000156942805340598 -0.000260441819288441 -0.000114326828155825 9.39736318123703e-06 2.64746544732402e-05 -6.23139747386746e-05 -0.000430297999428813 -0.000309726969017462 -0.000222195732400854 -0.000570147629654021 0.00034663167376515
"250" -5.92492656359406e-05 -0.000130291990942013 -9.00394168236455e-06 -0.000309355796880358 -0.000123980961904649 -0.000160825608767501 -0.00025811732613613 -0.000123078822663526 9.25972472458386e-06 2.74690228576365e-05 -6.16382082940928e-05 -0.000425330937101059 -0.000298909187708735 -0.000224382219612932 -0.000572050402453012 0.000342743036228136
"251" -5.60483250048923e-05 -0.000134168399861174 -9.44926443147477e-06 -0.000308822550414626 -0.000125020586799246 -0.000164668959379679 -0.000255886847965776 -0.000131923103727407 9.00422841713992e-06 2.85186636690908e-05 -6.08698850863054e-05 -0.000418688810320814 -0.000288051939950668 -0.000226255396967695 -0.000573702555606246 0.000337799896238294
"252" -5.2831185235705e-05 -0.000138086357076553 -9.99870291046907e-06 -0.000308180147067136 -0.00012629785018377 -0.000168483762568482 -0.000253774640648002 -0.000140847047433597 8.6526598800694e-06 2.9597405214352e-05 -6.00066665613159e-05 -0.000410469638441708 -0.000277240078815387 -0.000227786849919756 -0.000575089927619304 0.000331979246799657
"253" -4.96350341267191e-05 -0.00014202746168668 -1.06554572411046e-05 -0.000307460324861852 -0.000127823433509064 -0.000172282701447018 -0.00025180244499422 -0.000149826560750912 8.2417893021737e-06 3.06823322753808e-05 -5.90424252256898e-05 -0.000400785075560256 -0.000266550260118466 -0.000228955983864156 -0.000576212108522 0.000325466962401458
"254" -4.64981878324621e-05 -0.000145972445084301 -1.14280064554383e-05 -0.000306691886258819 -0.000129604910183769 -0.000176077152223582 -0.000249998741333477 -0.000158845039503699 7.79203441992514e-06 3.17364274618697e-05 -5.79739039982587e-05 -0.000389748536315908 -0.000256069334227179 -0.000229743513719449 -0.000577060815724781 0.000318436802296991
"255" -4.34578690445104e-05 -0.000149902011735002 -1.23193074513402e-05 -0.000305903326314389 -0.000131640563532982 -0.000179870484446996 -0.000248365776114267 -0.000167868669018445 7.34427087895412e-06 3.2736873008481e-05 -5.68064642283718e-05 -0.000377471291369667 -0.0002458860024345 -0.000230143926237927 -0.000577650699144321 0.000311001209654773
"256" -4.05505748197264e-05 -0.000153800074338444 -1.33400987243939e-05 -0.000305137481675949 -0.000133935130041075 -0.000183684096978826 -0.000246935090066165 -0.000176887680144568 6.92750379064227e-06 3.36471209378476e-05 -5.55346833060977e-05 -0.000364101607429067 -0.000236068707099557 -0.000230142303606108 -0.000577970173074234 0.000303339424747769
"257" -3.78205591590485e-05 -0.000157649286963074 -1.44917010367306e-05 -0.000304426604822275 -0.000136491510176093 -0.000187523038043167 -0.000245721170381706 -0.000185876908689289 6.57424971014851e-06 3.44381266688195e-05 -5.41582075514966e-05 -0.000349767813428819 -0.000226695283073487 -0.000229732109664826 -0.000578028472760103 0.000295581039686506
"258" -3.52976371273096e-05 -0.000161435730756193 -1.57780166945965e-05 -0.000303806319028982 -0.000139308209253157 -0.000191402277336808 -0.000244739630830687 -0.000194814485259732 6.31994360315046e-06 3.50765880055178e-05 -5.26809988518156e-05 -0.000334616967941631 -0.000217832262711596 -0.000228919648207862 -0.000577825862088574 0.000287838014521813
"259" -3.30221495385868e-05 -0.000165138732921266 -1.72058856782668e-05 -0.000303315586606278 -0.000142385127094183 -0.000195333098083528 -0.000244000189261072 -0.000203683351716719 6.20138800225788e-06 3.55305434533026e-05 -5.11019631628893e-05 -0.000318793038888384 -0.000209541632389705 -0.000227701522478444 -0.000577373155618937 0.000280218521702783
"260" -3.10302277497044e-05 -0.000168753735684447 -1.87694411222525e-05 -0.000302985485199138 -0.000145706783297053 -0.000199318824317252 -0.000243513809536175 -0.000212453392813419 6.25344309549688e-06 3.57728526000355e-05 -4.94287803809493e-05 -0.000302432165972815 -0.000201888113833281 -0.000226091619429079 -0.000576673881963006 0.000272783938832398
"261" -2.93463765587246e-05 -0.000172254655733426 -2.04763946719217e-05 -0.000302860701702743 -0.000149280168593443 -0.000203376723596921 -0.00024329411048852 -0.000221115364162803 6.50622719313391e-06 3.57651739467406e-05 -4.76556992777684e-05 -0.00028570052248752 -0.000194905152990427 -0.000224094880859528 -0.000575737914070746 0.000265637676280973
"262" -2.80066565445542e-05 -0.000175641805911111 -2.23259555468432e-05 -0.000302966319926351 -0.000153089779980766 -0.000207508710887051 -0.000243344552206138 -0.00022964193062865 6.99300085619158e-06 3.54868661319348e-05 -4.57937838915656e-05 -0.000268727648009981 -0.000188645774637838 -0.000221731723783723 -0.000574571919849627 0.000258798006368719
"263" -2.70306798016617e-05 -0.000178894728776765 -2.43107811287361e-05 -0.00030333961745563 -0.000157123344599506 -0.000211723237858263 -0.000243668409187207 -0.000238020103748707 7.74507626100936e-06 3.49012075264162e-05 -4.38452835038041e-05 -0.000251664488196365 -0.000183140459310001 -0.000219022488120719 -0.000573186646398335 0.000252288917000321
"264" -2.64429899758279e-05 -0.000182006003924764 -2.64329219253522e-05 -0.00030400580394421 -0.000161368846491885 -0.000216022578611875 -0.000244264281126968 -0.000246227146217433 8.79126446755374e-06 3.39927450186802e-05 -4.18155773035965e-05 -0.000234647534663104 -0.000178418933879721 -0.000215983494639506 -0.000571586510349576 0.000246111237145895
"265" -2.62600052031925e-05 -0.000184965015289045 -2.8685986687476e-05 -0.000304993888614535 -0.000165815211989335 -0.000220408969087822 -0.000245136208256925 -0.000254243471592108 1.01550282753754e-05 3.27294474427189e-05 -3.97097231147272e-05 -0.000217809985240168 -0.000174490399895634 -0.000212650750488208 -0.000569792836622064 0.000240259217015143
"266" -2.64899365402316e-05 -0.000187765925532143 -3.10648484312092e-05 -0.000306321940579599 -0.00017044196415068 -0.000224881621901765 -0.00024627459285235 -0.000262056280126697 1.18552860312243e-05 3.10955644670327e-05 -3.75342848817998e-05 -0.000201277696263708 -0.000171372560083356 -0.000209058017469293 -0.000567814025675069 0.000234675559552345
"267" -2.71441953770081e-05 -0.000190395008130383 -3.35587675942078e-05 -0.000308008450887912 -0.000175229770522685 -0.000229436595400017 -0.000247673008373706 -0.00026964271822661 1.39201344914715e-05 2.90765267369533e-05 -3.52978166525221e-05 -0.000185168575017033 -0.000169065950988072 -0.000205226683657392 -0.000565656768083313 0.00022930311869558
"268" -2.82209538886179e-05 -0.000192847957645594 -3.61638211372255e-05 -0.000310065945468281 -0.000180160684766595 -0.000234068358460042 -0.000249315568492696 -0.000276986419100275 1.63582525516005e-05 2.66570633558684e-05 -3.30057193682201e-05 -0.000169591650784293 -0.000167552465647917 -0.000201204521505568 -0.000563338522100856 0.000224091990304793
"269" -2.9719759139078e-05 -0.000195120035202856 -3.88677929838661e-05 -0.000312503352182185 -0.000185209036519638 -0.000238769012025298 -0.000251196339102845 -0.000284072015978224 1.91845716555281e-05 2.38282576793332e-05 -3.06648564748435e-05 -0.000154653187025519 -0.000166823642834465 -0.000197025810820488 -0.000560867318423668 0.000218942710417649
"270" -3.16284737205244e-05 -0.000197201019346803 -4.165653891978e-05 -0.000315319077755738 -0.000190349474991144 -0.000243525073558522 -0.000253290392347403 -0.000290883836723736 2.24094587485507e-05 2.05883194782485e-05 -2.82855045146687e-05 -0.000140432486839631 -0.000166848078251347 -0.000192732859024706 -0.000558256995740082 0.000213760925020287
"271" -3.39378286261635e-05 -0.000199093867624146 -4.45236555734101e-05 -0.000318509911794762 -0.000195563912832427 -0.000248321006705305 -0.000255581506784532 -0.000297404661117085 2.60297201645933e-05 1.6934664034879e-05 -2.58741013004959e-05 -0.000127013757337057 -0.000167594522380894 -0.000188374095653778 -0.000555526549151756 0.000208437505203201
"272" -3.66278306308628e-05 -0.000200793366212019 -4.74525051834264e-05 -0.000322066568066125 -0.000200821267476649 -0.000253144118391738 -0.000258051447050466 -0.000303622901672493 3.00496535265551e-05 1.28749904911817e-05 -2.34421274847347e-05 -0.000114463629796762 -0.000169011440916059 -0.000183989504109089 -0.000552676954813785 0.000202891810506523
"273" -3.9660775407524e-05 -0.000202286326990069 -5.04285127315232e-05 -0.000325973100636636 -0.000206097039238215 -0.000257970693883094 -0.000260669488072062 -0.000309525240094175 3.44566837089682e-05 8.41240438101929e-06 -2.09983381495604e-05 -0.000102840313509007 -0.000171047513648716 -0.000179623532305356 -0.000549728160931495 0.00019699923771802
"274" -4.30201268461464e-05 -0.000203578083714316 -5.3434885742666e-05 -0.000330205452028229 -0.000211358805918925 -0.000262777900450538 -0.000263412871468944 -0.000315090339421006 3.9250768643135e-05 3.56725731785004e-06 -1.85486166018331e-05 -9.21794726113586e-05 -0.00017364982613422 -0.000175322826610778 -0.000546683811245568 0.000190643636651987
"275" -4.66591593816559e-05 -0.000204664877327768 -5.64573878070038e-05 -0.000334733885730429 -0.000216580609052205 -0.000267541831060845 -0.000266248076276226 -0.000320312774235973 4.44062611230534e-05 -1.64389473251624e-06 -1.61061728234101e-05 -8.25161641503583e-05 -0.000176744004346268 -0.000171133551235116 -0.000543561600708568 0.000183732641831617
"276" -5.05411160857152e-05 -0.000205542618679722 -5.94754017795387e-05 -0.000339521192546546 -0.000221734905438928 -0.000272231436771539 -0.000269145668077167 -0.00032517331026939 4.99058062961648e-05 -7.19803915386117e-06 -1.36796961429467e-05 -7.38585538931831e-05 -0.000180260512016855 -0.000167106621997995 -0.000540373346551678 0.000176163070353957
"277" -5.46155696660042e-05 -0.000206195010740354 -6.24720072817773e-05 -0.000344526560921846 -0.000226784906904612 -0.000276813094881021 -0.000272070865531319 -0.000329658926181454 5.57317911019445e-05 -1.30687340648229e-05 -1.12763867078362e-05 -6.62135780910878e-05 -0.000184112942586071 -0.000163268622728134 -0.000537117531916631 0.000167849542684765
"278" -5.88437436542874e-05 -0.000206650308608194 -6.54325188890987e-05 -0.000349701222652423 -0.000231712831378941 -0.000281259279231968 -0.000274994699402737 -0.000333766976969739 6.18438767320835e-05 -1.92158902218583e-05 -8.90722122285934e-06 -5.95744413565026e-05 -0.000188218296603457 -0.000159680856384025 -0.000533811197369727 0.000158719521922608
"279" -6.31543235900364e-05 -0.000206877181051972 -6.83304240727111e-05 -0.000354989661539069 -0.000236478735386092 -0.000285532349497308 -0.000277876077703466 -0.000337474358552668 6.82158719412836e-05 -2.56099737514957e-05 -6.57787202877604e-06 -5.39168136491196e-05 -0.000192493358401495 -0.00015636782514897 -0.000530458360856198 0.000148684249816083
"280" -6.75036878418504e-05 -0.000206886167236576 -7.11534031844761e-05 -0.000360334636111335 -0.000241061896197684 -0.000289594657606561 -0.000280683896794833 -0.000340776278225804 7.48103436478236e-05 -3.22044165593518e-05 -4.30196900598692e-06 -4.92105262671061e-05 -0.000196835741630417 -0.000153365080873835 -0.000527062278314103 0.000137715097100864
"281" -7.18247094429819e-05 -0.000206670777977419 -7.38722516365676e-05 -0.000365663329788464 -0.000245423892143846 -0.000293405215431603 -0.000283374776027648 -0.000343655002437336 8.15800062667629e-05 -3.89601087540811e-05 -2.08869259398457e-06 -4.53969543512871e-05 -0.000201159625350461 -0.000150711826809706 -0.000523633243734801 0.000125738660545757
"282" -7.6054177417903e-05 -0.000206223656310762 -7.64777915020541e-05 -0.000370916594434752 -0.00024954556732881 -0.000296926876447463 -0.000285919061300011 -0.000346104681952667 8.84842802967369e-05 -4.58248742549988e-05 5.98039267120888e-08 -4.24285215492852e-05 -0.000205356830636724 -0.000148431996755715 -0.000520172651687569 0.000112760990735335
"283" -8.01346671313803e-05 -0.000205550407604532 -7.89441331393591e-05 -0.00037601227200031 -0.000253398964550412 -0.000300115749487174 -0.000288279209550888 -0.000348113765856592 9.54713250773645e-05 -5.27476158611411e-05 2.12809959214007e-06 -4.02321608884039e-05 -0.000209336937797051 -0.000146548491777482 -0.000516679322085971 9.87557449089514e-05
"284" -8.40015432223977e-05 -0.000204647495398874 -8.12543117138451e-05 -0.000380870663403671 -0.000256955682888033 -0.000302932432097263 -0.000290419173041492 -0.000349671150836142 0.000102489231662617 -5.96752451901556e-05 4.11123995482651e-06 -3.87272018131178e-05 -0.000213006475873182 -0.000145085402242597 -0.000513161999604897 8.37205086050328e-05
"285" -8.75787304498955e-05 -0.000203497545186433 -8.33903142452121e-05 -0.000385420515571718 -0.000260195552897575 -0.000305338954010698 -0.000292304669294892 -0.000350770509531212 0.000109483853442727 -6.65573545725949e-05 6.00325224542388e-06 -3.78329929081188e-05 -0.000216260092645124 -0.000144050330503116 -0.000509614423540209 6.76956544800228e-05
"286" -9.08153970055977e-05 -0.000202107539733899 -8.53260024635238e-05 -0.000389569219963623 -0.000263090436603558 -0.00030728487843243 -0.000293901270820514 -0.000351396035927641 0.000116400891030685 -7.33302120565013e-05 7.79297131888523e-06 -3.74365324882477e-05 -0.000219019917159733 -0.000143453319580653 -0.000506037460224002 5.06771820523465e-05
"287" -9.36381423871921e-05 -0.000200466943678137 -8.70541075531262e-05 -0.000393237402781615 -0.000265628271402138 -0.000308737235367006 -0.000295179553268298 -0.000351543978280071 0.000123178293465583 -7.9940339404186e-05 9.47998092722195e-06 -3.74494650009125e-05 -0.000221179874845451 -0.000143297754934194 -0.000502427594011807 3.27530652939518e-05
"288" -9.59927563647011e-05 -0.000198571081616732 -8.85467758660258e-05 -0.000396335751597571 -0.00026778058039763 -0.000309649673733803 -0.000296106799997758 -0.000351197076460405 0.000129762714661461 -8.63279184611647e-05 1.1052019997212e-05 -3.7742999148017e-05 -0.000222677038243226 -0.000143578572971892 -0.000498782249826226 1.39297794575424e-05
"289" -9.78111615734289e-05 -0.000196413947718615 -8.97960011894113e-05 -0.000398782349828484 -0.000269533471876369 -0.000309990629570581 -0.00029665871346543 -0.000350357789842227 0.000136093544292897 -9.24354591261175e-05 1.25061671234388e-05 -3.82135534404457e-05 -0.000223421975563135 -0.000144289568456029 -0.000495102231549648 -5.689872509653e-06
"290" -9.90429338164594e-05 -0.000193989714122727 -9.07806953590611e-05 -0.000400489676755471 -0.000270872104877301 -0.000309720822281396 -0.000296806285194226 -0.000349007647471845 0.000142105779423603 -9.8204829054283e-05 1.38358961989558e-05 -3.87336344251566e-05 -0.000223350953490861 -0.000145415406833848 -0.000491372749568933 -2.60476203032261e-05
"291" -9.96370037224531e-05 -0.000191295316513314 -9.14937747873628e-05 -0.000401379067267533 -0.000271786186202666 -0.00030880760133182 -0.000296538729130594 -0.000347154326190258 0.000147738934143294 -0.000103581125893511 1.50366497008094e-05 -3.91889778797967e-05 -0.000222401617861167 -0.000146938388195572 -0.000487594602462937 -4.70605759851085e-05
"292" -9.95423669991632e-05 -0.000188316966091953 -9.19159374897667e-05 -0.000401365026458357 -0.000272259942037829 -0.00030721548640628 -0.000295820335428086 -0.000344775195091 0.000152947566272275 -0.000108510061375238 1.61054599458738e-05 -3.94446962355679e-05 -0.000220524385833215 -0.000148828512990634 -0.000483760845726521 -6.86459497041177e-05
"293" -9.87184320451484e-05 -0.000185055751210848 -9.20386604576266e-05 -0.000400375000020435 -0.000272290891705511 -0.000304920783367368 -0.000294648052175539 -0.00034187267274743 0.000157661586371764 -0.000112934422943913 1.70372076747699e-05 -3.93849082909356e-05 -0.00021767313016929 -0.000151060978848457 -0.000479860887279483 -9.07121092182939e-05
"294" -9.71256050769833e-05 -0.000181498441085679 -9.18489502544758e-05 -0.000398336292961667 -0.000271865688922298 -0.000301900855556806 -0.000293004360854546 -0.000338442518047061 0.000161838668497938 -0.000116809391742518 1.78277484614333e-05 -3.88815893552427e-05 -0.000213821840772207 -0.000153598229687132 -0.000475891566631625 -0.000113177034944035
"295" -9.47338899635577e-05 -0.000177646247418226 -9.13430057526626e-05 -0.000395180898250198 -0.00027099018170052 -0.000298131057887986 -0.000290880648552427 -0.0003344780342037 0.000165423761294747 -0.000120086532459478 1.84764459280856e-05 -3.78200221342301e-05 -0.000208944912569399 -0.000156405224891171 -0.00047184381255287 -0.000135947735118123
"296" -9.15138770461927e-05 -0.000173480809961391 -9.05103151136426e-05 -0.000390850951431018 -0.000269661204611293 -0.000293597915843591 -0.00028827349596881 -0.000329981467724962 0.000168367841178928 -0.000122723132826708 1.8980249059256e-05 -3.60865793821093e-05 -0.000203027911830019 -0.000159432719142908 -0.000467709633809206 -0.000158925501496487
"297" -8.74514024125647e-05 -0.000169009927435239 -8.93483549440983e-05 -0.000385284498278583 -0.000267871347652889 -0.000288287854722151 -0.000285177656477592 -0.000324941170484593 0.000170636850366304 -0.000124677163016145 1.93378300003332e-05 -3.3563928888316e-05 -0.000196088863588402 -0.000162642260513455 -0.000463484428743552 -0.000182068700638721
"298" -8.25354440201105e-05 -0.000164226885020433 -8.78540324526146e-05 -0.000378443044501363 -0.000265634951868021 -0.00028219645507657 -0.000281598889093949 -0.000319368631756082 0.000172186091803693 -0.000125916524523913 1.95474902032749e-05 -3.01586806922609e-05 -0.000188124371213813 -0.000165981715778793 -0.000459160735907993 -0.000205263497794003
"299" -7.67579461939663e-05 -0.000159115687248303 -8.60262674607306e-05 -0.000370283705533333 -0.000262958560289044 -0.000275324379068374 -0.000277541803118889 -0.000313257054991156 0.000172985371489866 -0.000126411013349149 1.9610962674376e-05 -2.57763759054294e-05 -0.000179166177927066 -0.00016940198709877 -0.000454735184580807 -0.000228451005772095
"300" -7.01250137303978e-05 -0.000153687421524206 -8.38626130454095e-05 -0.000360776464289607 -0.000259844902609739 -0.000267670267487246 -0.000273011602081513 -0.000306612020451587 0.000173016682233478 -0.000126134811864698 1.95249461205465e-05 -2.03307164520836e-05 -0.000169258934552088 -0.000172853476643152 -0.000450198765152571 -0.000251590063575947
"301" -6.26414590296331e-05 -0.000147926817100293 -8.13688143025904e-05 -0.000349901880679776 -0.000256311428982609 -0.000259249523997405 -0.000268031254378959 -0.00029943661303664 0.000172248882844925 -0.000125066746609059 1.92921439003651e-05 -1.37557267144996e-05 -0.000158436706683864 -0.000176281404999113 -0.000445548690491697 -0.000274603068285105
"302" -5.43360743881487e-05 -0.000141844235746016 -7.85484246543019e-05 -0.000337649843889904 -0.000252369974046689 -0.000250074270369167 -0.000262610145286904 -0.000291739120192514 0.000170674262757205 -0.000123195052479236 1.89138230335976e-05 -5.98715075674717e-06 -0.000146773376291803 -0.000179636762198273 -0.000440787123161322 -0.000297480539255275
"303" -4.52242679148122e-05 -0.000135435370707123 -7.54118251569689e-05 -0.000324021305629665 -0.00024804345635437 -0.000240169725459113 -0.000256772189359914 -0.00028352822025234 0.000168285426581371 -0.000120511430446227 1.83930583438488e-05 3.01771504418913e-06 -0.000134329332059456 -0.000182869580927728 -0.000435907268966548 -0.000320160164116902
"304" -3.53473630154249e-05 -0.000128702022062726 -7.1960214697419e-05 -0.00030901869282344 -0.000243338970330654 -0.000229556594110983 -0.000250537769904332 -0.000274806884919603 0.000165085635351423 -0.000117009215229603 1.77284595036118e-05 1.33030377834658e-05 -0.000121197284431729 -0.000185931291425248 -0.000430920300700354 -0.000342669570434552
"305" -2.47431532728643e-05 -0.000121649424447332 -6.82075048920555e-05 -0.00029266873917523 -0.000238285239850199 -0.00021827313642722 -0.000243934707420775 -0.000265591985436798 0.000161082600009084 -0.000112696245670474 1.69250445291735e-05 2.48795306969365e-05 -0.000107458987824462 -0.000188770245265729 -0.000425817675446134 -0.000364978869061236
"306" -1.34582699263755e-05 -0.000114284792659614 -6.41649258003218e-05 -0.000274999095316607 -0.000232901379210932 -0.00020635217459151 -0.000236993913761625 -0.000255895714992772 0.000156289368653317 -0.000107578935785626 1.59886024534032e-05 3.77604536296309e-05 -9.32156748301385e-05 -0.000191345514428223 -0.000420607115169181 -0.000387109798652577
"307" -1.55118067005078e-06 -0.000106613973441777 -5.98476185930236e-05 -0.000256053426131237 -0.000227215969794238 -0.000193840104308354 -0.000229747115874909 -0.000245731072843626 0.000150730135395224 -0.000101674067594112 1.49182144816588e-05 5.19303787929893e-05 -7.85753147852565e-05 -0.000193613266634493 -0.00041529124281122 -0.000409081439135651
"308" 1.09231110367305e-05 -9.86474307189464e-05 -5.52716631048175e-05 -0.000235883635492736 -0.000221252989025836 -0.000180788576951758 -0.000222230251596507 -0.000235122198936073 0.000144432070940121 -9.50050531408715e-05 1.37209937320957e-05 6.73684848409876e-05 -6.36490382907902e-05 -0.00019554204378003 -0.000409887949916154 -0.000430938510376427
"309" 2.39010682618689e-05 -9.03894697716696e-05 -5.04503463396879e-05 -0.000214552672267731 -0.000215040849597617 -0.00016724518341595 -0.0002144770030994 -0.000224078376940482 0.000137432553935487 -8.76013359272815e-05 1.240364830734e-05 8.4038454404406e-05 -4.85542498305363e-05 -0.000197092727251541 -0.000404398058468424 -0.000452725893192726
"310" 3.73009925394583e-05 -8.18722153931611e-05 -4.54071194515541e-05 -0.000192132110882862 -0.000208608530036475 -0.000153274766926179 -0.000206527629481088 -0.000212632970855032 0.000129773353149702 -7.94948823329148e-05 1.0965841503108e-05 0.000101882812231726 -3.34181016622949e-05 -0.000198248236246594 -0.000398834565193348 -0.000474510948442497
"311" 5.10513842742755e-05 -7.30984256495908e-05 -4.01580091306508e-05 -0.000168708650565516 -0.00020199036997007 -0.000138935618208934 -0.000198426571746069 -0.0002008032419108 0.000121506156018887 -7.07267260096372e-05 9.41991934683886e-06 0.000120834330645263 -1.83601973969972e-05 -0.000198970707969726 -0.000393206687222183 -0.000496358181821417
"312" 6.50723166099426e-05 -6.40924975765269e-05 -3.47237653553086e-05 -0.000144369338388958 -0.000195208890698909 -0.000124294035200719 -0.000190204323336319 -0.000188612303257433 0.000112682366825556 -6.13419754751214e-05 7.76746162388572e-06 0.000140817080837622 -3.5138065892672e-06 -0.000199256390828534 -0.000387538752203465 -0.000518358741900702
"313" 7.92804716662068e-05 -5.48810641378735e-05 -2.91316893033438e-05 -0.000119221677044559 -0.000188305516204568 -0.000109424823658616 -0.000181915289688124 -0.000176094964243174 0.000103359615670332 -5.13955762267926e-05 6.0171914087784e-06 0.0001617275490966 1.10006543111206e-05 -0.000199091986296937 -0.000381834226550825 -0.000540579586110199
"314" 9.35871520075745e-05 -4.54769058625074e-05 -2.33981594148364e-05 -9.33699302461513e-05 -0.000181308036418679 -9.43932781925523e-05 -0.000173589893756857 -0.00016327107442741 9.36136627380006e-05 -4.09409310909171e-05 4.17541807306842e-06 0.000183466176174355 2.5055391180377e-05 -0.000198466235830615 -0.000376117602431623 -0.000563121085729286
"315" 0.000107906970040983 -3.59198374010737e-05 -1.75552179401805e-05 -6.69370001182577e-05 -0.000174252251777394 -7.92813484193948e-05 -0.000165280200056675 -0.00015018064398821 8.3496300615114e-05 -3.00440350005213e-05 2.24678077000528e-06 0.000205905405553424 3.8530525299643e-05 -0.000197395033397105 -0.000370407671918343 -0.00058607863722638
"316" 0.000122149151387571 -2.6229883314348e-05 -1.16195570981438e-05 -4.00410906583779e-05 -0.000167168850961001 -6.41610276265961e-05 -0.000157025990808986 -0.000136852338134192 7.30926519646047e-05 -1.87683282317984e-05 2.44309884041545e-07 0.000228916417798473 5.13017953599437e-05 -0.000195874565611965 -0.000364716089170851 -0.000609543718312167
"317" 0.000136221878611814 -1.64397005097392e-05 -5.62331917482783e-06 -1.28177670974589e-05 -0.000160097011637722 -4.91135827984234e-05 -0.000148869517501405 -0.000123322162661232 6.24679016363491e-05 -7.1839847532004e-06 -1.82648744215799e-06 0.000252353473086816 6.32630594050091e-05 -0.00019392580223138 -0.000359067141986055 -0.000633606987021923
"318" 0.000150042325958313 -6.58326920291524e-06 4.12905222902902e-07 1.46029392496989e-05 -0.000153064247332411 -3.42152685131222e-05 -0.000140849002068765 -0.000109626101534818 5.17080269275726e-05 4.63235641792728e-06 -3.95780356913936e-06 0.000276074711641765 7.43018120997259e-05 -0.000191565463920853 -0.000353477037120586 -0.000658370949665019
"319" 0.0001635158639527 3.30463458763103e-06 6.46192561469757e-06 4.20805176385344e-05 -0.000146107307421413 -1.95456480036847e-05 -0.00013300351515368 -9.5796820578235e-05 4.08807691696374e-05 1.66034252424743e-05 -6.14237358077475e-06 0.000299917530169187 8.43240842906002e-05 -0.000188822749070532 -0.000347971869424826 -0.000683910699506833
"320" 0.000176561528490214 1.3184352058031e-05 1.24926821332391e-05 6.94708062106665e-05 -0.000139261787144078 -5.18641556482009e-06 -0.000125379677975199 -8.18842452092566e-05 3.00671458549451e-05 2.86512386878886e-05 -8.36649337033657e-06 0.000323706424318278 9.3239753435484e-05 -0.000185728251495818 -0.00034256625601506 -0.000710285661616363
"321" 0.000189091532498926 2.30267871593634e-05 1.84893687001212e-05 9.66358199658885e-05 -0.000132546006151402 8.79591693344487e-06 -0.00011800315269412 -6.79107607877182e-05 1.93467885732624e-05 4.06940399707399e-05 -1.06302193453925e-05 0.000347295402028298 0.00010095744327558 -0.000182327471149198 -0.000337286824252504 -0.000737609961821005
"322" 0.000201028112803454 3.27769147853334e-05 2.44149573391491e-05 0.000123429092885678 -0.000126006948043467 2.23183452486564e-05 -0.000110914236194643 -5.39326465973136e-05 8.79318672632672e-06 5.26470668329499e-05 -1.29169062253963e-05 0.000370492411389909 0.000107418971769074 -0.000178656003578227 -0.000332144681563243 -0.00076589452222263
"323" 0.000212293782849489 4.24008722018981e-05 3.02524051674959e-05 0.000149710409293213 -0.000119665555078354 3.53142677041431e-05 -0.000104141921113356 -3.99753325813759e-05 -1.52175806586544e-06 6.44268707750757e-05 -1.52208191402616e-05 0.000393135578282673 0.000112561531238723 -0.000174768773224321 -0.000327162207286121 -0.0007951955680265
"324" 0.000222819400360705 5.18617966978384e-05 3.59753800966455e-05 0.000175336939763573 -0.000113550447402464 4.77150903755065e-05 -9.77151925688542e-05 -2.60907980241988e-05 -1.15235078812343e-05 7.59508517452904e-05 -1.75313032102673e-05 0.00041504376689753 0.000116336117668789 -0.000170708794928526 -0.000322356853151274 -0.000825546272725741
"325" 0.000232538835756933 6.11082576145746e-05 4.15596766669868e-05 0.000200174359697148 -0.000107692222200893 5.94562432215769e-05 -9.16610432144923e-05 -1.23131622917487e-05 -2.11437733066737e-05 8.71360576924392e-05 -1.98412611358102e-05 0.000436047159351158 0.000118713384235021 -0.000166535955169896 -0.000317742068408369 -0.000856942224251549
"326" 0.000241394499749483 7.01082349512232e-05 4.69834780186068e-05 0.000224088430465551 -0.000102107398191114 7.04814767739014e-05 -8.60027427689412e-05 1.31870710801973e-06 -3.03181504941026e-05 9.78955359597604e-05 -2.2139183857585e-05 0.000455979836696262 0.000119668159761712 -0.000162303668177895 -0.000313337485378316 -0.000889383373812701
"327" 0.000249334347407112 7.88128826694128e-05 5.2222397003129e-05 0.000246950658377989 -9.68296605371144e-05 8.07302350034965e-05 -8.07610027426112e-05 1.47582966595314e-05 -3.89918046644472e-05 0.000108149402544881 -2.44154804280511e-05 0.000474667877754499 0.000119199075437602 -0.000158076374554181 -0.000309148564799208 -0.00092282786392133
"328" 0.000256306305042733 8.7182916525161e-05 5.7261485199022e-05 0.000268645524680151 -9.18684485140542e-05 9.01647212463961e-05 -7.59463999895343e-05 2.79785363201896e-05 -4.71070044229804e-05 0.000117821941442666 -2.66648808472262e-05 0.000491967073889871 0.000117298206000015 -0.000153912892416802 -0.000305193168696063 -0.000957261485794377
"329" 0.000262277525815891 9.5173881705582e-05 6.20742683550058e-05 0.000289057368236447 -8.72557334446606e-05 9.87308597547903e-05 -7.15793958021604e-05 4.09257310298043e-05 -5.46200955615055e-05 0.000126836623141312 -2.88760185205295e-05 0.000507710767729664 0.000113994512189593 -0.000149873436206984 -0.000301475603701189 -0.000992584053292724
"330" 0.000267213703780452 0.000102745533494168 6.66495522408824e-05 0.000308085731546978 -8.299918575634e-05 0.000106402612832077 -6.76658967116642e-05 5.35769811592699e-05 -6.14825974693612e-05 0.000135122212717057 -3.10376596084026e-05 0.000521768340189782 0.00010931832128932 -0.000146017089447684 -0.000298003244167317 -0.00102871605279741
"331" 0.000271086907180291 0.000109851739963533 7.0964318724558e-05 0.000325637604193121 -7.91168455439779e-05 0.000113147423405925 -6.42145721331417e-05 6.58873948078213e-05 -6.76603889825751e-05 0.000142612805082828 -3.31413232286545e-05 0.000534000649725594 0.000103309742744441 -0.000142404136602768 -0.000294777597561596 -0.00106555242359285
"332" 0.000273887976008823 0.00011646709872952 7.50092958347191e-05 0.000341632120014398 -7.56190052258559e-05 0.000118945590077679 -6.12245089542826e-05 7.78351266084767e-05 -7.31226763285233e-05 0.000149245220865185 -3.51791823095489e-05 0.000544296762883786 9.60261284362906e-05 -0.000139093616118218 -0.000291802164595131 -0.00110297889434582
"333" 0.000275607540990684 0.000122555884116274 7.87701615035741e-05 0.000355996383676962 -7.25158406543945e-05 0.000123780525406158 -5.8700756561678e-05 8.93785408587374e-05 -7.78506299096891e-05 0.000154962696716681 -3.71416348154626e-05 0.000552539311708903 8.75428710633741e-05 -0.000136135786565423 -0.000289071018644481 -0.00114081167290942
"334" 0.000276235305484436 0.00012806797269201 8.22348927750379e-05 0.000368675352775186 -6.98160284147669e-05 0.000127648023749381 -5.66293431736628e-05 0.000100494083469034 -8.1823513175697e-05 0.000159717051929224 -3.90220554855041e-05 0.000558640491423829 7.79259345046541e-05 -0.000133590465704658 -0.000286582845553598 -0.00117892593830541
"335" 0.000275791730358014 0.000132992365820269 8.53935816811204e-05 0.000379622861828454 -6.75260283198296e-05 0.00013054734859617 -5.50138854215771e-05 0.000111151274259923 -8.50361308920489e-05 0.000163459744252669 -4.08060858003913e-05 0.000562513496549285 6.728564099458e-05 -0.000131493744785919 -0.000284323178379188 -0.00121709035051227
"336" 0.000274283240892317 0.000137291246955403 8.82369936867739e-05 0.000388807600725901 -6.56435863501555e-05 0.000132487956076807 -5.3837253303954e-05 0.000121328596164845 -8.74854245045908e-05 0.000166150997323754 -4.24899596349707e-05 0.000564100759376303 5.57111555862387e-05 -0.000129898662488208 -0.000282286448305109 -0.00125512392126087
"337" 0.000271733318737265 0.000140937270969068 9.0763680973159e-05 0.000396212910026749 -6.41716640010367e-05 0.000133484962471614 -5.30878959644697e-05 0.000131001617807446 -8.91759962496756e-05 0.000167769206960519 -4.40662761491121e-05 0.000563343421902461 4.33131251174571e-05 -0.000128843245769718 -0.000280460059779518 -0.00129280522940973
"338" 0.000268167892104269 0.000143912743471146 9.29669582193922e-05 0.000401830078293913 -6.31015294606531e-05 0.000133562028436669 -5.27422528147792e-05 0.000140162563126356 -9.0113241864719e-05 0.000168287923588947 -4.55265296453681e-05 0.000560213530990106 3.0211812602732e-05 -0.000128358359376072 -0.000278820865051585 -0.0013298964969456
"339" 0.000263624372450021 0.00014619115159979 9.48423763897273e-05 0.000405669671593356 -6.24378896538926e-05 0.000132749763309548 -5.27939783990972e-05 0.000148779452348673 -9.0327039001339e-05 0.000167687670529626 -4.68592117668254e-05 0.000554679831737188 1.6534921063241e-05 -0.000128473864399534 -0.000277353901560328 -0.00136613331181348
"340" 0.000258144939638603 0.000147772556949969 9.63914031306147e-05 0.000407756212455746 -6.21626532980194e-05 0.00013108463314316 -5.32109457363127e-05 0.000156854629155397 -8.98237636875488e-05 0.000165967296081232 -4.80623394722191e-05 0.000546749054142714 2.41254416804843e-06 -0.000129205710666443 -0.000276032161256989 -0.00140127243892413
"341" 0.000251767099579968 0.000148629220735685 9.76119678019201e-05 0.000408120420686278 -6.22742172629905e-05 0.000128609146474269 -5.39721085698722e-05 0.000164373838810676 -8.86456039188324e-05 0.000163127963357264 -4.91256413163014e-05 0.000536424287011354 -1.20173327188403e-05 -0.000130583795888448 -0.000274833328438062 -0.00143502105690574
"342" 0.000244555601988912 0.000148764955739344 9.85084724194052e-05 0.000406808732562877 -6.27554923390636e-05 0.000125372890576093 -5.50525732357022e-05 0.000171326963853378 -8.68233568166967e-05 0.000159174514513426 -5.0045187615959e-05 0.000523724368849721 -2.66091313475734e-05 -0.000132605414951198 -0.000273731867899273 -0.00146709719638826
