"V1" "V2" "V4" "V5" "V7" "V8" "V10" "V11" "V13" "V14" "V15" "V17" "V18" "V20" "V21" "V23"
"1" 8.58428026550683e-08 -4.12983497069054e-06 4.63418078258622e-06 -4.07167061568584e-06 1.12769997170603e-05 1.54794222681799e-06 5.55610179492154e-06 -1.07665980850465e-06 1.2703255194277e-06 6.81197451466819e-06 1.31347207094005e-06 2.5612461738119e-06 -1.36040932296365e-06 6.43559869180246e-06 -5.4697752521984e-06 -1.03542772551316e-06
"2" -2.04678067885034e-05 -3.13425397412627e-06 -4.81552058202307e-06 -5.65848059367822e-05 6.34033968021586e-06 2.72088080974338e-06 7.09180509042522e-06 -5.95930614612626e-06 -3.42334988020566e-05 -1.79267434291763e-05 -2.29765063999457e-05 -8.04406400445815e-06 -2.10085515063558e-05 -3.00188821167353e-05 -5.02796818822786e-05 -7.44839869909514e-06
"3" -4.08890077379143e-05 -2.09965081125086e-06 -1.42100323991774e-05 -0.000108716539339369 1.44176175553793e-06 3.89062449517969e-06 8.64782443512839e-06 -1.07792470569875e-05 -6.9575843824836e-05 -4.25489500133457e-05 -4.71821282043288e-05 -1.85399279679253e-05 -4.05956490254277e-05 -6.63022569594292e-05 -9.48432727736104e-05 -1.38828722558026e-05
"4" -6.10758599722403e-05 -1.0010793747384e-06 -2.35126668073206e-05 -0.000160185554177459 -3.38384772910427e-06 5.05665884035718e-06 1.02278616101334e-05 -1.547625977128e-05 -0.000104674962198883 -6.69892469293215e-05 -7.12583483809772e-05 -2.88242491154929e-05 -6.00862697919837e-05 -0.000102318623090338 -0.000139007803773644 -2.03545619098745e-05
"5" -8.09150039617019e-05 2.00598301489461e-07 -3.26739552645183e-05 -0.000210713391997299 -8.10401164030413e-06 6.21647729132984e-06 1.18544142129299e-05 -1.99705731149148e-05 -0.000139443949725987 -9.11830651794418e-05 -9.51575371415359e-05 -3.8799155743806e-05 -7.9425252675406e-05 -0.000137967325217402 -0.000182609939721567 -2.68745420395436e-05
"6" -0.000100308830526972 1.53525995829106e-06 -4.16491720307488e-05 -0.000260031624167819 -1.26816459054811e-05 7.36686198613219e-06 1.35311810985217e-05 -2.42008349854454e-05 -0.000173808521731704 -0.00011507092063623 -0.000118839104465081 -4.83648414793876e-05 -9.85838579807409e-05 -0.000173164010229703 -0.000225517971415626 -3.34581325873298e-05
"7" -0.000119147331408138 3.0394271674892e-06 -5.0399380210965e-05 -0.000307884858653352 -1.70854633529757e-05 8.50376075685034e-06 1.52794927284821e-05 -2.80984751420124e-05 -0.000207684732082582 -0.000138592221089957 -0.000142256082067449 -5.74337482275133e-05 -0.000117509514773769 -0.000207810564923344 -0.000267572046371066 -4.0110170305759e-05
"8" -0.000137338039636302 4.74400688197438e-06 -5.88771942847335e-05 -0.000354030656562952 -2.12844382669866e-05 9.62635218076875e-06 1.71050333582135e-05 -3.16017605004632e-05 -0.000240996411148788 -0.000161685544152073 -0.000165364785818519 -6.59159882334599e-05 -0.000136166122989605 -0.000241825243593982 -0.00030864844073693 -4.68428795897047e-05
"9" -0.000154789240779277 6.68604827996829e-06 -6.70486461189305e-05 -0.000398243695428117 -2.52523922501074e-05 1.07281805434735e-05 1.90288555701567e-05 -3.46473680695707e-05 -0.000273674837410534 -0.000184297777414935 -0.000188127715501308 -7.37304272639365e-05 -0.000154511639872955 -0.000275125248181338 -0.000348613092762934 -5.36618186787658e-05
"10" -0.000171413063242355 8.8988689687687e-06 -7.48715052307636e-05 -0.000440316813736668 -2.89592742064136e-05 1.18038501104482e-05 2.10593028861313e-05 -3.71822665551102e-05 -0.000305650473409148 -0.000206374426629637 -0.000210507999845277 -8.07985983261996e-05 -0.000172511571095774 -0.000307633425480576 -0.000387349454868882 -6.05713017283806e-05
"11" -0.000187127405645875 1.14103257686234e-05 -8.231138039375e-05 -0.000480064015113908 -3.23852558433514e-05 1.28490682718369e-05 2.32142356002453e-05 -3.91556786398167e-05 -0.000336859006060541 -0.000227863020915652 -0.00023246920350949 -8.70529971750899e-05 -0.000190129151087056 -0.000339281723347184 -0.000424752862201867 -6.75755386444715e-05
"12" -0.00020185932632301 1.4259742807336e-05 -8.93359213285588e-05 -0.000517313496844413 -3.55045720405432e-05 1.38603890952724e-05 2.5506138399041e-05 -4.05149326440778e-05 -0.000367237822591683 -0.000248713909236816 -0.000253977209566615 -9.24281136746908e-05 -0.000207322194436843 -0.000369992401944516 -0.000460718382359484 -7.4672408249608e-05
"13" -0.000215539257534988 1.74801043717972e-05 -9.59114457024783e-05 -0.000551925038089958 -3.82978600063816e-05 1.48291076776247e-05 2.79473401019914e-05 -4.12268764409616e-05 -0.000396735438946325 -0.000268878043151667 -0.000274999367496975 -9.68700551636587e-05 -0.000224067359756499 -0.000399708229247454 -0.000495164968225067 -8.18607353752338e-05
"14" -0.000228108133584177 2.11002745485886e-05 -0.000102013784531272 -0.00058377542699245 -4.07549581871255e-05 1.5749352335886e-05 3.05555241800022e-05 -4.12467259029488e-05 -0.000425296196021413 -0.00028831366826655 -0.000295511859277749 -0.000100327405677533 -0.000240325943837564 -0.000428376284417946 -0.000528006830869639 -8.91353543887533e-05
"15" -0.000239508318236673 2.51609640147515e-05 -0.000107607315344559 -0.000612767466103217 -4.2855031100999e-05 1.661210123914e-05 3.33471901204123e-05 -4.05455680983429e-05 -0.000452871970004389 -0.000306976994120468 -0.000315480329454241 -0.000102766087313534 -0.000256068137003837 -0.000455939659555881 -0.000559181969008153 -9.64852979815086e-05
"16" -0.000249697536088913 2.96849634423816e-05 -0.000112676950028055 -0.000638828280283434 -4.45917451610259e-05 1.74126632458202e-05 3.63313193540902e-05 -3.91019288409261e-05 -0.000479425193496917 -0.000324826221663641 -0.000334889595594254 -0.0001041494072911 -0.000271266157262251 -0.000482355758735256 -0.000588632917695924 -0.000103903342238063
"17" -0.000258635637196735 3.4713352018495e-05 -0.000117195365091437 -0.000661909220846229 -4.59563466859097e-05 1.81414569734366e-05 3.95260551929753e-05 -3.68969289466447e-05 -0.000504914449631684 -0.000341826291173795 -0.000353710566186798 -0.000104454602661327 -0.000285890807994063 -0.000507581537150393 -0.000616314561509376 -0.000111370772356805
"18" -0.000266293451535265 4.0272976178439e-05 -0.000121150147792296 -0.000681986948600415 -4.69472640751903e-05 1.87892827619465e-05 4.29442839135258e-05 -3.39209833093922e-05 -0.000529310442475212 -0.000357942159534145 -0.000371930565224135 -0.000103667868806726 -0.000299922310580118 -0.000531591491355969 -0.000642204738039827 -0.00011887762596557
"19" -0.000272646880041128 4.63953130886541e-05 -0.000124521186642556 -0.000699063200422138 -4.75639455198012e-05 1.93468520475611e-05 4.65992039250401e-05 -3.01641026958958e-05 -0.000552580416633853 -0.000373141856725235 -0.000389529820982745 -0.00010178667416307 -0.00031333397314056 -0.000554349534064495 -0.000666269551917468 -0.000126398251318675
"20" -0.000277686340252643 5.3111040385867e-05 -0.00012729638231681 -0.000713163104721913 -4.78025036675719e-05 1.98064680975099e-05 5.05064685675314e-05 -2.56330081406967e-05 -0.000574706012041111 -0.000387396542884824 -0.000406494357570765 -9.88073571760756e-05 -0.000326102350846221 -0.000575836555378693 -0.00068850247222191 -0.000133914178930887
"21" -0.000281404277375092 6.04502560781534e-05 -0.000129463835480026 -0.000724334606086032 -4.76741986874835e-05 2.01559361011231e-05 5.46789561609034e-05 -2.03311468156586e-05 -0.00059566410200682 -0.000400678793079551 -0.00042281323057211 -9.47429889693239e-05 -0.000338212559063182 -0.000596038187065651 -0.000708908081101198 -0.000141400272589676
"22" -0.000283802554109123 6.84355741468873e-05 -0.000131017084826266 -0.000732651002322505 -4.71826034615335e-05 2.03868815357221e-05 5.91245364554608e-05 -1.4280946345817e-05 -0.00061544045789592 -0.000412964763234332 -0.000438475282883939 -8.96161581278387e-05 -0.000349645784679506 -0.000614944092941993 -0.00072749256290532 -0.00014882986400286
"23" -0.000284893980292397 7.70999467290531e-05 -0.00013194769028023 -0.000738205296258652 -4.63371667133468e-05 2.04916316664227e-05 6.38577185919526e-05 -7.49838557624222e-06 -0.000634027370483074 -0.000424235906536644 -0.000453473654235776 -8.3447350323941e-05 -0.00036038565267535 -0.000632544500628007 -0.000744276986237044 -0.000156171959782226
"24" -0.000284695479977949 8.64588950871579e-05 -0.000132261819150718 -0.000741111319708878 -4.51559163565136e-05 2.04573004859729e-05 6.88820873817867e-05 -1.8797480919061e-08 -0.000651418151561973 -0.000434469823875351 -0.000467802318958856 -7.6279863286305e-05 -0.000370421677052159 -0.00064884668428998 -0.000759293852578645 -0.000163395756878805
"25" -0.000283237854849085 9.65411186604375e-05 -0.000131948737040951 -0.000741503985071758 -4.36485855121973e-05 2.02771952564683e-05 7.42106633282656e-05 8.12922971846932e-06 -0.0006676123602594 -0.000443657535176169 -0.000481456816794535 -6.81516944612071e-05 -0.000379739584601562 -0.000663851491840814 -0.000772576832271686 -0.000170469778298053
"26" -0.000280550750741864 0.000107361475938113 -0.000131016089963036 -0.000739532129342803 -4.18360481331662e-05 1.99423802868806e-05 7.98443400351048e-05 1.68999704767345e-05 -0.00068261069249843 -0.000451782338017142 -0.0004944343999557 -5.91149330424685e-05 -0.00038832981303173 -0.00067757033981464 -0.000784175756142789 -0.000177356576305099
"27" -0.000276676941510889 0.0001189385304353 -0.000129466959788981 -0.000735361782964078 -3.97344288368701e-05 1.94459949250773e-05 8.57917225257213e-05 2.62471093920909e-05 -0.00069641748967525 -0.000458832865537794 -0.000506729297256462 -4.92243020020246e-05 -0.000396186849213559 -0.000690017047195096 -0.000794141827223352 -0.000184019181709181
"28" -0.000271668810252957 0.000131284082417441 -0.000127311572756233 -0.000729175860200383 -3.73693154397991e-05 1.87765701936396e-05 9.20467613418729e-05 3.61123923910752e-05 -0.000709046433962059 -0.000464809604590042 -0.000518349523096627 -3.85466292072768e-05 -0.000403307312959742 -0.000701216590635319 -0.000802537147022168 -0.000190424791961924
"29" -0.000265572332692675 0.000144413600228489 -0.000124550476726237 -0.000721161832741786 -3.47578226148334e-05 1.79303255720555e-05 9.86190280831964e-05 4.64466229398347e-05 -0.000720502030045076 -0.000469704476627068 -0.000529287490262559 -2.71472786292202e-05 -0.000409679220157019 -0.000711185259228315 -0.000809419925528467 -0.000196527885204457
"30" -0.000258456778978461 0.000158328112864024 -0.000121201926610393 -0.000711527216961033 -3.19241709156633e-05 1.69018718140493e-05 0.000105498382252819 5.71782493413841e-05 -0.000730805800671901 -0.00047351676247919 -0.000539547275853372 -1.51043008212263e-05 -0.000415309826223506 -0.000719951593626688 -0.000814862631557855 -0.000202294008709553
"31" -0.00025038954104969 0.000173033517940326 -0.000117279600977263 -0.000700480162075344 -2.88987809560734e-05 1.56830254168948e-05 0.000112678704691697 6.82403309764836e-05 -0.000739974949075693 -0.000476251683170273 -0.000549132646005415 -2.49512052406084e-06 -0.000420194812886228 -0.000727548845194297 -0.000818944519064093 -0.000207681084834635
"32" -0.00024143817438689 0.000188529531861617 -0.000112791301659434 -0.000688234886202051 -2.57034550450873e-05 1.42728600352295e-05 0.000120151780887737 7.95649222863569e-05 -0.000748026743666817 -0.000477910760016225 -0.000558042348652381 1.0597776626089e-05 -0.000424338022116025 -0.000734007147659831 -0.000821733937670749 -0.000212653066398468
"33" -0.000231683069514272 0.000204808772768265 -0.00010775961999073 -0.000675011143205536 -2.23625827581363e-05 1.26679228810178e-05 0.000127907164720848 9.1072990182209e-05 -0.000754980942294045 -0.000478505251324568 -0.000566279339441663 2.40882481375537e-05 -0.000427740005798293 -0.000739363587665554 -0.000823313378072187 -0.00021716486111238
"34" -0.000221203362107216 0.000221861672542351 -0.000102200553109846 -0.000661026648561703 -1.89069459425631e-05 1.08696343391105e-05 0.000135926495306651 0.000102685780254415 -0.000760866615425313 -0.000478042939511931 -0.000573848505908234 3.78848250113831e-05 -0.000430409511884312 -0.000743654427909777 -0.000823758447336566 -0.000221180098547884
"35" -0.000210091952019775 0.000239670387326314 -9.6133081036559e-05 -0.000646502915447113 -1.53609086060732e-05 8.87358562034687e-06 0.000144189695075477 0.000114325898153926 -0.000765706711391804 -0.000476542425975956 -0.00058075089081227 5.18982603224388e-05 -0.00043235467573785 -0.000746923730092716 -0.000823150541708271 -0.000224666658641687
"36" -0.00019842405677588 0.000258217821811597 -8.95766316533941e-05 -0.000631649720503433 -1.17503273480083e-05 6.68756110645862e-06 0.000152679349461183 0.000125908284959018 -0.000769526247080423 -0.000474017430830809 -0.000586986875929238 6.60363903820996e-05 -0.000433575924200011 -0.000749207813284106 -0.00082156735930636 -0.000227578107268205
"37" -0.000186303558125919 0.000277477013175668 -8.25611022715331e-05 -0.000616678560553017 -8.10434094116132e-06 4.310454627372e-06 0.000161365570911618 0.000137349301828905 -0.000772354238972677 -0.00047048591354036 -0.000592562836069283 8.02057156339457e-05 -0.000434095148004397 -0.000750555287528292 -0.000819089770034292 -0.000229889407682392
"38" -0.000173815501533292 0.000297415795009068 -7.51039804525395e-05 -0.000601788279355964 -4.44741616838685e-06 1.74951765369304e-06 0.000170222380301723 0.000148566516921928 -0.00077421840636891 -0.000465973714757302 -0.000597477669930435 9.43146506921293e-05 -0.000433919053146539 -0.000751002765207062 -0.000815789601565154 -0.000231560217845149
"39" -0.000161060780290834 0.0003179972578784 -6.72282490867756e-05 -0.000587169548985131 -8.04906204813034e-07 -9.89595188995262e-07 0.000179215605307538 0.000159475125559535 -0.000775145455197403 -0.000460502281601016 -0.000601732167565816 0.000108269891614245 -0.000433058784565166 -0.000750597868390109 -0.000811740181225384 -0.000232562597411621
"40" -0.000148130128202753 0.000339174683210016 -5.89704635465702e-05 -0.000573003440381284 2.79663555941197e-06 -3.89870512033012e-06 0.000188305640204732 0.000169991094619745 -0.000775167850755617 -0.00045410031754947 -0.00060533148928799 0.000121984922522545 -0.000431534700999224 -0.000749383298223737 -0.000807013982620151 -0.000232871601448436
"41" -0.000135122713495286 0.000360901175636705 -5.03526973712989e-05 -0.000559457446068564 6.33782898919912e-06 -6.96688859365993e-06 0.00019745758338855 0.000180032476612788 -0.000774312212652346 -0.000446797077496887 -0.000608271628356692 0.000135368057541811 -0.000429361863217741 -0.000747403981729424 -0.000801672586564572 -0.000232458531517637
"42" -0.000122132965876196 0.000383121406246127 -4.14013131691817e-05 -0.000546680338877478 9.79042530990706e-06 -1.01848962247979e-05 0.0002066281222201 0.00018952503042074 -0.000772607863717009 -0.000438626513804673 -0.000610557959210334 0.000148340040488523 -0.000426558159896814 -0.000744703900869579 -0.000795776359015127 -0.000231303973540367
"43" -0.000109254473291693 0.000405770329799124 -3.21498465137244e-05 -0.000534808480907175 1.31367661234724e-05 -1.35396707633924e-05 0.000215771304422348 0.000198387128364394 -0.000770086538987409 -0.00042962186568174 -0.000612187259327193 0.000160816004246962 -0.000423144910779567 -0.000741322409890838 -0.000789384454084816 -0.000229389139499611
"44" -9.65754797549112e-05 0.000428784572727726 -2.26316030188871e-05 -0.000523961007389881 1.63541087271706e-05 -1.70159527833429e-05 0.000224837044864399 0.000206542324805592 -0.000766774045179996 -0.000419819800881169 -0.000613160152428046 0.000172722590607762 -0.000419141066012251 -0.000737299583247644 -0.00078254509885287 -0.000226697942523712
"45" -8.41934817267712e-05 0.000452085024864488 -1.28711894438928e-05 -0.000514237788549692 1.94226506676641e-05 -2.05967814694076e-05 0.000233777342475801 0.000213926208882867 -0.000762696658669541 -0.000409256194697843 -0.000613478696340207 0.000183989570843701 -0.000414570302582767 -0.000732681784969686 -0.000775303179538521 -0.000223218042949628
"46" -7.21882689818901e-05 0.000475595685755035 -2.91011960869313e-06 -0.000505722349265565 2.23262485435408e-05 -2.42694065867337e-05 0.000242537800362093 0.000220472021289237 -0.000757888166447111 -0.000397979019963968 -0.000613142423170432 0.000194548573602555 -0.000409456664492156 -0.000727502702506341 -0.000767699556104684 -0.000218949512484035
"47" -6.0646269618902e-05 0.000499231445650202 7.22160133014748e-06 -0.00049847872081997 2.50466147907969e-05 -2.80131003130619e-05 0.000251066721472452 0.000226118348611277 -0.000752371894361954 -0.000386025591744731 -0.000612147417100176 0.000204343361659183 -0.000403827151711573 -0.000721798063345858 -0.000759764510716987 -0.000213882961625624
"48" -4.96451817811646e-05 0.000522905921682515 1.74873425317304e-05 -0.000492549673563933 2.75688682170293e-05 -3.18144829723837e-05 0.000259307751320635 0.000230817740014103 -0.000746172590982705 -0.000373440567911544 -0.000610498975242997 0.000213318824478535 -0.000397705003500212 -0.000715603523395229 -0.000751526967878161 -0.000208021540071097
"49" -3.92586669335735e-05 0.000546515891650209 2.78511303461521e-05 -0.000487964370730333 2.98766301911479e-05 -3.56483048250932e-05 0.000267201910535791 0.000234508584207785 -0.000739324373331497 -0.000360270585053776 -0.000608196843002518 0.000221429501173934 -0.000391123363603716 -0.000708957492285857 -0.000743013552463664 -0.000201376569176762
"50" -2.95504182993114e-05 0.000569969803895553 3.8278160599262e-05 -0.00048472643826755 3.19632258402419e-05 -3.9499030252005e-05 0.000274696567448792 0.00023716123042351 -0.00073184233163445 -0.000346563150362606 -0.000605239974818959 0.000228636882164021 -0.000384101968075693 -0.000701881777295106 -0.00073422780556648 -0.000193951279296103
"51" -2.05878724259956e-05 0.000593161321850113 4.87260512350444e-05 -0.000482825758940448 3.3807614332696e-05 -4.33468714314572e-05 0.000281731757495647 0.000238733607096378 -0.000723757171228283 -0.000332371599445994 -0.000601634716520577 0.00023490378149959 -0.00037667688676513 -0.000694407140757994 -0.000725189284134217 -0.000185768973841104
"52" -1.24193081639955e-05 0.000615984833110767 5.9158784398124e-05 -0.000482237977620517 3.54017761588383e-05 -4.71685686679531e-05 0.000288251959316138 0.000239198706999305 -0.000715095043211652 -0.000317741171905739 -0.000597382862182199 0.000240211450162871 -0.000368878060354973 -0.000686560491738568 -0.000715901888570706 -0.000176846574177878
"53" -5.09623544833851e-06 0.000638334785315026 6.95391068415945e-05 -0.000482915094230322 3.67392808747982e-05 -5.09475587078169e-05 0.000294205863222805 0.000238535062864355 -0.000705875195613912 -0.000302725250558752 -0.000592486557414288 0.000244538700539742 -0.000360735081604314 -0.000678362675751801 -0.000706364743823289 -0.000167206773012918
"54" 1.34119325809379e-06 0.000660097879118577 7.98181081291658e-05 -0.000484797383821996 3.78077018119298e-05 -5.46624428750366e-05 0.000299532659639096 0.000236730936014293 -0.000696127291691566 -0.000287378320665568 -0.000586958067679097 0.000247873724771386 -0.000352285435244197 -0.000669841542138834 -0.000696575102629264 -0.000156884660878883
"55" 6.86461209041363e-06 0.000681167640969731 8.99644995369278e-05 -0.000487812183423842 3.8599452217402e-05 -5.82935855070056e-05 0.000304193019681975 0.000233779165186298 -0.000685867169535687 -0.000271753672533534 -0.000580797923853429 0.000250214313297769 -0.000343554595418239 -0.000661004645885228 -0.000686518259559855 -0.000145906202360651
"56" 1.14475192204308e-05 0.000701429584665767 9.99325731255951e-05 -0.000491875977771404 3.91081512938949e-05 -6.18249689713328e-05 0.000308133259641859 0.000229687059806362 -0.000675122786853815 -0.000255904747189822 -0.000574020029400421 0.000251564367438478 -0.00033458013525511 -0.000651878172094475 -0.0006761883481767 -0.000134315995123884
"57" 1.50796829278166e-05 0.000720777760486205 0.000109681068654484 -0.000496888616163754 3.93254082189366e-05 -6.52376187296875e-05 0.000311313410239712 0.000224461866155453 -0.000663916079033575 -0.000239888945784959 -0.000566634760827449 0.000251931191309049 -0.000325389214946101 -0.000642469482623851 -0.000665563531338456 -0.000122150768359292
"58" 1.77453019401151e-05 0.000739099632106531 0.000119167181372034 -0.000502744565035851 3.92481202415515e-05 -6.85136971567527e-05 0.000313685631518643 0.000218117054671367 -0.000652270203298228 -0.000223761691882517 -0.000558658073533166 0.000251331895849832 -0.000316025768916921 -0.000632795717937069 -0.000654642836042416 -0.000109462195018862
"59" 1.94562352107892e-05 0.000756294214644074 0.000128346936854227 -0.000509328935306734 3.88660225357567e-05 -7.16378307177831e-05 0.000315222644087162 0.000210688245890394 -0.000640207103434798 -0.000207579571649218 -0.000550105175386658 0.00024978755370894 -0.000306515432857951 -0.000622864606580847 -0.000643391160157815 -9.62967412363485e-05
"60" 2.02190991047272e-05 0.00077226005678172 0.000137182124239616 -0.000516523567208726 3.81772577274798e-05 -7.45974221785907e-05 0.000315894877560962 0.000202202481014667 -0.000627752230602079 -0.000191398968049961 -0.00054099248056618 0.00024732630895284 -0.000296896313692423 -0.000612681492797885 -0.000631797723317757 -8.27045306571963e-05
"61" 2.00561106381242e-05 0.000786899127049334 0.000145626059327198 -0.000524201491327548 3.71787930595045e-05 -7.73788194704441e-05 0.000315675696173821 0.000192704739680668 -0.000614926555889727 -0.000175277349077468 -0.000531342953708376 0.000243982648914101 -0.000287201044607366 -0.00060225673786088 -0.000619842217151504 -6.87444852460708e-05
"62" 1.89898447771388e-05 0.000800121548869273 0.000153636309106946 -0.000532234684385797 3.5862884286478e-05 -7.99708128792314e-05 0.000314545112830741 0.000182240030184759 -0.000601756514946622 -0.000159270112371878 -0.000521185045058661 0.000239790098974465 -0.000277463698868872 -0.000591595554248914 -0.000607509157723794 -5.44756357842257e-05
"63" 1.70656631691593e-05 0.000811842506564343 0.00016117864213133 -0.000540494788327014 3.42278844275744e-05 -8.23641645081173e-05 0.000312495945922057 0.000170869536467721 -0.000588265431620361 -0.000143435176750088 -0.000510538517744977 0.000234791760161902 -0.00026771632727743 -0.000580698464594633 -0.000594772752192169 -3.99555901214878e-05
"64" 1.43205329977908e-05 0.000821988434190132 0.000168204183833208 -0.000548855763364642 3.22669957398533e-05 -8.45521780351271e-05 0.000309518479118463 0.000158648180563942 -0.000574480954782771 -0.000127827917313903 -0.000499438320042255 0.000229032410545732 -0.000257994443201906 -0.000569574166362088 -0.000581631412586144 -2.52497066580061e-05
"65" 1.08145374866645e-05 0.000830490069991233 0.000174677730228616 -0.000557186954018594 2.99844885739489e-05 -8.65281904155943e-05 0.000305619142216324 0.000145651710690378 -0.000560426319379086 -0.000112505293529278 -0.000487913412672305 0.000222556873519135 -0.000248325276827063 -0.000558214607545686 -0.000568057581630695 -1.04203632694672e-05
"66" 6.59518118683402e-06 0.000837287509573497 0.000180559297365701 -0.000565371795313248 2.73691005096244e-05 -8.82878098358416e-05 0.0003007979859859 0.000131946487231181 -0.000546133462003003 -9.75226806749531e-05 -0.000476003948620048 0.000215417301325202 -0.000238744361549452 -0.000546630214075156 -0.000554057029917397 4.46575960105637e-06
"67" 1.73268711705081e-06 0.000842335871587644 0.000185815188863945 -0.000573289040727101 2.44260031643632e-05 -8.9833372761064e-05 0.000295077684335513 0.000117617017409869 -0.000531624463967571 -8.29295175158343e-05 -0.000463744951363509 0.000207669643041604 -0.00022928280901996 -0.000534818252949649 -0.000539612191556853 1.93426470527622e-05
"68" -3.70628286544753e-06 0.000845594855721595 0.000190403042429346 -0.0005808298528147 2.11468273108991e-05 -9.11599622547492e-05 0.000288474667287288 0.000102743639351226 -0.000516931221458598 -6.87818006004161e-05 -0.000451178998921259 0.000199359698419415 -0.000219968627914182 -0.000522777583467473 -0.000524730704823917 3.41445470662425e-05
"69" -9.63839434312944e-06 0.000847041414136109 0.000194299852863592 -0.000587890817185206 1.75368005063041e-05 -9.22736541174127e-05 0.00028102085716788 8.7414637548597e-05 -0.000502085439321386 -5.5128189868679e-05 -0.000438347389628301 0.000190552139907627 -0.000210830133673973 -0.000510514471590498 -0.000509415521901035 4.88042038015152e-05
"70" -1.59946182772906e-05 0.000846658002836644 0.000197467152884681 -0.000594373858864454 1.35906916619408e-05 -9.31763265592944e-05 0.000272746546669562 7.1719422422232e-05 -0.000487115323019836 -4.20196428524438e-05 -0.000425299565331524 0.000181292492931647 -0.00020190007085528 -0.000498024156032021 -0.000493672205976571 6.32539614593944e-05
"71" -2.2686236198687e-05 0.000844444183308082 0.00019987952244624 -0.00060020096068902 9.31059422422651e-06 -9.38736374808068e-05 0.000263695217488971 5.57488076761169e-05 -0.000472053540913113 -2.95010380778843e-05 -0.000412081270663248 0.000171645679732432 -0.000193201239798295 -0.000485310654809186 -0.000477521443681788 7.74289181074154e-05
"72" -2.96276637768516e-05 0.000840408814857483 0.000201512874634046 -0.000605291468152254 4.69494497639308e-06 -9.43744521267906e-05 0.000253915584275594 3.96031130130511e-05 -0.000456933252169875 -1.76190098922675e-05 -0.000398743083340376 0.000161659240084156 -0.00018475716857472 -0.000472378652026782 -0.000460975991844827 9.12689217501382e-05
"73" -3.67388991832704e-05 0.000834574455527644 0.000202343386044287 -0.000609584815988707 -2.47515172386718e-07 -9.46880302455321e-05 0.000243455913725377 2.33710689775808e-05 -0.000441788280582812 -6.41447709834917e-06 -0.000385338622903542 0.000151391472188445 -0.000176598021136132 -0.00045922389843383 -0.00044407121317498 0.000104706226442646
"74" -4.39267195287306e-05 0.000826975319715324 0.000202353416458153 -0.00061302631731698 -5.52021908685426e-06 -9.48256122964817e-05 0.000232372859949677 7.15431308653246e-06 -0.000426652872964315 4.07088615853282e-06 -0.00037192082583361 0.000140895675969203 -0.000168740480837917 -0.000445858405802204 -0.000426832795447852 0.000117682114152055
"75" -5.11116627688609e-05 0.000817658983625114 0.000201526045134768 -0.000615577794363518 -1.11168602866766e-05 -9.47988158252721e-05 0.000220727006930406 -8.95709200262503e-06 -0.0004115645674497 1.37994243739965e-05 -0.000358542993669383 0.000130223004458153 -0.000161212668690842 -0.000432284307577824 -0.000409303875503096 0.000130137538459674
"76" -5.82013674190743e-05 0.000806684854266805 0.000199852632964082 -0.000617211344543955 -1.7032361335191e-05 -9.46232335031559e-05 0.000208587673948437 -2.48678648190876e-05 -0.000396559475608228 2.27412261668025e-05 -0.0003452648284558 0.000119426751809386 -0.000154030368372097 -0.000418508770852999 -0.00039152832334407 0.000142017770856513
"77" -6.51208074742969e-05 0.000794113718487248 0.000197325445684354 -0.000617908555745788 -2.32603821219776e-05 -9.43095079538808e-05 0.000196012286134691 -4.04810572826343e-05 -0.000381672909104159 3.08589022349153e-05 -0.000332139335625509 0.000108553315682973 -0.000147212676340349 -0.000404541893873743 -0.000373558640519327 0.000153265918391183
"78" -7.17802061774683e-05 0.000780038389788821 0.00019394121073003 -0.000617666550969944 -2.97914957752197e-05 -9.38777250355079e-05 0.000183079739960055 -5.57086203408957e-05 -0.00036694158922335 3.81312686204299e-05 -0.000319219798972653 9.7654088032314e-05 -0.000140775803161533 -0.000390390284023818 -0.000355440563025249 0.00016383881818515
"79" -7.81144846940633e-05 0.00076453842023186 0.000189696961122434 -0.000616490658460536 -3.66140316584407e-05 -9.33414248479828e-05 0.000169853690712842 -7.04712641961138e-05 -0.000352405531397579 4.45302227279065e-05 -0.000306570883351513 8.67673823186321e-05 -0.000134742401630419 -0.000376069188161567 -0.000337245847343288 0.000173682808855969
"80" -8.40386684955854e-05 0.000747717834857801 0.00018460176650216 -0.000614400041019357 -4.37176491013339e-05 -9.27176491124983e-05 0.000156411325809433 -8.46749418709655e-05 -0.000338094736400786 5.00378155056334e-05 -0.000294239886192556 7.59409440575514e-05 -0.000129115149102557 -0.000361587888537793 -0.000319031723953489 0.000182760785567737
"81" -8.94938271787217e-05 0.000729683451429316 0.000178667224192763 -0.000611426505312886 -5.10902257881762e-05 -9.20237443572739e-05 0.000142821268664557 -9.82503123569062e-05 -0.000324053843175981 5.46382350356355e-05 -0.000282287061386838 6.52169520628445e-05 -0.000123915455019493 -0.000346968397603518 -0.000300873686232159 0.000191028338347779
"82" -9.44153559687908e-05 0.000710547112799705 0.000171902365693729 -0.000607605831783158 -5.87126663313586e-05 -9.12783231505609e-05 0.000129154231415467 -0.000111120157664309 -0.000310317241749531 5.83151624830935e-05 -0.000270761848775627 5.46286632485422e-05 -0.000119148068411839 -0.000332219821522496 -0.000282839449794436 0.000198453635937464
"83" -9.87470938211464e-05 0.000690433407133346 0.000164329786036375 -0.000602987054049565 -6.65697230651895e-05 -9.04979952641414e-05 0.000115484240475513 -0.000123216779406709 -0.000296918888136612 6.10679962571642e-05 -0.000259714730957612 4.42146359233866e-05 -0.000114822095470687 -0.000317366374205804 -0.000265004251246389 0.000205005404436322
"84" -0.000102440463659116 0.000669466868590129 0.000155971759860012 -0.000597630118094683 -7.46391475716985e-05 -8.9699036586532e-05 0.000101874204830258 -0.00013448138702529 -0.00028389595325271 6.28872000891869e-05 -0.00024919603527389 3.40099088967514e-05 -0.000110944050002088 -0.000302425597339574 -0.000247444201559485 0.000210656706441223
"85" -0.000105450957021897 0.000647776186965964 0.000146855985135872 -0.000591597452965835 -8.29032888710422e-05 -8.88979253664606e-05 8.83917650560182e-05 -0.000144856955442137 -0.000271280221926449 6.37744365603894e-05 -0.000239254368452792 2.40458149200143e-05 -0.000107518598697234 -0.000287423724952901 -0.000230237526345095 0.000215381586175614
"86" -0.000107745295708111 0.000625494530073774 0.000137009896878713 -0.000584960490410187 -9.1336105391776e-05 -8.81119972091591e-05 7.50981500132855e-05 -0.000154298371339633 -0.000259104975440232 6.37340000221363e-05 -0.000229928810801335 1.43478819822336e-05 -0.000104547891795419 -0.000272378985286118 -0.000213464791709783 0.000219166831874679
"87" -0.000109294689219471 0.000602757974482032 0.000126471354182987 -0.000577798007388652 -9.99095767435495e-05 -8.73533974109168e-05 6.2057010444176e-05 -0.000162765583030581 -0.000247399540719285 6.27736458175453e-05 -0.000221260944177182 4.94550520203574e-06 -0.000102035520964837 -0.000257323781714608 -0.000197205524209553 0.000221998041625453
"88" -0.000110079304647995 0.000579699007228827 0.000115283431382749 -0.000570191053478131 -0.000108601775027333 -8.66418573323789e-05 4.93150772568606e-05 -0.000170221599510522 -0.000236197165784772 6.09073273317429e-05 -0.000213287343627081 -4.13609165204978e-06 -9.99737719664938e-05 -0.000242277616671747 -0.000181532373821764 0.00022386363459158
"89" -0.000110090075544359 0.000556450940175644 0.000103479220863783 -0.000562224428501416 -0.000117377848512038 -8.59854746340892e-05 3.69235269308544e-05 -0.0001766480976537 -0.000225520943364409 5.81521142354291e-05 -0.000206042505903875 -1.28767010948012e-05 -9.8365709571361e-05 -0.000227278721157818 -0.000166527237138183 0.000224757429589393
"90" -0.000109318059750161 0.000533147361974715 9.11154630137733e-05 -0.000553985578773751 -0.000126209076541988 -8.53994449729669e-05 2.49345903439289e-05 -0.000182020920043487 -0.000215395900885481 5.45260943866484e-05 -0.000199549497148212 -2.1255174874483e-05 -9.71946211421323e-05 -0.000212344704387305 -0.000152256169175207 0.000224685320091681
"91" -0.000107764151356608 0.00050991715244014 7.82318598832534e-05 -0.000545564411815373 -0.000135062523955701 -8.48921225657653e-05 1.33785711072081e-05 -0.000186341861589129 -0.000205844865796308 5.00576077792474e-05 -0.000193833307079859 -2.92495551802048e-05 -9.64633636719843e-05 -0.000197517409085784 -0.000138792583211265 0.000223649631117698
"92" -0.000105439365551551 0.000486887674694166 6.48862963762209e-05 -0.000537047917356258 -0.000143903752244986 -8.44743304478759e-05 2.29156400507095e-06 -0.000189600173944357 -0.000196887054109921 4.47716685126225e-05 -0.000188913940182804 -3.68462339615705e-05 -9.61532986323568e-05 -0.000182820056232964 -0.000126200101876615 0.000221656620811916
"93" -0.000102368266871204 0.000464175443543184 5.11246695890366e-05 -0.000528526222778718 -0.000152696638817572 -8.41550742073517e-05 -8.29624100598888e-06 -0.000191812097434561 -0.000188541372743705 3.86993720129238e-05 -0.000184806497324155 -4.40325988102468e-05 -9.62557910404561e-05 -0.000168293808718701 -0.000114540956379489 0.00021872055882053
"94" -9.856606735919e-05 0.000441894720916486 3.70084141759948e-05 -0.000520083042422545 -0.000161406043972481 -8.39379219478128e-05 -1.8359054296022e-05 -0.000192984234802843 -0.000180819528852699 3.18779148568927e-05 -0.000181515614287408 -5.07934908766229e-05 -9.67499896837456e-05 -0.000153961326488242 -0.000103867261537202 0.000214862465871507
"95" -9.40650346928282e-05 0.000420156263342194 2.25921002849131e-05 -0.000511801140805756 -0.000169990940235412 -8.38295106800542e-05 -2.78867946831873e-05 -0.000193144148181887 -0.000173732487586108 2.4344975852391e-05 -0.000179047238305626 -5.71161722291982e-05 -9.76212109601225e-05 -0.000139864799791206 -9.42311832363805e-05 0.000210100625671377
"96" -8.89089600220468e-05 0.000399054175228883 7.93429841985601e-06 -0.000503762109469941 -0.000178418076324509 -8.38303126776206e-05 -3.68672920090966e-05 -0.000192323936217828 -0.000167286291737376 1.61399246327761e-05 -0.000177401396718049 -6.29908543402802e-05 -9.88493239067353e-05 -0.000126034193736767 -8.5676920937685e-05 0.00020445933434809
"97" -8.31394174983978e-05 0.000378684092801163 -6.9058931926877e-06 -0.000496036397932925 -0.00018664798322168 -8.39441827113635e-05 -4.52973298520607e-05 -0.00019055799249926 -0.000161488115030498 7.3071207805403e-06 -0.000176568546083097 -6.84115369277651e-05 -0.000100413333277255 -0.000112503598042781 -7.82372159605746e-05 0.000197973171530921
"98" -7.67993955517443e-05 0.000359124764947143 -2.18708468742132e-05 -0.000488693635270111 -0.000194642428828112 -8.41719791463367e-05 -5.31742895022052e-05 -0.000187897133873065 -0.00015633758123503 -2.10714710249738e-06 -0.000176535859062474 -7.33677927718677e-05 -0.000102282129910323 -9.93069043593807e-05 -7.19381323304897e-05 0.000190674635409345
"99" -6.99506230565108e-05 0.000340450110983097 -3.68998084404763e-05 -0.000481794717492168 -0.000202357887205117 -8.45102417428744e-05 -6.05086719640489e-05 -0.000184384575006495 -0.000151831480658766 -1.20555637634471e-05 -0.000177290601538036 -7.78539597078228e-05 -0.000104436374116798 -8.64811528390778e-05 -6.68054244927026e-05 0.00018260006431538
"100" -6.2652534983487e-05 0.000322723579984125 -5.1941122609841e-05 -0.000475397701028031 -0.000209766274433966 -8.49549282304443e-05 -6.73128460130527e-05 -0.000180088406067413 -0.000147966705714115 -2.24871473542328e-05 -0.000178808318587853 -8.18667311522725e-05 -0.000106843330321142 -7.4060037922398e-05 -6.28511259411765e-05 0.000173787562031682
"101" -5.49649861125088e-05 0.000305992822188841 -6.6929348336296e-05 -0.000469547722622349 -0.000216825200666747 -8.55047023446837e-05 -7.3606490422181e-05 -0.000175062246204256 -0.000144734119388263 -3.33499631909621e-05 -0.000181063678863522 -8.54012917183059e-05 -0.000109471984020191 -6.20688467271508e-05 -6.00792418408052e-05 0.000164284619497919
"102" -4.69576026392647e-05 0.000290304241176709 -8.18133976096199e-05 -0.000464285250420052 -0.000223498939180858 -8.61512205541203e-05 -7.94036002570059e-05 -0.000169376955251862 -0.000142119492032072 -4.45926665994126e-05 -0.000184026513336548 -8.84550188535675e-05 -0.00011229002240853 -5.05468027021636e-05 -5.84867945552343e-05 0.000154137859998099
"103" -3.87030440698248e-05 0.000275681186710836 -9.65393719005916e-05 -0.000459644554253915 -0.00022975639374553 -8.68876660823274e-05 -8.47436267451966e-05 -0.000163111602364905 -0.000140111074470263 -5.61613606146194e-05 -0.000187658531362954 -9.10297074526195e-05 -0.000115263179399059 -3.95233746126934e-05 -5.80620203199914e-05 0.000143392465910954
"104" -3.02725282330841e-05 0.000262148388134693 -0.000111055704534571 -0.00045565001457243 -0.000235565090461502 -8.77066385464058e-05 -8.96495234597735e-05 -0.000156334770014564 -0.000138689487081796 -6.79974017054033e-05 -0.000191926351443549 -9.31193051162172e-05 -0.000118355558700525 -2.90305460653377e-05 -5.87917760501835e-05 0.000132101882192449
"105" -2.17455858850815e-05 0.000249710616548348 -0.000125311221312529 -0.000452315588488889 -0.000240893303587299 -8.85979690473557e-05 -9.41628667389112e-05 -0.000149132067369116 -0.000137834742467818 -8.00506721860144e-05 -0.000196782419033784 -9.47266103086152e-05 -0.00012153017048381 -1.90955452561316e-05 -6.06478890909889e-05 0.000120322553613022
"106" -1.31988619952234e-05 0.00023836651263362 -0.000139262380041533 -0.000449653338137082 -0.000245716296787172 -8.95550732736869e-05 -9.83147713842301e-05 -0.000141584319381162 -0.000137524997664985 -9.22596929310902e-05 -0.000202183296992349 -9.58515448670513e-05 -0.000124748201134334 -9.74968669979838e-06 -6.35979815522205e-05 0.000108110042274129
"107" -4.71057568220292e-06 0.000228101557646154 -0.00015286362813431 -0.000447660519478646 -0.000250005852483346 -9.05630316220353e-05 -0.000102154293569348 -0.000133779333860581 -0.000137734170545858 -0.000104574710856573 -0.000208080161662566 -9.64996557741192e-05 -0.000127972392215322 -1.01590365988996e-06 -6.76046627917738e-05 9.55181405246134e-05
"108" 3.64324194478105e-06 0.000218892095104459 -0.000166071307698721 -0.000446331138627237 -0.000253741071606291 -9.16128157870946e-05 -0.000105714431238077 -0.000125798033423718 -0.000138435183014551 -0.000116933947945741 -0.00021441894689189 -9.6669835243041e-05 -0.000131158904832884 7.08322899562666e-06 -7.26121209945778e-05 8.26095816448443e-05
"109" 1.17752153807316e-05 0.000210703466558266 -0.000178856686903768 -0.0004456525142577 -0.000256906720815958 -9.26948079378165e-05 -0.000109053829485501 -0.000117731454956855 -0.000139600130732451 -0.00012928683803511 -0.000221151163593985 -9.6367042987177e-05 -0.000134272376127554 1.45142209692103e-05 -7.85811281267078e-05 6.9441189578268e-05
"110" 1.96131458478871e-05 0.000203492117766013 -0.000191177169821596 -0.000445599101926088 -0.000259481804693176 -9.37957028111837e-05 -0.000112205033349555 -0.000109661538956636 -0.000141194421791702 -0.000141576408464462 -0.000228217928228004 -9.5596724674323e-05 -0.000137266306620405 2.12650264146823e-05 -8.54427267616103e-05 5.60756790067367e-05
"111" 2.70741770033562e-05 0.000197204480793454 -0.000203015129020884 -0.00044614981687416 -0.000261460220216946 -9.49027039039065e-05 -0.000115227952491403 -0.000101680540686835 -0.000143194869145994 -0.000153752960149909 -0.000235566854577593 -9.43667564564077e-05 -0.000140108428790136 2.73083631993844e-05 -9.31409337213343e-05 4.25713392779147e-05
"112" 3.40829609617702e-05 0.000191776498825088 -0.000214337876636802 -0.000447266490060853 -0.000262830291719922 -9.60052193120942e-05 -0.000118166097569875 -9.38721694803303e-05 -0.000145560393767229 -0.000165760118254894 -0.000243138384027419 -9.26811206154935e-05 -0.000142754794173416 3.26263165600443e-05 -0.000101611956551625 2.89876936540355e-05
"113" 4.05671453478923e-05 0.000187142735491067 -0.00022512575368232 -0.000448910979706187 -0.000263590941744487 -9.70929193606239e-05 -0.000121062018648678 -8.63128826119261e-05 -0.000148262043850353 -0.000177552587618032 -0.000250877556762205 -9.05493490120666e-05 -0.000145162552275831 3.72097496789798e-05 -0.000110777686878036 1.53916414626661e-05
"114" 4.64636789310279e-05 0.000183225151791371 -0.000235361212173335 -0.000451042930578213 -0.000263738591715289 -9.81535751393771e-05 -0.000123964683251654 -7.90853217566088e-05 -0.000151261526414795 -0.000189074953342538 -0.000258723577756343 -8.79775896013028e-05 -0.000147298588517988 4.10411163058866e-05 -0.000120564411883868 1.83704821889602e-06
"115" 5.16948136901896e-05 0.000179939916648539 -0.000245032207714116 -0.000453613951634663 -0.000263280719421484 -9.9176012661502e-05 -0.000126914567842885 -7.22655070892389e-05 -0.000154531498880821 -0.000200284361516214 -0.000266624054190506 -8.49763791550229e-05 -0.000149121899081277 4.41028793731568e-05 -0.000130901531645166 -1.16143717070946e-05
"116" 5.62014835318069e-05 0.000177200002071896 -0.000254133448255903 -0.000456573017839856 -0.000262224460864199 -0.00010015344344567 -0.000129955631011761 -6.59201787461658e-05 -0.00015803059238021 -0.000211137954503191 -0.000274522702510947 -8.15612985638846e-05 -0.000150599546178572 4.6388830882036e-05 -0.000141708243239959 -2.49062863881014e-05
"117" 5.99252162641979e-05 0.00017491062601743 -0.000262657476315208 -0.000459870000610679 -0.000260584826462285 -0.000101076704872053 -0.000133132850273488 -6.01239426534729e-05 -0.000161734375819261 -0.000221589777530719 -0.000282368111142368 -7.7738620137404e-05 -0.000151700983268387 4.78923711677701e-05 -0.000152913774211835 -3.7983459212182e-05
"118" 6.28148551094389e-05 0.00017297842608885 -0.000270604050229272 -0.000463448580869151 -0.000258376290575831 -0.000101933313574704 -0.000136473648142987 -5.49292225943468e-05 -0.000165605093446803 -0.000231598797235173 -0.000290105610091037 -7.35226391728813e-05 -0.000152390009616419 4.86073267864984e-05 -0.000164425685175955 -5.07901721796627e-05
"119" 6.48210818801331e-05 0.000171301933633417 -0.000277977376161226 -0.000467256012643882 -0.00025561836787481 -0.000102721946080811 -0.00014001330540794 -5.03946601209323e-05 -0.000169612803791835 -0.00024113015319492 -0.000297687818614377 -6.8930375302198e-05 -0.000152639182361081 4.85283385253824e-05 -0.000176180457934572 -6.32764996959756e-05
"120" 6.5904534057666e-05 0.000169785979945979 -0.000284781438353433 -0.000471234529314893 -0.000252338334241913 -0.000103433194137334 -0.000143779660096161 -4.65634557530838e-05 -0.000173724576127681 -0.00025014745716107 -0.0003050644858039 -6.39756950606108e-05 -0.000152419066763941 4.76550617409723e-05 -0.000188090188630057 -7.53928447848582e-05
"121" 6.60319809762666e-05 0.000168329361907282 -0.000291029368433459 -0.000475327017390043 -0.000248562723379973 -0.000104060023543755 -0.000147798534113446 -4.34861152304636e-05 -0.000177920191771445 -0.000258622407147543 -0.00031219510738433 -5.86761140647129e-05 -0.00015171366721959 4.59887824516995e-05 -0.000200082651827003 -8.70913540261238e-05
"122" 6.51714414367308e-05 0.000166831820543901 -0.000296732444831495 -0.000479483985723463 -0.000244327356013842 -0.000104603120458368 -0.000152083728780672 -4.11874410948495e-05 -0.00018216419670434 -0.000266520998888119 -0.000319038007258203 -5.3046391560016e-05 -0.000150494607507566 4.35318634801109e-05 -0.000212088103934585 -9.83305117119137e-05
"123" 6.33013765515387e-05 0.000165196661088941 -0.000301911664029691 -0.000483648222838416 -0.000239664969345552 -0.000105056172746797 -0.000156655949458368 -3.96983726650065e-05 -0.00018643744538978 -0.000273820792474888 -0.000325558532815371 -4.71107193652192e-05 -0.000148749846748101 4.02907906934409e-05 -0.000224034201573192 -0.000109071410565699
"124" 6.04170807623494e-05 0.000163336728953829 -0.000306578982032177 -0.000487770221878539 -0.000234610716003446 -0.000105419676357899 -0.000161516999768269 -3.90323048507581e-05 -0.000190714946108413 -0.00028049555206613 -0.000331716116215491 -4.08811811673303e-05 -0.000146461453833253 3.62771804509226e-05 -0.000235852601098729 -0.000119273571150297
"125" 5.65004088693031e-05 0.00016115559314053 -0.000310762964579479 -0.000491802331025117 -0.000229211858941812 -0.000105690895716403 -0.000166673809626646 -3.92056105789702e-05 -0.000194979233719291 -0.000286531001680144 -0.000337490531829694 -3.43863779969463e-05 -0.000143627224673879 3.14941249544641e-05 -0.000247487140335795 -0.000128909974863198
"126" 5.15597937357347e-05 0.000158573152127291 -0.000314480259208815 -0.000495696387793447 -0.00022351146741666 -0.000105872956653731 -0.000172127916347816 -4.02156666138364e-05 -0.000199213826513184 -0.00029190786727107 -0.000342850852007266 -2.76458011257819e-05 -0.000140234333167704 2.59570943570669e-05 -0.000258874907358259 -0.000137948057800816
"127" 4.56009869399207e-05 0.000155512454260576 -0.00031776008077716 -0.000499412737874196 -0.000217554872384434 -0.000105966313388799 -0.000177868628217286 -4.20566486164168e-05 -0.000203404590533555 -0.000296613736328366 -0.00034777800375704 -2.06826226508772e-05 -0.000136285446781614 1.96798071300916e-05 -0.000269963557229018 -0.000146367476196598
"128" 3.86397505067285e-05 0.000151901780253724 -0.000320627510767055 -0.000502913380249974 -0.000211389300218723 -0.000105971844705315 -0.000183884012593255 -4.47134405749293e-05 -0.000207535077300889 -0.000300639103619751 -0.000352256112882751 -1.35210448808794e-05 -0.000131780684892435 1.2679047068854e-05 -0.000280705586228873 -0.000154145054407852
"129" 3.06995957034103e-05 0.000147680869591204 -0.000323109098042496 -0.000506161089181118 -0.000205064568985608 -0.000105893328592728 -0.000190156199150959 -4.81710739907115e-05 -0.000211603494209944 -0.000303978868003287 -0.000356272349614014 -6.18334142520857e-06 -0.000126730892159847 4.97371739610338e-06 -0.000291061364147862 -0.00016126866381062
"130" 2.18121788677238e-05 0.000142797149304473 -0.000325233221510597 -0.000509128932975523 -0.000198630354380368 -0.000105740345241401 -0.000196662226767575 -5.23887826065493e-05 -0.000215598451496529 -0.000306629373401526 -0.000359820094174701 1.30510810204319e-06 -0.000121142604078383 -3.41680539950964e-06 -0.000300991822286385 -0.0001677281369945
"131" 1.20123452431583e-05 0.000137208351198552 -0.000327024610412587 -0.000511789159176952 -0.000192138366217635 -0.000105511383479778 -0.000203375184382089 -5.73353795354582e-05 -0.000219516457554094 -0.000308591346943501 -0.000362893788210148 8.91687765263851e-06 -0.000115034098695415 -1.24693741891662e-05 -0.000310462287231924 -0.000173512465262986
"132" 1.34727438675496e-06 0.000130880156953646 -0.000328511937819392 -0.000514120780488494 -0.000185639103671237 -0.000105217774618823 -0.000210262872465626 -6.29616514454733e-05 -0.000223356209724159 -0.000309865061315083 -0.000365493984720655 1.66283686362945e-05 -0.000108420063123675 -2.21611525193937e-05 -0.000319449313704838 -0.00017862369549566
"133" -1.01352022668493e-05 0.000123790983880484 -0.000329724751988448 -0.000516108726953344 -0.000179181083532419 -0.000104860550753502 -0.000217292615695831 -6.92224354950443e-05 -0.00022712164034629 -0.000310459814916158 -0.000367625570925677 2.4412339711521e-05 -0.000101330698803137 -3.24629675768277e-05 -0.00032793262555515 -0.000183060950496602
"134" -2.23854975879319e-05 0.000115931632608697 -0.000330684036668513 -0.000517741220031272 -0.000172816049016736 -0.000104451580910996 -0.000224422003504831 -7.60543193999632e-05 -0.000230815976661183 -0.000310386458457139 -0.000369299854776092 3.22455793794847e-05 -9.37908974847447e-05 -4.33499730032211e-05 -0.000335905113632722 -0.000186840274627365
"135" -3.53375324553912e-05 0.000107295108131155 -0.00033142073942366 -0.000519011349083159 -0.000166591940311539 -0.000103997741803342 -0.000231613589694632 -8.34002818406263e-05 -0.000234447611109131 -0.000309652350534955 -0.000370528518803096 4.0098102193214e-05 -8.58336240254904e-05 -5.47926570778843e-05 -0.000343349938625489 -0.000189965089732991
"136" -4.89254504024874e-05 9.7899827497626e-05 -0.000331950242330249 -0.000519912479597766 -0.000160552326891306 -0.000103502669047059 -0.000238818524341675 -9.11894522074973e-05 -0.00023801891781357 -0.000308279539060784 -0.000371321644309947 4.79509863239223e-05 -7.74905833407155e-05 -6.67562450563209e-05 -0.000350267068877807 -0.000192453452947876
"137" -6.30830099113374e-05 8.77626818899655e-05 -0.0003322966008504 -0.000520449797926725 -0.000154746913757195 -0.000102977767978782 -0.000245995101908716 -9.93520720570531e-05 -0.000241545572869196 -0.00030627708005233 -0.000371706191193618 5.57762983163607e-05 -6.88041076456654e-05 -7.92148582020312e-05 -0.000356660668068794 -0.000194329269412312
"138" -7.77390350964879e-05 7.69193366709121e-05 -0.000332481247848307 -0.000520628221894588 -0.000149211747568273 -0.00010243050496485 -0.00025309230269584 -0.00010781195665637 -0.000245037655998228 -0.000303672500309837 -0.000371699169415197 6.35525921671472e-05 -5.98141079089492e-05 -9.21309185647037e-05 -0.000362539105478826 -0.000195613986478529
"139" -9.28159625372841e-05 6.54135195136002e-05 -0.000332519662505678 -0.000520455671188174 -0.000143988936400913 -0.000101869499172858 -0.000260061587575591 -0.000116489418741322 -0.00024850542197672 -0.000300482385118856 -0.000371325521944259 7.12575773549861e-05 -5.05658047574432e-05 -0.000105467770877521 -0.000367909262342935 -0.000196335760686421
"140" -0.000108241466699973 5.32949999843844e-05 -0.000332422809484232 -0.000519945277811128 -0.000139113908868357 -0.000101299784010134 -0.000266856992871136 -0.000125309390194931 -0.000251970475160541 -0.000296734410121664 -0.000370612078710991 7.88692636735056e-05 -4.11108078569694e-05 -0.000119198079987084 -0.000372792079964949 -0.000196526265707501
"141" -0.000123931794850469 4.06304002334668e-05 -0.000332208383476616 -0.000519115328536122 -0.000134617931200758 -0.000100729582107026 -0.000273428579545466 -0.000134185500641074 -0.000255439287821165 -0.000292450787467999 -0.00036958737071594 8.6368491712126e-05 -3.14910863823318e-05 -0.000133273133259141 -0.000377205081656196 -0.000196222676391307
"142" -0.0001398076968237 2.74857091404837e-05 -0.000331881027246262 -0.000517979696112957 -0.000130529744307004 -0.000100165964390377 -0.000279735005803114 -0.000143045927349504 -0.000258933883165754 -0.000287664580938187 -0.000368280581533178 9.37379518740334e-05 -2.17662676442141e-05 -0.000147662337699278 -0.000381174892380326 -0.000195456921363582
"143" -0.000155787246312537 1.39517229355334e-05 -0.000331444948151917 -0.000516565373312231 -0.00012687036750719 -9.96185319180716e-05 -0.00028571966616523 -0.000151797178658554 -0.000262463314163129 -0.00028239585525566 -0.000366720200250821 0.000100962789241503 -1.19847760249787e-05 -0.000162325612812743 -0.00038471915159658 -0.000194273301861578
"144" -0.000171793752135695 1.05171568605754e-07 -0.000330907985101542 -0.000514893111942231 -0.000123661650094998 -9.90881339366124e-05 -0.000291350245631718 -0.000160372621849061 -0.000266050115794155 -0.000276683265216822 -0.000364939122963372 0.000108024919047089 -2.20093108267972e-06 -0.000177219568732285 -0.000387875139612998 -0.000192709976551806
"145" -0.000187746816137225 -1.39559768946058e-05 -0.000330266319760423 -0.000512987465106549 -0.000120919671459398 -9.85856205187918e-05 -0.000296580885328032 -0.000168685125196399 -0.00026969986056682 -0.000270553537639 -0.000362969666126915 0.000114917163639196 7.52980757424857e-06 -0.000192309264212915 -0.000390667860516466 -0.000190812619348017
"146" -0.000203565644465832 -2.81340787807828e-05 -0.00032951981519872 -0.000510877548422031 -0.000118653300399009 -9.81114502702072e-05 -0.000301373671190239 -0.000176668898099789 -0.000273435014234655 -0.000264035894066068 -0.000360837751172106 0.000121629153310111 1.71495138070539e-05 -0.000207549196420597 -0.000393129082886185 -0.000188625737677846
"147" -0.000219177843318696 -4.23292807352482e-05 -0.000328666583701372 -0.000508590804540211 -0.000116871779664946 -9.76706553532253e-05 -0.000305697173767335 -0.000184245441536852 -0.000277264103560034 -0.000257167124586198 -0.000358581521545766 0.000128148356998151 2.6605593959661e-05 -0.000222906444722101 -0.000395292399789256 -0.000186195899017452
"148" -0.000234506781778245 -5.64332036922818e-05 -0.000327694906934178 -0.000506154500409508 -0.000115570621906845 -9.72689203891801e-05 -0.000309520413542863 -0.000191352134132929 -0.000281198448452823 -0.000249975613027188 -0.000356225596786342 0.000134474770523396 3.58446348669624e-05 -0.000238333328882251 -0.000397192820420593 -0.000183569027867207
"149" -0.000249476343569162 -7.03404782334383e-05 -0.000326596673735237 -0.000503597740110853 -0.000114751456400141 -9.69070937895767e-05 -0.000312818919696423 -0.000197926392357132 -0.000285247320097035 -0.00024249658856253 -0.000353794810902779 0.000140605162356937 4.48119922168884e-05 -0.000253785651782755 -0.000398853354733672 -0.000180789706211692
"150" -0.000264026092204334 -8.39461009720471e-05 -0.00032536167825787 -0.000500949644374062 -0.000114407013915634 -9.65896406998507e-05 -0.00031557264680756 -0.000203911567548938 -0.000289422028232212 -0.000234759702926721 -0.000351322309058359 0.000146534101354854 5.3454053014731e-05 -0.000269230277508664 -0.000400315946298408 -0.000177906884931712
"151" -0.000278089624794913 -9.71428201037349e-05 -0.000323976401166224 -0.000498241332048271 -0.000114524379842855 -9.63156370154442e-05 -0.000317762307540767 -0.000209253543503596 -0.00029372218385577 -0.000226796407555259 -0.000348831233710178 0.000152267970260005 6.17237123489463e-05 -0.000284625389455982 -0.00040160405253878 -0.000174966617336172
"152" -0.000291597380188211 -0.00010982240717145 -0.000322427345724785 -0.000495496935466216 -0.000115089594467269 -9.60868100208699e-05 -0.000319384000540732 -0.000213916559270562 -0.000298156564138089 -0.000218637553084667 -0.000346340801177283 0.000157810432977035 6.95692800402032e-05 -0.000299928433704688 -0.000402753196792706 -0.000172010763249041
"153" -0.000304497427041916 -0.00012188486145706 -0.000320694845166001 -0.00049274279387637 -0.000116080130662844 -9.59033985283361e-05 -0.000320427606599905 -0.000217853979770982 -0.000302718318566562 -0.000210313016609102 -0.000343870917135268 0.000163167445867687 7.69539617403121e-05 -0.000315098417723381 -0.000403782726815084 -0.000169081894195341
"154" -0.000316740015686263 -0.000133232133693194 -0.00031876820388949 -0.000490008034721319 -0.000117473476751423 -9.57652396034511e-05 -0.00032089568021535 -0.000221039923312367 -0.000307414619282748 -0.000201854329281327 -0.000341444615991276 0.000168343928510324 8.3825496617888e-05 -0.000330100440008105 -0.000404723266318883 -0.000166225958735631
"155" -0.00032826518358371 -0.000143772716747141 -0.000316621003554308 -0.000487312752594546 -0.000119244330824363 -9.56704905220041e-05 -0.000320793706569628 -0.000223448483240612 -0.000312228447764692 -0.000193280934915607 -0.000339066901861506 0.000173357002767821 9.01530051883583e-05 -0.000344888355607242 -0.000405588479940506 -0.000163476526167181
"156" -0.000339038317737847 -0.000153417390701238 -0.000314247111962494 -0.000484682853590192 -0.000121367159927172 -9.56169829915652e-05 -0.000320133941553226 -0.000225064532269501 -0.000317159601124507 -0.000184624880523298 -0.000336757683092487 0.000178214952555039 9.58945163326369e-05 -0.000359431002914187 -0.000406408975875243 -0.000160873150298631
"157" -0.00034901819077016 -0.000162089563128134 -0.000311623534671806 -0.000482136916567303 -0.000123804360839289 -9.56053249956523e-05 -0.00031893558960666 -0.000225879673613011 -0.000322198803238929 -0.000175910118606219 -0.000334523003846476 0.000182932836808409 0.000101022542810482 -0.000373691517075691 -0.000407197891901347 -0.000158449968624947
"158" -0.000358161279548347 -0.000169709922214673 -0.000308734043385516 -0.000479693176494964 -0.000126522393262682 -9.56305346493899e-05 -0.000317212274503434 -0.000225886444628976 -0.000327322538150236 -0.000167154345577687 -0.000332364749287857 0.000187529316874863 0.000105512705704642 -0.000387630181293129 -0.000407958880338016 -0.000156234358058534
"159" -0.000366445589952862 -0.000176222558610486 -0.000305564438661958 -0.00047736915740157 -0.000129488492796713 -9.56909173129918e-05 -0.000315001564851535 -0.000225098169241745 -0.000332522113336721 -0.000158380107368761 -0.000330289000697931 0.000192020202393467 0.000109336288845839 -0.00040121826099019 -0.000408713759447489 -0.000154257972678099
"160" -0.00037384712587792 -0.000181571771964675 -0.000302102435939736 -0.00047517671019748 -0.00013266335096718 -9.57857151090863e-05 -0.000312332103076693 -0.000223526131720326 -0.000337774050323183 -0.000149607377537125 -0.000328296423264387 0.000196421510511209 0.000112475890850922 -0.000414419049507546 -0.000409465531747225 -0.000152543150086603
"161" -0.000380343396282366 -0.000185710868982798 -0.000298331637758091 -0.000473129014215355 -0.00013601134281561 -9.59089915211527e-05 -0.000309237420320131 -0.000221188994076647 -0.000343055492084003 -0.000140851598804583 -0.000326379356588732 0.000200758701014656 0.000114923512344972 -0.000427201474946632 -0.000410214860132682 -0.000151111420731798
"162" -0.00038591541610238 -0.000188608975528906 -0.000294246014226931 -0.000471234737323731 -0.000139491851809127 -9.60563273281392e-05 -0.000305765115748897 -0.000218116702569736 -0.000348340749156585 -0.00013212550402249 -0.000324532267681364 0.000205048540482219 0.000116664964403289 -0.000439533088112449 -0.000410961556419888 -0.000149976476169361
"163" -0.000390561998300972 -0.000190242492714517 -0.000289837387205259 -0.000469502558724148 -0.000143068749133512 -9.62282456029725e-05 -0.000301956758204128 -0.000214339517166985 -0.000353603402469591 -0.000123442370811616 -0.000322749430199378 0.000209309970627468 0.000117696218480487 -0.00045139080609731 -0.000411708955806135 -0.000149156472344728
"164" -0.000394275286071407 -0.000190600909630452 -0.000285098429895713 -0.000467935263221618 -0.000146702422312081 -9.64198802630233e-05 -0.000297866782708808 -0.000209903460149607 -0.000358812757227988 -0.000114813222739138 -0.000321015345482221 0.00021356750879638 0.000118014511618915 -0.000462741266251413 -0.0004124460131572 -0.000148657281880913
"165" -0.000397055865543924 -0.000189680002918283 -0.000280028889648524 -0.000466536205520173 -0.000150354703114946 -9.66274293531067e-05 -0.000293542778540915 -0.000204847795234186 -0.000363938722830598 -0.000106246641817865 -0.000319318354743343 0.000217843477607272 0.000117631866954083 -0.000473566387880319 -0.000413163708272465 -0.000148484888415815
"166" -0.000398907856029607 -0.000187492176892416 -0.000274627142535155 -0.00046530718872971 -0.00015399187311804 -9.68480717532661e-05 -0.000289034937462322 -0.000199225165884602 -0.000368946121838014 -9.77459257326236e-05 -0.000317641276253111 0.000222155471089042 0.000116555461348394 -0.000483837031319807 -0.000413850024192937 -0.000148637555062384
"167" -0.000399842712717747 -0.000184062353068376 -0.000268897991871615 -0.000464246319685845 -0.00015757469934553 -9.70786522704813e-05 -0.000284409207416372 -0.000193093436394875 -0.000373798788247223 -8.93197457402047e-05 -0.00031596799466382 0.000226522536063216 0.000114795456269591 -0.000493531206702505 -0.000414495006980669 -0.000149114977859013
"168" -0.000399874634254934 -0.000179421734391629 -0.000262852259868922 -0.000463349605503787 -0.000161076485280698 -9.7316918828682e-05 -0.000279715890797913 -0.000186510151778031 -0.00037846333206636 -8.09679914177481e-05 -0.000314275154599184 0.000230970635635273 0.000112376272520428 -0.00050263470529069 -0.00041507667177409 -0.000149910024871894
"169" -0.000399026992565795 -0.000173618157943827 -0.000256498052299118 -0.000462610210895843 -0.000164464855284947 -9.75600986980721e-05 -0.000275020495184161 -0.000179541176298363 -0.00038290343650471 -7.26947271680699e-05 -0.000312546573185638 0.000235509225161895 0.000109316134422343 -0.000511125009991693 -0.0004155837390886 -0.000151012096951144
"170" -0.000397321280548168 -0.000166706313707959 -0.000249849054878129 -0.000462023479380019 -0.000167706596700069 -9.78068614213279e-05 -0.000270380884874002 -0.000172248501049223 -0.00038707980434976 -6.44979638682184e-05 -0.000310759428823182 0.000240162070458165 0.000105642669573666 -0.000518983364158235 -0.000415987849834148 -0.000152407713027559
"171" -0.000394783773879625 -0.000158749031847952 -0.000242927137099077 -0.000461580592459569 -0.000170784663628005 -9.80531776528017e-05 -0.000265853913400959 -0.000164708027923187 -0.000390956580566954 -5.63796231214791e-05 -0.000308889322772374 0.00024494117754588 0.000101389784784707 -0.000526200232050869 -0.000416275405239252 -0.000154076068804547
"172" -0.000391448588825018 -0.000149824338941343 -0.000235750569476966 -0.000461269169645025 -0.000173671096151039 -9.82989502406359e-05 -0.000261498265776981 -0.000156983210771131 -0.000394498546293699 -4.83365287241509e-05 -0.000306914364453399 0.000249857444903556 9.65896081083351e-05 -0.000532758052016933 -0.000416419195139955 -0.000155999824704843
"173" -0.000387352378362171 -0.00014001578521942 -0.000228348431765929 -0.000461079230068181 -0.000176347214782002 -9.85418738787593e-05 -0.000257371143613037 -0.000149146442762294 -0.000397667270967036 -4.03683625672534e-05 -0.00030481163963977 0.000254925148747374 9.12786788037791e-05 -0.000538646092470325 -0.000416396799080397 -0.000158150347653353
"174" -0.000382533718990838 -0.000129416553443203 -0.000220749317241187 -0.000460998447521776 -0.000178801552255421 -9.87822943975351e-05 -0.000253526726958964 -0.000141269345861685 -0.000400432347483381 -3.247244218596e-05 -0.000302561526752979 0.000260153164565171 8.55017046050686e-05 -0.000543862362030504 -0.00041618477000235 -0.000160504635759926
"175" -0.000377029962548505 -0.000118128151144907 -0.000212982576522682 -0.000461011832997075 -0.000181014096371237 -9.90173280184046e-05 -0.00025001575923631 -0.000133419992990558 -0.000402758567979935 -2.46449565557429e-05 -0.000300135485535622 0.000265543920481876 7.92996280306486e-05 -0.000548389408447402 -0.000415762426013605 -0.000163030777966607
"176" -0.000370896704236896 -0.000106254321112529 -0.000205089456248607 -0.000461106502006633 -0.000182983329220222 -9.92467471097731e-05 -0.000246888840583741 -0.000125674537889635 -0.000404615945851442 -1.68862565268352e-05 -0.000297518971319103 0.00027110187696706 7.27156631107764e-05 -0.000552226736669526 -0.000415102300133818 -0.000165698312851783
"177" -0.000364168912657907 -9.39067485030939e-05 -0.000197102675824849 -0.000461265244398285 -0.00018470031428538 -9.94718986715371e-05 -0.000244186783597105 -0.00011809422444207 -0.000405974054649676 -9.19301358135758e-06 -0.000294687239911746 0.000276826861178253 6.58004118888054e-05 -0.000555367406450115 -0.000414185135261318 -0.000168469468487561
"178" -0.000356905847447025 -8.12076253079244e-05 -0.000189066977575215 -0.000461469717766394 -0.000186166344744417 -9.96874215281853e-05 -0.00024195134142158 -0.000110747429647046 -0.000406811901433573 -1.56888107374968e-06 -0.000291623735080305 0.000282717000226265 5.86044602676508e-05 -0.000557808184520285 -0.000412983554583566 -0.00017131224971865
"179" -0.000349152104317537 -6.82663315621973e-05 -0.000181024580600586 -0.000461708251665108 -0.000187379872724776 -9.98982697885303e-05 -0.000240213724712915 -0.000103692179388061 -0.000407098703239645 5.99016506281856e-06 -0.000288309474244692 0.000288767079479802 5.11747902460655e-05 -0.000559547181735993 -0.000411479922591631 -0.000174188015728014
"180" -0.000340962941758869 -5.52145721830035e-05 -0.000173022452272939 -0.000461958385441815 -0.000188345173186466 -0.000100103255533715 -0.000239005899984678 -9.69871668868621e-05 -0.000406820824875018 1.34798826403909e-05 -0.000284732554415721 0.000294964052999519 4.35662069720666e-05 -0.000560586609883023 -0.000409653301125098 -0.000177058209304661
"181" -0.000332392236543523 -4.21709091492891e-05 -0.000165105141725866 -0.000462207560181637 -0.000189074870938816 -0.000100300328190514 -0.000238352994387716 -9.06875603036323e-05 -0.000405960972254779 2.08984970888202e-05 -0.000280877780580975 0.000301297496871522 3.58265924862784e-05 -0.000560928628303369 -0.000407485240271558 -0.000179888792867152
"182" -0.000323492531745248 -2.92563247333888e-05 -0.000157322884501451 -0.000462433676487274 -0.000189578873545379 -0.0001004895590618 -0.00023826779805853 -8.48374855634118e-05 -0.000404503846060773 2.82417412776853e-05 -0.000276735682068498 0.000307752712659768 2.80098457822391e-05 -0.000560574104246324 -0.000404958226991314 -0.000182632370638603
"183" -0.000314319987790354 -1.6592136174856e-05 -0.000149722994975845 -0.000462622488161302 -0.000189869252583756 -0.00010067191958375 -0.000238768128397455 -7.94828432210483e-05 -0.000402443768320448 3.55010817511727e-05 -0.000272298366118523 0.000314308847302561 2.01685511345216e-05 -0.000559522948592392 -0.000402056914050689 -0.000185257101733466
"184" -0.000304924260318319 -4.29722140852411e-06 -0.000142357036427799 -0.000462753593746642 -0.000189966969982462 -0.000100845489913092 -0.000239853769676128 -7.46580402983838e-05 -0.000399776443958803 4.26688025862858e-05 -0.000267556343257992 0.000320945428352459 1.23524207010033e-05 -0.000557785811239625 -0.000398766937090532 -0.00018771847898236
"185" -0.000295365904734807 7.51656927698742e-06 -0.000135271057393724 -0.00046281040980094 -0.000189888464822591 -0.000101011096128568 -0.000241525933902845 -7.03942299548236e-05 -0.000396500403924004 4.97319759047573e-05 -0.000262512003598664 0.000327632327955232 4.60905820830041e-06 -0.000555365496709372 -0.000395079529386468 -0.000189985846644039
"186" -0.000285693387360208 1.87365672830143e-05 -0.000128517790487227 -0.00046277648067918 -0.000189656630511663 -0.000101165551320986 -0.000243780015558499 -6.67220251997128e-05 -0.000392621239911445 5.66786634836647e-05 -0.000257165102129757 0.000334346724271311 -3.01645405110747e-06 -0.000552270363946291 -0.000390991091340524 -0.000192020695182557
"187" -0.000275955989781853 2.92652242734838e-05 -0.000122139411966784 -0.000462632427314693 -0.000189296127925527 -0.000101308145467909 -0.000246594933357282 -6.36442127715517e-05 -0.000388145593619913 6.34967621718314e-05 -0.000251515172592646 0.000341055946465943 -1.04711827174094e-05 -0.000548507370928282 -0.000386486306572928 -0.000193784794706603
"188" -0.000266210374470051 3.90063689479149e-05 -0.000116188126119353 -0.00046236529259463 -0.00018883009490635 -0.000101438350246765 -0.000249957656140256 -6.11861761891629e-05 -0.00038308662048255 7.01633201950989e-05 -0.000245574057336346 0.000347727066283173 -1.77198910959335e-05 -0.00054408940873234 -0.000381568941529477 -0.000195251432816915
"189" -0.000256501866432665 4.78707892062482e-05 -0.000110703285295355 -0.000461955210801735 -0.000188288302175053 -0.000101555764676028 -0.000253839827481434 -5.93392422701638e-05 -0.000377463734867231 7.66614326678986e-05 -0.000239346333347911 0.000354323751008384 -2.47151596776697e-05 -0.000539022634706139 -0.000376233719661379 -0.000196385627579756
"190" -0.000246878524943729 5.57831434207586e-05 -0.000105727076941346 -0.000461390878551678 -0.000187693234304964 -0.000101653588198443 -0.000258208404005613 -5.81077997062188e-05 -0.000371298710465654 8.29723094945679e-05 -0.000232846871789518 0.000360807914251066 -3.14216212327187e-05 -0.000533321531380092 -0.000370487581633897 -0.000197163814749357
"191" -0.000237381918770173 6.26736958583462e-05 -0.000101299518822147 -0.00046065482997489 -0.000187077284962625 -0.000101731212098002 -0.000263031930978836 -5.74823264068033e-05 -0.00036461504834226 8.90667058304724e-05 -0.000226088037061563 0.000367140903055202 -3.78097217846698e-05 -0.000526995506116851 -0.000364332043271476 -0.000197557413486722
"192" -0.000228059081826172 6.84862483532275e-05 -9.74534657774935e-05 -0.000459735668138393 -0.000186466353989491 -0.000101785807590836 -0.000268268085795993 -5.74378422694767e-05 -0.000357444266876223 9.49236605607861e-05 -0.000219092804705847 0.000373282142213664 -4.38413267412805e-05 -0.000520055868159691 -0.000357773910904702 -0.000197547208350419
"193" -0.000218943312969644 7.31746310898357e-05 -9.42212572455031e-05 -0.000458622144851667 -0.00018588502838275 -0.000101814086895291 -0.000273867159143414 -5.79580217651937e-05 -0.000349819429493083 0.000100511459698227 -0.000211875797321169 0.000379188947012802 -4.94904873997958e-05 -0.000512520758150345 -0.000350821334958941 -0.000197112849188448
"194" -0.000210077367143836 7.6704297457096e-05 -9.16302161266641e-05 -0.000457299406196613 -0.000185363374077402 -0.000101809395080666 -0.000279783502145835 -5.9010266911145e-05 -0.00034177502089741 0.000105803770745566 -0.00020446303467058 0.000384820545434969 -5.47343428460624e-05 -0.00050439851232205 -0.000343489235551576 -0.000196237057353462
"195" -0.000201495184702358 7.90478897847048e-05 -8.97080977445113e-05 -0.000455759397041591 -0.000184929509386529 -0.000101770723446256 -0.000285966260984093 -6.05612149286187e-05 -0.000333357038613022 0.000110770108207365 -0.000196882056799985 0.00039013227947514 -5.95531736955079e-05 -0.000495711101989258 -0.000335791169018472 -0.000194913720035872
"196" -0.000193229641475426 8.01966483524256e-05 -8.84665803515183e-05 -0.00045399466799256 -0.0001846033336206 -0.000101691604683761 -0.000292357412057602 -6.25708413571819e-05 -0.000324603326641723 0.000115381185517964 -0.000189159517507248 0.000395085893939894 -6.39334960261413e-05 -0.0004864713992553 -0.000327745950523521 -0.000193133967300386
"197" -0.000185302200726648 8.01490271335731e-05 -8.79255782801374e-05 -0.00045199640987611 -0.0001844104596422 -0.000101566429232878 -0.000298902883519034 -6.49913710186368e-05 -0.000315562627964413 0.000119603422287063 -0.000181323800865683 0.000399636200410383 -6.78602882028966e-05 -0.000476694362038275 -0.000319367549962579 -0.000190891259791207
"198" -0.00017774850443909 7.89141389350689e-05 -8.8090693337187e-05 -0.000449756805741298 -0.000184373587980174 -0.00010138893920751 -0.000305544614346759 -6.77780754663402e-05 -0.000306281830852477 0.000123402901358211 -0.000173408074911047 0.000403741824625423 -7.1328212299876e-05 -0.000466400076249119 -0.000310679351474366 -0.000188186538369234
"199" -0.000170583408237652 7.65143722884348e-05 -8.89666894298769e-05 -0.000447274267277844 -0.000184511273012479 -0.000101155135433426 -0.000312225529099992 -7.08790162607709e-05 -0.000296810705366271 0.000126751034520938 -0.000165445702066725 0.000407365615229163 -7.43292394529972e-05 -0.000455606423994312 -0.000301708411756772 -0.000185022165731531
"200" -0.000163830297428683 7.29863882707051e-05 -9.05515765364047e-05 -0.000444546899956283 -0.000184836502448351 -0.000100858987111094 -0.000318882420096727 -7.42297111548519e-05 -0.000287197772311176 0.000129618990283236 -0.00015746922223481 0.000410474804523957 -7.68667382487272e-05 -0.000444332815086307 -0.000292471981480513 -0.000181406801867949
"201" -0.000157505108527134 6.83658722611428e-05 -9.28394700947725e-05 -0.000441570345101642 -0.000185368908504304 -0.000100492778978637 -0.000325460733077483 -7.7783074568206e-05 -0.000277498473654757 0.000131968463869988 -0.00014951388571413 0.000413024268993592 -7.89445456646803e-05 -0.000432597167947469 -0.000282997980774404 -0.00017735372439174
"202" -0.000151626282009673 6.27064426256197e-05 -9.58213350419074e-05 -0.000438348067168004 -0.000186119814945625 -0.000100053293117325 -0.000331905010648975 -8.14739581825953e-05 -0.000267766490920076 0.000133774515713077 -0.000141619970187763 0.000414989429001772 -8.0571352993214e-05 -0.000420422545155449 -0.00027331838982303 -0.000172874846757268
"203" -0.000146200405499051 5.60707253351147e-05 -9.94766879118227e-05 -0.000434882224738127 -0.000187092389222772 -9.95314006576398e-05 -0.000338155981069018 -8.52423006187896e-05 -0.00025804765128148 0.000135009924819841 -0.000133818853404605 0.000416337742673025 -8.17540898876036e-05 -0.000407829437568127 -0.000263455188332808 -0.000167987035443557
"204" -0.00014123472611206 4.85245482579533e-05 -0.00010378416460793 -0.000431175982099939 -0.000188295254956631 -9.89205659907125e-05 -0.000344161697838431 -8.90285138980318e-05 -0.000248397502602629 0.000135647426240939 -0.000126148438837806 0.000417045854262281 -8.25113729842923e-05 -0.00039484047606935 -0.000253436945188647 -0.000162712519256831
"205" -0.000136742554706098 4.014216569472e-05 -0.000108722402883032 -0.000427237246107923 -0.000189729753475843 -9.82172872334433e-05 -0.000349875441408256 -9.27739259287649e-05 -0.00023886746176272 0.000135664030338431 -0.000118645402892646 0.000417089317985813 -8.28595095111569e-05 -0.00038147843080143 -0.000243299702021547 -0.000157079514509179
"206" -0.000132724119996751 3.10044500653229e-05 -0.00011426012843409 -0.000423072339675408 -0.000191398855277596 -9.74171230516216e-05 -0.000355245299285375 -9.64165955543973e-05 -0.000229506592443094 0.000135038687709875 -0.000111344758144545 0.000416450672862157 -8.28220564594605e-05 -0.000367769700091673 -0.00023306881915768 -0.000151109358734838
"207" -0.000129177653072844 2.11960403621575e-05 -0.000120359870854214 -0.000418694316510098 -0.000193297307446562 -9.65138237527462e-05 -0.000360232512760253 -9.99010018725424e-05 -0.000220366263809577 0.000133753447886701 -0.000104283304487981 0.000415116655873096 -8.24182341320097e-05 -0.000353740298167449 -0.000222777982031659 -0.000144835419831081
"208" -0.000126107506343177 1.08098818771905e-05 -0.000126980686520817 -0.000414112919459858 -0.000195415146772285 -9.55019507706735e-05 -0.000364790506528417 -0.000103167145143718 -0.00021148512521775 0.000131797548045166 -9.74915254153017e-05 0.000413078704445737 -8.16762423309138e-05 -0.000339414267378055 -0.000212451406149953 -0.000138288565093739
"209" -0.00012350488230054 -6.60239964497131e-08 -0.000134087039340387 -0.000409342697644835 -0.000197746782926798 -9.43761341604137e-05 -0.000368889040410669 -0.000106167595284952 -0.000202913083203966 0.00012915499524877 -9.10022060612232e-05 0.000410328339780515 -8.06218519724275e-05 -0.000324816245929031 -0.000202127977436972 -0.000131501444806034
"210" -0.000121372660899415 -1.13381607735943e-05 -0.000141630087705038 -0.000404401401023684 -0.000200275642256721 -9.31376659231504e-05 -0.000372495964470717 -0.000108850978688621 -0.000194690270344576 0.000125823344673599 -8.48532154517719e-05 0.000406870990492317 -7.92908156248578e-05 -0.00030998530415692 -0.000191835591569362 -0.000124513109887227
"211" -0.000119697940714159 -2.29083696384499e-05 -0.000149558371962584 -0.00039930349116853 -0.000202990042285412 -9.17807622450749e-05 -0.000375583105768971 -0.000111170204333944 -0.000186850346734011 0.000121800472717119 -7.90624507735083e-05 0.000402710223120817 -7.77095454344244e-05 -0.000294941143054711 -0.000181602532800506 -0.000117358260480251
"212" -0.000118469682835636 -3.46849404064404e-05 -0.00015782726050753 -0.00039407008519426 -0.000205865918779835 -9.03022541225822e-05 -0.000378129279065799 -0.000113085028124295 -0.000179428520242366 0.000117087774470765 -7.36647070481327e-05 0.000397853969122102 -7.591483885993e-05 -0.000279717772734783 -0.000171460776544958 -0.000110074076917111
"213" -0.000117685204386891 -4.65713291817995e-05 -0.00016638376443502 -0.000388723762797502 -0.000208888049431766 -8.87042998287654e-05 -0.000380115104162245 -0.000114559452094838 -0.000172456033091445 0.000111692704504497 -6.86832277539019e-05 0.000392318792508673 -7.39376360092287e-05 -0.00026434801577486 -0.00016143467983627 -0.000102701850965145
"214" -0.000117325974838179 -5.84827506634101e-05 -0.000175168757088633 -0.000383281755682201 -0.000212031353476488 -8.69840485848378e-05 -0.000381533225153884 -0.000115561029053053 -0.000165958321990925 0.000105626036735927 -6.41368040819539e-05 0.000386127345254237 -7.18125051906097e-05 -0.000248863531609767 -0.00015155720093738 -9.52807371690593e-05
"215" -0.000117380689300788 -7.03241996169714e-05 -0.000184130870655512 -0.000377774268656188 -0.000215269753828419 -8.51428807801033e-05 -0.000382374107124259 -0.000116061405614271 -0.000159959247457696 9.89042434655617e-05 -6.00506152497445e-05 0.000379298461506764 -6.95790671752905e-05 -0.000233296850696523 -0.000141855848765154 -8.78461510730534e-05
"216" -0.000117840065814328 -8.2012783142299e-05 -0.000193212485071306 -0.000372223319848389 -0.000218577588046499 -8.3184252221459e-05 -0.000382632333446892 -0.000116033573030952 -0.000154475122682532 9.15521925898194e-05 -5.64398253488386e-05 0.00037186758830128 -6.72700601150686e-05 -0.000217683703778319 -0.000132355086870997 -8.04435114377829e-05
"217" -0.00011867831672895 -9.34689106544797e-05 -0.000202354538887981 -0.000366654694064887 -0.000221925185391704 -8.11089067815962e-05 -0.000382311458098226 -0.000115470517375792 -0.000149519295672207 8.35939655598987e-05 -5.33157406891437e-05 0.000363866400981849 -6.49197804471143e-05 -0.000202059628320465 -0.000123077316501732 -7.3104436891589e-05
"218" -0.000119888507384894 -0.000104617033027826 -0.000211507285004217 -0.000361098393748562 -0.000225284502037311 -7.89192793140682e-05 -0.000381422156857509 -0.000114354647484217 -0.00014510129651645 7.50605509923294e-05 -5.06941836326845e-05 0.000355334147130501 -6.25693382905978e-05 -0.00018646112557888 -0.000114056323796285 -6.58711173354914e-05
"219" -0.000121451749724525 -0.000115389416860577 -0.000220612902947895 -0.000355579835889726 -0.000228627867170025 -7.66254223798303e-05 -0.000379973309506695 -0.000112680083708753 -0.000141229961552587 6.59870129723819e-05 -4.85862055192545e-05 0.000346310768283387 -6.02516279083214e-05 -0.000170924595154796 -0.000105310126302945 -5.8782185216322e-05
"220" -0.000123346698144646 -0.000125716199925054 -0.000229611827732141 -0.000350127201632465 -0.000231917046606952 -7.42296498904028e-05 -0.000377976843951258 -0.000110440344152001 -0.000137900015568827 5.64150053136234e-05 -4.69945582607567e-05 0.000336844385472055 -5.79969661403861e-05 -0.000155488286166291 -9.68595446135262e-05 -5.18703135639199e-05
"221" -0.000125557298521332 -0.00013554691265256 -0.000238454580007494 -0.000344771865819629 -0.00023512376040209 -7.1737561683248e-05 -0.000375457333614993 -0.00010764993509078 -0.000135109298140711 4.63879685918228e-05 -4.59186200697107e-05 0.000326986379581024 -5.5846560909162e-05 -0.000140187228352284 -8.87265564523796e-05 -4.51689679190272e-05
"222" -0.000128067616682478 -0.000144825184744688 -0.000247088053704658 -0.000339539250915396 -0.000238216457215094 -6.91578577283312e-05 -0.000372435635216482 -0.00010430828364933 -0.000132850940573153 3.59562228428489e-05 -4.53667249650513e-05 0.000316788483613239 -5.38267611544001e-05 -0.000125061445033568 -8.09333333877573e-05 -3.87108411614973e-05
"223" -0.000130859106614014 -0.000153509969189493 -0.000255461370273048 -0.000334461332857965 -0.000241162092036433 -6.65008690325277e-05 -0.000368941443204906 -0.000100435218019747 -0.000131116169667776 2.51672422851464e-05 -4.5333750076334e-05 0.000306305352972192 -5.19738434018672e-05 -0.00011015332028321 -7.35006687968754e-05 -3.25299761488733e-05
"224" -0.000133911102491546 -0.00016156459921619 -0.00026352841713534 -0.000329564056278766 -0.000243934440195185 -6.37736182046102e-05 -0.000365003785879901 -9.60442414895629e-05 -0.000129881679118198 1.40812155524827e-05 -4.58117180935301e-05 0.000295595502290446 -5.03167864184789e-05 -9.54922726646739e-05 -6.6443326922618e-05 -2.66490439851882e-05
"225" -0.000137204561769651 -0.000168956656791424 -0.00027124095884199 -0.000324874905246407 -0.000246495029552127 -6.0987794860859e-05 -0.00036065022353262 -9.11563099836644e-05 -0.000129133257669658 2.75559516231998e-06 -4.67967914457418e-05 0.000284720752959299 -4.88807365152993e-05 -8.11195932339754e-05 -5.97778673017148e-05 -2.10984593558547e-05
"226" -0.00014072199560293 -0.000175668808908083 -0.000278560937777519 -0.000320420782582064 -0.000248822042060891 -5.81534878321357e-05 -0.000355925080088431 -8.58021464166468e-05 -0.000128844733722987 -8.75318450888231e-06 -4.82762952237094e-05 0.000273739654299146 -4.76956748698255e-05 -6.70775903946073e-05 -5.3520278544315e-05 -1.58994642549554e-05
"227" -0.00014444690560407 -0.00018168028544234 -0.000285446702713246 -0.000316227793833368 -0.000250883551314011 -5.52819290621431e-05 -0.000350861056875579 -8.00099177997146e-05 -0.000128994338639064 -2.0375963006969e-05 -5.0240477820114e-05 0.000262715035900544 -4.67869287899301e-05 -5.33962558995521e-05 -4.76902123771518e-05 -1.10727598159018e-05
"228" -0.000148362289359624 -0.000186982313916178 -0.000291857281431793 -0.000312318999958421 -0.000252648922603464 -5.23872573288754e-05 -0.000345496620498145 -7.38054517511824e-05 -0.000129547493838787 -3.20470492335874e-05 -5.26721885330686e-05 0.000251713015691802 -4.61753920008575e-05 -4.01107325438255e-05 -4.22933907428252e-05 -6.63540593800743e-06
"229" -0.000152447585340379 -0.000191579532852202 -0.000297765692735216 -0.000308716263514724 -0.000254100473358326 -4.94780117409229e-05 -0.000339879141734785 -6.72345524176516e-05 -0.000130476946596567 -4.37103607337691e-05 -5.55561975956517e-05 0.000240791964454922 -4.58854146923898e-05 -2.72618040005412e-05 -3.73463988483391e-05 -2.60515473452123e-06
"230" -0.000156690581013583 -0.000195469697797853 -0.000303139837084861 -0.000305438219188194 -0.000255209510812634 -4.6568342400521e-05 -0.000334042279561961 -6.03283894801419e-05 -0.000131744842315924 -5.52889501550561e-05 -5.88708690464525e-05 0.000230020768186805 -4.59304292286023e-05 -1.4874960949568e-05 -3.28569652085056e-05 1.00762296477999e-06
"231" -0.000161074155914899 -0.000198665960895167 -0.000307954751142118 -0.000302506607572226 -0.00025595906740328 -4.36740636439589e-05 -0.00032803567978465 -5.31279825915396e-05 -0.000133316469909068 -6.67227206710995e-05 -6.25971786352845e-05 0.000219454117614172 -4.63313612584099e-05 -2.98656873981805e-06 -2.88373582031605e-05 4.19070404969979e-06
"232" -0.000165579692467927 -0.000201188028396552 -0.000312184823791398 -0.000299929840275269 -0.000256326577888084 -4.0801729656353e-05 -0.000321900068635891 -4.56765612496717e-05 -0.000135153045699705 -7.79411045199757e-05 -6.67112041751023e-05 0.000209157924444346 -4.70975988632041e-05 8.3794071952203e-06 -2.52911826908969e-05 6.94256049222914e-06
"233" -0.000170199543353018 -0.000203051191681951 -0.000315814336127784 -0.00029772938822349 -0.000256298647212347 -3.79693025837873e-05 -0.000315675994281657 -3.80116281315365e-05 -0.000137218172967347 -8.88812115265748e-05 -7.11901265993513e-05 0.000199188824106378 -4.82462365345978e-05 1.91922770667548e-05 -2.22309357766287e-05 9.25405754491833e-06
"234" -0.000174914481849201 -0.000204287894041783 -0.000318824701576075 -0.000295906682310439 -0.000255856979786085 -3.51887620914184e-05 -0.000309409053622744 -3.01812853594231e-05 -0.000139466729349253 -9.94769274499406e-05 -7.60068493638873e-05 0.00018960741287138 -4.97763697269779e-05 2.94303307277087e-05 -1.96560058515067e-05 1.11302988730564e-05
"235" -0.000179713363273314 -0.000204928789768213 -0.000321208302592015 -0.000294470455762622 -0.000254995522806478 -3.24665923262238e-05 -0.00030314037500637 -2.22278428154408e-05 -0.00014185999362737 -0.000109665744521551 -8.11339597457926e-05 0.000180462067797454 -5.17025927126758e-05 3.90733314127184e-05 -1.75690852278117e-05 1.25719732714446e-05
"236" -0.000184586045590606 -0.00020500819030637 -0.000322955637895467 -0.000293425669842481 -0.00025370185247891 -2.98213033753294e-05 -0.000296910593465804 -1.41972424272014e-05 -0.000144356387164198 -0.00011939139854775 -8.65461240467022e-05 0.000171805668329563 -5.40276691802468e-05 4.80963294319242e-05 -1.59769489752231e-05 1.3581415913132e-05
"237" -0.000189520517602813 -0.000204565216343758 -0.000324062125884429 -0.000292768777007198 -0.000251972977952693 -2.72604919286059e-05 -0.000290754631029416 -6.12624033396943e-06 -0.000146914689355235 -0.000128590949703342 -9.22089517358971e-05 0.000163686704390381 -5.67443497715696e-05 5.64922921246014e-05 -1.48733950516408e-05 1.41697185483397e-05
"238" -0.000194503273206715 -0.000203639911869103 -0.000324529284929294 -0.000292498746350355 -0.000249803816751903 -2.47924319623162e-05 -0.000284710553809512 1.93628999931165e-06 -0.000149495636054209 -0.000137213008946296 -9.80954768487141e-05 0.000156148498987025 -5.98559775273838e-05 6.42419051928673e-05 -1.42581690281523e-05 1.43493576449905e-05
"239" -0.000199528689571939 -0.000202278699704969 -0.000324357536352383 -0.000292605722525957 -0.000247192115726861 -2.24311993565856e-05 -0.000278816172802086 9.95151559286334e-06 -0.000152056878498956 -0.000145206374009037 -0.000104173270310265 0.0001492327597829 -6.3353412193817e-05 7.13439177336113e-05 -1.41271444050416e-05 1.41320321290265e-05
"240" -0.000204587445087537 -0.000200525127955889 -0.000323553295652412 -0.000293081298336494 -0.000244146546196748 -2.0180246359198e-05 -0.00027310301760526 1.78760797354943e-05 -0.000154557072638965 -0.00015252464525907 -0.000110414019199761 0.000142975201616086 -6.72329176369722e-05 7.77908019477402e-05 -1.44756732966145e-05 1.3535466852945e-05
"241" -0.000209669215767643 -0.000198430579198038 -0.000322126860393429 -0.000293905583372793 -0.00024066946068388 -1.80508512246055e-05 -0.000267598041396912 2.56759653227338e-05 -0.000156959585561416 -0.000159125521154708 -0.000116785098827733 0.000137403051963211 -7.14787878935192e-05 8.35791292702424e-05 -1.52906818442908e-05 1.25800041279279e-05
"242" -0.00021477026354944 -0.00019603945910074 -0.000320091620922103 -0.000295065836140301 -0.000236766780031823 -1.6047438967681e-05 -0.000262329031002722 3.33114262728519e-05 -0.000159229699035758 -0.000164966956321663 -0.000123254259281365 0.000132545587608363 -7.60816887606925e-05 8.87143908385412e-05 -1.65679489683758e-05 1.12827858799389e-05
"243" -0.000219883695612981 -0.000193401510787624 -0.000317464167082989 -0.000296535735489071 -0.000232451838118435 -1.41740557149129e-05 -0.000257321875086459 4.07492551633697e-05 -0.000161331672191807 -0.000170024296240841 -0.000129789725605745 0.000128422108847579 -8.10238968815363e-05 9.31992864371829e-05 -1.82897436720168e-05 9.67104959551402e-06
"244" -0.000224999104058203 -0.000190564312642478 -0.000314256285489502 -0.000298289610499155 -0.000227737542124563 -1.24377908427492e-05 -0.000252590989189031 4.79579726911759e-05 -0.000163227559343415 -0.00017426184633083 -0.000136360257419131 0.000125049164627132 -8.62827159401935e-05 9.70502617860713e-05 -2.04425273718283e-05 7.77017691154523e-06
"245" -0.000230116017392707 -0.000187569788734069 -0.000310496433899588 -0.000300302801055387 -0.000222641585568159 -1.08392685250635e-05 -0.00024815735625362 5.49069637620373e-05 -0.000164891237705523 -0.000177660406474461 -0.000142936705625844 0.000122436296970403 -9.18407946725986e-05 0.00010027959121326 -2.30102667595741e-05 5.60771476263078e-06
"246" -0.000235231671790092 -0.000184471265048771 -0.000306202956286799 -0.000302540338692573 -0.00021718218761958 -9.37833640183283e-06 -0.000244037290575372 6.15684675491518e-05 -0.000166294309129192 -0.000180200858112783 -0.000149484125689509 0.000120590713129217 -9.76761601311591e-05 0.000102899870918966 -2.59738417382779e-05 3.21079740734283e-06
"247" -0.000240337646488964 -0.000181304600670198 -0.000301403660555077 -0.000304971147974492 -0.000211379504391076 -8.05989682719363e-06 -0.000240233842565196 6.79230938308491e-05 -0.000167409345283103 -0.000181878104032799 -0.000155975517224019 0.000119509056959082 -0.000103756512012432 0.00010493866434932 -2.93086027358136e-05 6.14664150012665e-07
"248" -0.00024543108789609 -0.000178118360447573 -0.000296125485904636 -0.000307553330913788 -0.000205255821183701 -6.87597874641571e-06 -0.000236758155098042 7.39458644601669e-05 -0.000168212239426923 -0.000182680881684612 -0.000162381574418319 0.000119185613074577 -0.000110057640883026 0.000106419915585134 -3.29928520390115e-05 -2.15212864781965e-06
"249" -0.00025050848815053 -0.000174943472737471 -0.000290393668990756 -0.000310251628517679 -0.000198833856910298 -5.829142350569e-06 -0.000233609644714362 7.96269930628442e-05 -0.000168682886344542 -0.0001826080821762 -0.000168668661020878 0.000119611354516791 -0.000116545262693584 0.000107372592819312 -3.69993024284522e-05 -5.0535562128433e-06
"250" -0.000255570590068812 -0.000171823260557607 -0.000284241429979853 -0.000313024423488374 -0.000192144463184317 -4.91569516070694e-06 -0.000230792412114463 8.49463166833692e-05 -0.000168803754648348 -0.000181672688180026 -0.000174816952682277 0.000120764300700577 -0.000123192522681442 0.000107826174904846 -4.13025830153022e-05 -8.05750692393994e-06
"251" -0.000260611940586332 -0.000168784878357702 -0.000277699170233428 -0.00031582859519817 -0.00018521553995749 -4.1287529086319e-06 -0.000228299559468088 8.98945756259888e-05 -0.000168559462458335 -0.000179881291049692 -0.000180792398137428 0.000122628112876135 -0.000129960327036842 0.000107814606997614 -4.58708224177128e-05 -1.1128407178078e-05
"252" -0.000265631633728274 -0.00016586362516797 -0.000270803423566456 -0.00031862245835719 -0.000178072749770321 -3.46287543987826e-06 -0.000226126566979413 9.44616746345355e-05 -0.000167938972484719 -0.000177252566346649 -0.000186576274711928 0.000125172434860131 -0.000136819354916594 0.000107375174249316 -5.06742240615566e-05 -1.42323179496342e-05
"253" -0.000270619784352323 -0.000163077264091061 -0.000263580462853166 -0.000321359577582937 -0.000170747097314556 -2.9101551985279e-06 -0.000224259817137945 9.86497527788918e-05 -0.000166933403063171 -0.000173810411779778 -0.000192138033696074 0.00012836821581736 -0.000143726372417087 0.00010654780468288 -5.56753496744076e-05 -1.73302442762391e-05
"254" -0.000275582839766211 -0.000160452352549349 -0.000256066970784621 -0.000323996991299357 -0.000163269692761958 -2.46391675470717e-06 -0.000222686728654198 0.000102456566343485 -0.000165534439037596 -0.00016957870121684 -0.000197456712475908 0.000132176989553881 -0.000150648689564477 0.000105375287600062 -6.08418027397593e-05 -2.03880192857369e-05
"255" -0.00028051587689042 -0.000158007105448616 -0.000248296258036825 -0.000326488685528839 -0.000155677772041743 -2.11750577451793e-06 -0.000221396397410297 0.000105881881965914 -0.000163741004658248 -0.000164596954871016 -0.000202512423570842 0.000136557949846645 -0.000157545599518859 0.000103894299807662 -6.61356319797e-05 -2.3370939023799e-05
"256" -0.000285414805737419 -0.000155756199088002 -0.000240301173681768 -0.000328792813938729 -0.000147994639102725 -1.85654512824123e-06 -0.00022036736050546 0.0001089359841427 -0.000161551395699113 -0.000158898768873466 -0.000207279071704932 0.000141471072114286 -0.000164373456490794 0.000102156974727637 -7.15159599553812e-05 -2.6239418756898e-05
"257" -0.000290276902231095 -0.000153706604362271 -0.000232117308856875 -0.000330867367457208 -0.00014025599923819 -1.67664774119411e-06 -0.000219580821406988 0.000111622010318196 -0.000158967697901251 -0.000152528857766528 -0.000211743790781871 0.000146864694276279 -0.000171102682035552 0.000100196615382805 -7.6950593531166e-05 -2.89654688581804e-05
"258" -0.000295092976030656 -0.000151865823063749 -0.000223771531658428 -0.000332669539470395 -0.00013249330954488 -1.56186978391088e-06 -0.000219009647920678 0.000113955523429037 -0.000155990889537923 -0.000145530863483321 -0.000215885324485359 0.000152689495610451 -0.000177681406260048 9.80690475058804e-05 -8.2393166338939e-05 -3.15091011098684e-05
"259" -0.000299866921724582 -0.000150240190214763 -0.000215304669854983 -0.000334160293180969 -0.000124743465184791 -1.50541153703074e-06 -0.000218637228453901 0.000115948236945515 -0.000152636538970144 -0.000137955906161272 -0.00021969166687079 0.000158892893621663 -0.000184081709663141 9.58083884960331e-05 -8.78090172156382e-05 -3.38404803342882e-05
"260" -0.000304590289991247 -0.000148822915983833 -0.00020673753311938 -0.000335302292174094 -0.000117028152052184 -1.49665936344599e-06 -0.000218433266079523 0.000117616599560759 -0.000148907809977392 -0.000129858526650576 -0.000223139558797628 0.000165422189768026 -0.000190252562762694 9.34665654105949e-05 -9.31505233518802e-05 -3.59267043318894e-05
"261" -0.000309258208102545 -0.000147618996597275 -0.000198109546108063 -0.000336061625366496 -0.000109386883508637 -1.52249202088624e-06 -0.000218375393323071 0.000118979095897732 -0.000144819005355261 -0.000121291418568157 -0.000226226911801708 0.000172214975175638 -0.000196165895866228 9.10793136911161e-05 -9.83809483967608e-05 -3.77390520970986e-05
"262" -0.000313862581706321 -0.000146610628357003 -0.000189445910422712 -0.000336407708945343 -0.000101843636492563 -1.5741330020507e-06 -0.000218431315637719 0.000120059431149044 -0.000140382497760728 -0.0001123146332618 -0.000228933195298484 0.000179219392724329 -0.000201772239586732 8.86941231073505e-05 -0.000103458025223778 -3.9243770738074e-05
"263" -0.00031839565534928 -0.000145792090469171 -0.000180768897689783 -0.000336310234156129 -9.44249461043319e-05 -1.63972663087484e-06 -0.000218572852294007 0.000120876036162548 -0.000135612208273136 -0.000102983505506789 -0.000231251129630003 0.000186378946764144 -0.000207038085397401 8.63495890466105e-05 -0.000108335427683928 -4.04156371566117e-05
"264" -0.000322851752417179 -0.000145152408093849 -0.000172108239982541 -0.000335743578091085 -8.71624923458255e-05 -1.70905046005182e-06 -0.000218776962619243 0.000121451197614844 -0.000130526375087189 -9.3362494449465e-05 -0.000233171867222599 0.000193631222253177 -0.000211927447729438 8.4077672704395e-05 -0.000112980255191005 -4.12304143472168e-05
"265" -0.000327217635831891 -0.000144671028342872 -0.000163486177782567 -0.000334688983391382 -8.00769408708111e-05 -1.77687992747842e-06 -0.000219007985751847 0.000121814462423854 -0.000125143819399675 -8.35077281805635e-05 -0.000234687541792698 0.000200924166179364 -0.000216402236777379 8.19185967184234e-05 -0.000117347390006942 -4.16577179028893e-05
"266" -0.000331489677073491 -0.000144333257339043 -0.00015492467622416 -0.000333128323654609 -7.31916666427182e-05 -1.82917076048819e-06 -0.000219243319779388 0.000121987860073593 -0.000119481522181024 -7.34825765788908e-05 -0.000235788993597518 0.00020820254397334 -0.000220431062607646 7.990145245321e-05 -0.00012140068638735 -4.16806864476508e-05
"267" -0.000335648626623516 -0.000144117368699158 -0.000146441507142718 -0.000331047553990453 -6.65275594441243e-05 -1.86014465340161e-06 -0.000219448944229831 0.000121998652701491 -0.000113560776950602 -6.33431960315011e-05 -0.000236473221543918 0.000215411427297033 -0.000223977652002578 7.80555696692242e-05 -0.000125097993842701 -4.12755137515857e-05
"268" -0.000339692291288192 -0.000144005341047018 -0.000138056018256275 -0.000328437358291064 -6.0105010904237e-05 -1.86339949686561e-06 -0.00021960036864574 0.000121874123123604 -0.000107403196933349 -5.31467772066277e-05 -0.000236735437593194 0.000222500748882868 -0.000227014235414638 7.64061687814092e-05 -0.000128410438621458 -4.04268770653667e-05
"269" -0.000343593600952276 -0.000143972256194929 -0.000129781677265641 -0.000325291533700447 -5.39414771791609e-05 -1.83326323656153e-06 -0.000219666120181566 0.00012163902777366 -0.000101030006934406 -4.29503659733564e-05 -0.000236572207424119 0.000229425874875048 -0.000229508396047156 7.49686706596696e-05 -0.000131295593951661 -3.9115203294525e-05
"270" -0.000347350074860486 -0.000143992848005966 -0.000121628146806475 -0.00032161303357526 -4.80474226168214e-05 -1.76357177316191e-06 -0.000219620990007643 0.000121324485540634 -9.44635336299695e-05 -3.28026437034053e-05 -0.000235981467136305 0.000236142095138939 -0.000231436006530414 7.37664844811811e-05 -0.000133725288452166 -3.73272167541144e-05
"271" -0.000350942063376376 -0.000144043825735068 -0.000113609408639122 -0.00031739966333141 -4.24376285306843e-05 -1.65073218005148e-06 -0.00021944160204236 0.000120954058261274 -8.7724359593884e-05 -2.27545015642819e-05 -0.000234961343962544 0.000242611566043155 -0.000232770850664606 7.28080315861098e-05 -0.000135666642813004 -3.50542533259717e-05
"272" -0.000354355373874813 -0.000144105203691499 -0.00010573475879393 -0.00031266148596113 -3.71251668683947e-05 -1.49241386431169e-06 -0.000219104908380003 0.000120547966520545 -8.08384591267158e-05 -1.28516804437185e-05 -0.000233511237555836 0.00024879283338051 -0.000233493913587742 7.20968892462981e-05 -0.000137096688813004 -3.22843182734548e-05
"273" -0.000357569107633404 -0.000144146340417516 -9.80043333377042e-05 -0.000307409395251216 -3.21119684337933e-05 -1.28606583858084e-06 -0.000218580787994178 0.000120137212692139 -7.38244769766128e-05 -3.13195434240272e-06 -0.000231631314256826 0.000254664067164113 -0.000233581138960867 7.1642202293219e-05 -0.000137980543914054 -2.90118921557038e-05
"274" -0.000360566568771577 -0.000144142553289884 -9.04220906695901e-05 -0.000301656593923307 -2.7404577369619e-05 -1.0347860306493e-06 -0.000217853738215242 0.000119742161557428 -6.67021868458783e-05 6.36855362597069e-06 -0.000229322418426892 0.000260198976699962 -0.000233016769348054 7.14417029737732e-05 -0.000138303638115444 -2.52304744425084e-05
"275" -0.000363327350643589 -0.000144070003704671 -8.29917930353026e-05 -0.000295422382623626 -2.30077187696595e-05 -7.35819292984299e-07 -0.000216899062686399 0.000119386181003282 -5.94942010495975e-05 1.5622086153051e-05 -0.000226584748142858 0.000265376268955616 -0.000231786146370916 7.14823628980601e-05 -0.000138037807684291 -2.09399062596645e-05
"276" -0.000365840792852054 -0.000143911354855242 -7.57080304104509e-05 -0.000288727322283139 -1.89219105253881e-05 -3.91964870957494e-07 -0.000215702944273551 0.000119083675940834 -5.22224501652415e-05 2.45990970872592e-05 -0.000223422562033076 0.00027018204326593 -0.000229880126749898 7.17573364784414e-05 -0.000137175965976831 -1.61429162880553e-05
"277" -0.000368079953709841 -0.000143633482389702 -6.85711572371408e-05 -0.000281597675501185 -1.51417446804493e-05 -6.23668093351147e-09 -0.000214243052607158 0.000118860135016416 -4.49039939286584e-05 3.32864769841744e-05 -0.000219836416164286 0.000274612505102585 -0.000227284954551575 7.22512148343734e-05 -0.000135696501465631 -1.08404504652767e-05
"278" -0.000370029312786175 -0.000143223853241559 -6.15723091751793e-05 -0.000274061763404144 -1.16674382623125e-05 4.1563431913839e-07 -0.000212507486116984 0.000118724178294334 -3.75606127214221e-05 4.16693044220692e-05 -0.000215831743597496 0.000278662888220093 -0.000224002312914838 7.29372037851071e-05 -0.000133595411629013 -5.04050245255019e-06
"279" -0.000371673368443645 -0.00014265668143961 -5.47089860897188e-05 -0.000266148443273792 -8.49563204023479e-06 8.67657879963131e-07 -0.00021048632237194 0.000118693603673902 -3.02120589598255e-05 4.97395971337005e-05 -0.000211414092912988 0.000282336170646159 -0.00022002852085411 7.37951152267114e-05 -0.000130865164801621 1.24762455323798e-06
"280" -0.000372985985398866 -0.000141912273288476 -4.79634594369719e-05 -0.00025789005527793 -5.60841654238726e-06 1.34538046376651e-06 -0.000208158552344589 0.000118781627440342 -2.28665256680228e-05 5.74971146697366e-05 -0.000206578037308575 0.000285644135990267 -0.000215358594644033 7.47926822048544e-05 -0.000127494175683598 8.01595833284409e-06
"281" -0.000373955107840486 -0.000140973961485178 -4.13308854176756e-05 -0.000249321264952939 -3.00814383930026e-06 1.84367386629226e-06 -0.000205522689908595 0.000118991796273726 -1.5549439068113e-05 6.49493623560196e-05 -0.000201338150086082 0.000288602603229886 -0.000209999587484026 7.59014732362323e-05 -0.000123493396898789 1.52483300215763e-05
"282" -0.000374558057916227 -0.000139825544323383 -3.47976390868382e-05 -0.000240477747534966 -6.7483640770239e-07 2.3493910378964e-06 -0.00020256408590851 0.000119335174141396 -8.27387168140649e-06 7.21075707120329e-05 -0.000195689845374134 0.000291229346459181 -0.000203959276808579 7.7078685339421e-05 -0.000118856733926843 2.29284678478582e-05
"283" -0.000374778998485699 -0.000138450942390561 -2.83525329394732e-05 -0.000231395077667678 1.39692036307036e-06 2.85963585352714e-06 -0.00019928188672906 0.000119812401807759 -1.04900440388645e-06 7.89870863371064e-05 -0.00018964409474949 0.000293549514623882 -0.000197247044869861 7.8289790407416e-05 -0.000113598930021197 3.10396304856196e-05
"284" -0.000374609247748776 -0.000136838930965548 -2.19770406507906e-05 -0.000222111786699117 3.22550727608229e-06 3.36362923545203e-06 -0.000195671564681238 0.000120425085536757 6.10544042142356e-06 8.5609153244474e-05 -0.000183204359559685 0.000295594993141098 -0.000189876411226999 7.94892580737494e-05 -0.000107732129478085 3.95556673009534e-05
"285" -0.000374027967979368 -0.000134976562948183 -1.56607137430066e-05 -0.000212665251638495 4.82043810725962e-06 3.85305820858934e-06 -0.000191727715725101 0.000121168545733456 1.31844351577419e-05 9.20022445689169e-05 -0.000176375628135569 0.000297398881044243 -0.000181862207572859 8.06338981212716e-05 -0.000101265211592117 4.84583666427015e-05
"286" -0.000373022283605259 -0.000132852251356854 -9.38575082993396e-06 -0.000203095501692654 6.20185742431359e-06 4.3179165995469e-06 -0.000187449422509582 0.000122045574462167 2.01723878600204e-05 9.82005439092173e-05 -0.000169162122423072 0.000298997802998388 -0.000173225185712393 8.16710728632721e-05 -9.42194178640904e-05 5.77205455244151e-05
"287" -0.000371588254113232 -0.000130463174084537 -3.13683333815691e-06 -0.000193438473299116 7.37938702991357e-06 4.74840418210382e-06 -0.000182841562227311 0.000123042333547493 2.70562873685332e-05 0.000104234791905317 -0.000161571635359428 0.000300431778478542 -0.000163986208537541 8.2560005849269e-05 -8.66193510699012e-05 6.73093199579681e-05
"288" -0.000369705934443594 -0.000127795929484295 3.10198661970411e-06 -0.00018373114674119 8.37758575763811e-06 5.13905086728337e-06 -0.000177904035323732 0.000124152640297138 3.38346843261545e-05 0.00011014658972511 -0.000153607135349869 0.000301746482227569 -0.000154170682241516 8.32502605236322e-05 -7.84851869369634e-05 7.71993443219833e-05
"289" -0.000367378633230043 -0.000124847886787847 9.34642357540735e-06 -0.000174009977762925 9.20664278362017e-06 5.4790923344189e-06 -0.000172639949966869 0.000125362076324502 4.04975621617785e-05 0.000115979518260749 -0.000145275001670262 0.00030298525520357 -0.000143804318362379 8.36872682556303e-05 -6.98454647940621e-05 8.73569072858644e-05
"290" -0.000364596201655226 -0.000121620920599607 1.56119927715111e-05 -0.000164308333920477 9.88238166029357e-06 5.76007920835743e-06 -0.000167058377840842 0.000126655739647496 4.7030244594369e-05 0.00012177022699872 -0.000136586180995592 0.000304190190889802 -0.000132919969942446 8.38285117838738e-05 -6.07356846320916e-05 9.77462503173714e-05
"291" -0.000361350810885758 -0.000118107297426091 2.19126400424121e-05 -0.000154658440957306 1.04241348341893e-05 5.97717830016735e-06 -0.000161161807623315 0.000128019915140449 5.34353733145795e-05 0.000127569593984684 -0.000127539167085388 0.000305410901805795 -0.0001215439096005 8.36226645945902e-05 -5.11809193154142e-05 0.000108334023129891
"292" -0.000357653858375752 -0.000114311193238602 2.825856837739e-05 -0.000145090714396361 1.08465285611866e-05 6.12140141539239e-06 -0.000154965028054802 0.000129431049369034 5.97007518610196e-05 0.000133421535589808 -0.000118149087743981 0.000306691472094343 -0.000109715419557257 8.3017013566117e-05 -4.12306016267141e-05 0.000119079186214858
"293" -0.000353500467999756 -0.000110233103203636 3.46689222056437e-05 -0.000135633383391922 1.11616567087189e-05 6.19030603291453e-06 -0.000148473565757005 0.000130868137144812 6.58226367647603e-05 0.000139372764096059 -0.000108417268038048 0.000308078259261247 -9.74692674687584e-05 8.19761632018471e-05 -3.09108428475429e-05 0.000129945363332512
"294" -0.000348896577681595 -0.0001058760669863 4.11479158028884e-05 -0.000126312212518749 1.13891593669896e-05 6.17712975752198e-06 -0.000141697867657714 0.000132312305742864 7.17962280115406e-05 0.000145463821887089 -9.8355244000424e-05 0.000309614655241537 -8.48413563860088e-05 8.04515683792515e-05 -2.02678955246128e-05 0.000140890145042873
"295" -0.000343853118634062 -0.000101244928188713 4.7707970318727e-05 -0.000117152375148421 1.15385627823697e-05 6.0770045827977e-06 -0.000134650987047216 0.000133736135300251 7.76145430813792e-05 0.000151742284954785 -8.79703333535863e-05 0.000311339846009822 -7.18770435146979e-05 7.84004533754993e-05 -9.35014110102006e-06 0.000151870441361063
"296" -0.000338376661958256 -9.63497351797925e-05 5.43554700029327e-05 -0.000108174130794782 1.16244665917662e-05 5.89227866048899e-06 -0.000127352066298566 0.000135113811206618 8.32737607442856e-05 0.00015824946859155 -7.72709808102762e-05 0.000313291900530395 -5.86135236659215e-05 7.57859151259109e-05 1.80583269882801e-06 0.000162843388152639
"297" -0.000332481545682783 -9.11952167233497e-05 6.10952514648461e-05 -9.93926282080789e-05 1.16575016481325e-05 5.61855991280311e-06 -0.000119809459855215 0.000136419054407148 8.87690124422678e-05 0.000165019362496426 -6.62678475892561e-05 0.00031550868208214 -4.50945402623644e-05 7.25793272833469e-05 1.31454058914616e-05 0.000173765705494885
"298" -0.000326184428471926 -8.5791044718384e-05 6.79319850626427e-05 -9.08238912148494e-05 1.16464486678649e-05 5.25826281177119e-06 -0.000112039497105932 0.000137626526783972 9.40948284273294e-05 0.00017209075791093 -5.49702424323411e-05 0.000318018554437933 -3.13658777549196e-05 6.87495463144793e-05 2.46304513132406e-05 0.000184592453597267
"299" -0.00031950007451248 -8.01492774717828e-05 7.48671676996964e-05 -8.24802180188316e-05 1.16029381492436e-05 4.81494211856133e-06 -0.000104056522529005 0.000138705666389579 9.92497311783639e-05 0.000179492000469906 -4.33891830724638e-05 0.000320846717375559 -1.74672249659477e-05 6.42681958696353e-05 3.62038837110467e-05 0.000195277795303021
"300" -0.000312458904515774 -7.42842996502876e-05 8.18983046637791e-05 -7.43683048730201e-05 1.15315919576609e-05 4.2878509341283e-06 -9.58829503430656e-05 0.000139634292666168 0.000104227440237717 0.000187249136219045 -3.15357258992417e-05 0.000324013970054567 -3.44959194982693e-06 5.91198493917653e-05 4.78238574892646e-05 0.00020577607108527
"301" -0.000305076141824035 -6.82099301631514e-05 8.9021265614651e-05 -6.64974574737844e-05 1.14411770325358e-05 3.68457197048476e-06 -8.75336243897121e-05 0.000140376206375445 0.000109019806230731 0.000195380471718177 -1.94281282089155e-05 0.000327534664644395 1.06421736145404e-05 5.32857684567605e-05 5.94291191039158e-05 0.000216040369037226
"302" -0.000297379424024566 -6.19371491072272e-05 9.62315030372787e-05 -5.88692535854671e-05 1.1332062835341e-05 3.01303931763726e-06 -7.90272784191014e-05 0.000140912289224239 0.000113625528864641 0.000203903906428826 -7.07580756173516e-06 0.00033142250134116 2.4760369616181e-05 4.67531239132033e-05 7.09811429423434e-05 0.000226026778763049
"303" -0.000289401000104784 -5.54897806082406e-05 0.000103516515148929 -5.14810237108448e-05 1.12103280767732e-05 2.27861478227133e-06 -7.03823892643441e-05 0.000141214031773593 0.000118035737260229 0.000212826505119482 5.50361936624876e-06 0.000335674102966066 3.88584210210793e-05 3.95238586104588e-05 8.24244274190196e-05 0.000235685336564243
"304" -0.000281171487479125 -4.88827058303891e-05 0.000110865723867047 -4.43351275472373e-05 1.1074917143707e-05 1.49171813011735e-06 -6.16179810691901e-05 0.000141261103031099 0.000122242657056442 0.000222147610162462 1.82927166228636e-05 0.000340288091900693 5.28885910460369e-05 3.15954409031821e-05 9.37039222012256e-05 0.000244975599631181
"305" -0.000272722339033737 -4.21372831215499e-05 0.000118266658579374 -3.74247016156119e-05 1.09290714988373e-05 6.62666764268715e-07 -5.27550034142378e-05 0.000141030144619078 0.000126244590575364 0.000231864610366377 3.12736933027253e-05 0.000345252488056965 6.68072640642098e-05 2.29737821736032e-05 0.000104778787476932 0.000253847874397829
"306" -0.000264085790330372 -3.52730262041017e-05 0.000125698011038354 -3.07421206518449e-05 1.07670804799967e-05 -1.93751446230735e-07 -4.38112234087375e-05 0.000140496969462551 0.000130028785555915 0.000241963993891425 4.44254746090442e-05 0.000350553468220874 8.05613598430222e-05 1.36711236472116e-05 0.0001155930881342 0.000262260909651103
"307" -0.000255302853396252 -2.83176690832272e-05 0.000133142897219128 -2.42798400722675e-05 1.05906255622731e-05 -1.07070750912237e-06 -3.48145653075984e-05 0.000139647692646325 0.000133592712871853 0.000252425992637859 5.77280582773656e-05 0.000356164614640398 9.41096463238547e-05 3.70621122536397e-06 0.000126104353452058 0.000270171540263065
"308" -0.00024640694618935 -2.12886988711687e-05 0.000140580189113279 -1.80278362710662e-05 1.03951777995006e-05 -1.94781908456992e-06 -2.57742911077622e-05 0.00013847075458284 0.000136923569663396 0.000263226284575227 7.115653944207e-05 0.000362055886324776 0.000107401952273115 -6.89648858306505e-06 0.000136259652872345 0.000277539182374157
"309" -0.000237436930859224 -1.42168199951916e-05 0.000147983057892836 -1.19725438772459e-05 1.01698541074637e-05 -2.81418053687585e-06 -1.67182392904889e-05 0.000136952873595747 0.000140015598583865 0.00027432700481223 8.46877839146859e-05 0.000368187333124754 0.000120396428326069 -1.81134917536444e-05 0.00014601800017399 0.000284322137545866
"310" -0.000228433439106787 -7.12856239877669e-06 0.000155322652703881 -6.10329994064849e-06 9.9183697959839e-06 -3.65419562434921e-06 -7.66480133961109e-06 0.000135085767438882 0.000142857339228638 0.000285687317647391 9.8294558161727e-05 0.000374513883665802 0.000133047075222205 -2.99051630885477e-05 0.000155332731629182 0.00029048356571926
"311" -0.000219436602219939 -5.13150725174604e-08 0.000162574420536358 -4.05786279344892e-07 9.62497604783693e-06 -4.44918224031151e-06 1.36607205107229e-06 0.000132864986579913 0.00014543757358791 0.000297257455661051 0.000111945375846631 0.000380988822519347 0.000145310243996157 -4.22349504286188e-05 0.000164160210074944 0.000295984663165138
"312" -0.000210483416237328 6.98738427192687e-06 0.000169705906976257 5.13708058710995e-06 9.28568529873946e-06 -5.18551787583794e-06 1.03550641672196e-05 0.000130295565225233 0.000147754330355627 0.000308983437871917 0.000125618829385668 0.000387554358261987 0.000157147704919485 -5.5058832379999e-05 0.000172464607265981 0.000300797703828233
"313" -0.000201613704720174 1.39571912991508e-05 0.000176686881372868 1.0536319267296e-05 8.89299366464529e-06 -5.84566844092008e-06 1.92828658021797e-05 0.000127380504233229 0.00014978778234337 0.000320806500559001 0.000139273792736881 0.00039414750750689 0.000168513696006108 -6.83280061277672e-05 0.000180204653348 0.0003048829733498
"314" -0.000192864965856781 2.08242318581389e-05 0.000183480967727935 1.58092311733906e-05 8.44033264098439e-06 -6.41089035723536e-06 2.81299609646196e-05 0.000124126477500785 0.000151533866862622 0.000332651466772355 0.000152884354112544 0.000400702467962164 0.000179374915016819 -8.19907841817839e-05 0.000187346449989878 0.000308219061343115
"315" -0.000184278921163888 2.75549503817662e-05 0.000190056250898764 2.09683446168668e-05 7.91470036196353e-06 -6.86836325502193e-06 3.68728589666911e-05 0.000120550850311887 0.000152978335521411 0.000344453079624927 0.000166409874951585 0.00040714815395056 0.000189687678342066 -9.59959051691774e-05 0.000193850790288105 0.000310773199473771
"316" -0.000175887922645763 3.41219574105543e-05 0.000196376843807614 2.60271775439845e-05 7.31310814432403e-06 -7.20110544438356e-06 4.55023707781888e-05 0.000116668595260073 0.000154111007870848 0.000356127595195105 0.000179819679481529 0.000413409809651652 0.000199420437689346 -0.000110278409419388 0.000199695717929033 0.000312528837330212
"317" -0.000167727711213931 4.04866457693744e-05 0.000202407828978873 3.10012620525992e-05 6.62122913549923e-06 -7.39121788960843e-06 5.3995391109016e-05 0.000112500529449108 0.000154925888953175 0.000367592704691688 0.000193070003597703 0.000419410577570421 0.000208537333392444 -0.000124782170063132 0.00020484904664791 0.000313463013869402
"318" -0.00015983013316452 4.66201040166129e-05 0.000208113133015055 3.58984032754257e-05 5.83837704250104e-06 -7.42732758094938e-06 6.23389191656212e-05 0.000108079169088035 0.000155409465230827 0.000378766545304771 0.00020613009816198 0.000425075070298472 0.000217009565364097 -0.000139440378329329 0.000209286431674908 0.000313562914330219
"319" -0.000152225732798739 5.24837698321499e-05 0.000213460803129753 4.07325805525774e-05 4.95358456375296e-06 -7.29434014885045e-06 7.05157426412796e-05 0.000103434029950168 0.00015555316472853 0.000389556582494801 0.000218953887831815 0.000430314388789699 0.000224806701401929 -0.000154190308928496 0.000212986911456269 0.000312813073194606
"320" -0.000144941406330722 5.80473747803341e-05 0.000218417886103366 4.55105299911843e-05 3.96004481345189e-06 -6.97975391351488e-06 7.85119104481508e-05 9.8603443938368e-05 0.000155350400654652 0.000399876517366387 0.000231506253195003 0.000435056683526423 0.000231904834500264 -0.000168958704069597 0.000215933736372231 0.000311207032597806
"321" -0.000138005352487901 6.32756312081206e-05 0.000222946686531657 5.02402692341793e-05 2.85433378003667e-06 -6.47253918940338e-06 8.6313832395229e-05 9.36199487503524e-05 0.000154791914696162 0.000409635059324447 0.000243741219468449 0.000439217472888938 0.000238277380919014 -0.000183684589607135 0.00021810956199788 0.000308739563558194
"322" -0.000131433633061926 6.81353695754835e-05 0.000227016436705029 5.49292825018041e-05 1.63522219821505e-06 -5.76252883473008e-06 9.39093888863855e-05 8.85314365689188e-05 0.000153870715072019 0.00041873967702331 0.000255622840799605 0.000442716152348716 0.000243900071062731 -0.000198295281713759 0.00021950469536551 0.000305406684784023
"323" -0.000125243808962637 7.25973560717212e-05 0.000230607243629945 5.95780881564582e-05 2.97872844693144e-07 -4.84492955150761e-06 0.00010129093531506 8.33861044238518e-05 0.000152586930740002 0.000427103452795189 0.000267108247698094 0.000445480850816568 0.000248762711774167 -0.000212722231645586 0.000220118554070872 0.000301218835618736
"324" -0.000119454097471221 7.66275700991773e-05 0.000233682568432394 6.41910970605056e-05 -1.15985525400192e-06 -3.71079319086403e-06 0.000108443909295377 7.82302918409598e-05 0.000150928309633248 0.000434639603219854 0.000278154109336989 0.000447438098028306 0.000252839093023126 -0.000226904040253176 0.000219932067107673 0.000296176869149432
"325" -0.000114073945994765 8.01952429285577e-05 0.000236221066723084 6.87649782379828e-05 -2.73598951826925e-06 -2.3562682827116e-06 0.000115362110857009 7.31154018313959e-05 0.00014889918373768 0.000441261228815665 0.000288722342199246 0.00044851927135524 0.000256123340533988 -0.000240768059370214 0.00021895674108006 0.000290294099276835
"326" -0.000109109529560921 8.3278997456526e-05 0.000238205743829733 7.33002352485148e-05 -4.42497103456483e-06 -7.80671973902418e-07 0.000122039792888499 6.80982962594981e-05 0.000146499006115934 0.000446894575798147 0.000298775540907703 0.000448660195202552 0.000258608266052018 -0.000254245040753629 0.000217192551226194 0.000283588720677247
"327" -0.000104567635414478 8.5844859132264e-05 0.000239614657171871 7.77894238863419e-05 -6.2255292306742e-06 1.01656312838283e-06 0.000128470575720583 6.32322398246451e-05 0.000143724081937452 0.000451462163326096 0.000308269065087627 0.000447805244587906 0.000260278806056023 -0.00026728223431485 0.000214649229652957 0.000276077559721941
"328" -0.000100441156729377 8.78749945988747e-05 0.000240439945025723 8.2227103950027e-05 -8.12952213877565e-06 3.0332100114888e-06 0.000134649190780147 5.85742235876825e-05 0.000140583716775832 0.000454898692431896 0.000317171986239794 0.000445904332853293 0.00026113966476571 -0.000279809553211506 0.000211339319506538 0.000267783077119802
"329" -9.6727459076565e-05 8.93445788424361e-05 0.000240663649527549 8.66046502551533e-05 -1.01300436855225e-05 5.26393234657202e-06 0.000140574986426718 5.41760429998073e-05 0.000137085011440081 0.000457142902688173 0.000325447927019751 0.000442916447230431 0.000261186489369111 -0.000291770634976926 0.000207271492892364 0.000258738000861458
"330" -9.34177943520959e-05 9.02361596313422e-05 0.0002402859374144 9.09131758495013e-05 -1.22145003547413e-05 7.70641861663551e-06 0.000146241607103815 5.00957621431208e-05 0.000133229687179952 0.00045814365144038 0.000333062392513894 0.00043880231570304 0.000260423352320789 -0.000303106554632161 0.000202473970664971 0.000248967856683179
"331" -9.05008190932469e-05 9.05405054254804e-05 0.000239306643396235 9.51356069413347e-05 -1.43713385167005e-05 1.03436484005701e-05 0.00015165610547641 4.63897691044462e-05 0.000129034227757691 0.000457853594169297 0.000339986989935407 0.00043353865895081 0.000258859461572629 -0.000313769827899823 0.000196964069993285 0.000238510789945725
"332" -8.79607295597549e-05 9.02385869964406e-05 0.00023772603732721 9.92623356009144e-05 -1.65834483651618e-05 1.31703771234666e-05 0.000156816545378635 4.31086654840731e-05 0.000124511416046976 0.000456244482312602 0.000346189892239918 0.000427111490243365 0.000256503374268227 -0.000323705720807699 0.000190767289729655 0.000227402099959497
"333" -8.57734232711476e-05 8.9324956051219e-05 0.00023554958044187 0.000103278123783513 -1.88402272369734e-05 1.61734245978076e-05 0.000161727018962642 4.03019195606816e-05 0.000119676093452621 0.000453285789125691 0.000351652329603822 0.000419509979705937 0.000253370264266923 -0.00033287013765524 0.000183919931802177 0.000215685637217392
"334" -8.39210298831388e-05 8.77970884815857e-05 0.000232795671318563 0.000107164800495396 -2.11216119506641e-05 1.93319323125811e-05 0.000166389386417055 3.80193958716069e-05 0.000114548761654705 0.000448967891755249 0.00035634459793116 0.000410737268507307 0.000249475244954788 -0.000341216965512803 0.000176451360571015 0.000203405719358098
"335" -8.23747998376968e-05 8.56552949700084e-05 0.000229479314978796 0.000110906226172662 -2.34054382500082e-05 2.26351565887484e-05 0.000170809889110096 3.63025202158796e-05 0.000109149499954314 0.000443287969417588 0.000360258784931522 0.000400806646110083 0.00024484209853853 -0.000348709972687886 0.000168403738166585 0.000190610595456895
"336" -8.11054555591374e-05 8.29049874583157e-05 0.000225619793306505 0.000114483681051077 -2.56682432023727e-05 2.60588107659071e-05 0.000174996702089286 3.51923178886397e-05 0.000103505312956205 0.000436249314654196 0.000363371354134799 0.000389738351611087 0.000239495882052823 -0.000355311912102999 0.000159813113253644 0.00017734585303865
"337" -8.00873910209544e-05 7.95496444832042e-05 0.000221246336292453 0.000117880643364088 -2.78960450025535e-05 2.95849620716698e-05 0.000178952056398256 3.47191059990047e-05 9.76372481463917e-05 0.000427873825337112 0.00036567708357955 0.000377566292865574 0.000233458283411711 -0.000360992683348142 0.000150721483773464 0.00016366598639299
"338" -7.92837324696778e-05 7.56083063608827e-05 0.000216386891702343 0.000121077975520959 -3.00572128278507e-05 3.31894221763118e-05 0.000182691636322235 3.49168914804069e-05 9.15802139584503e-05 0.000418188732368156 0.000367169372621019 0.000364329590404718 0.000226765183327618 -0.000365726530086784 0.000141180931004585 0.000149624348486752
"339" -7.86619892462355e-05 7.11006155181354e-05 0.000211077429299728 0.000124055845681345 -3.21295007724567e-05 3.68509000146603e-05 0.000186222989371409 3.5808995321833e-05 8.53682035075112e-05 0.000407239105643213 0.000367843366876569 0.000350079545054526 0.000219452178002791 -0.00036948589404899 0.00013123833207193 0.000135275370761803
"340" -7.81855920176711e-05 6.60419380243996e-05 0.000205356039524216 0.000126799897660104 -3.40897156093309e-05 4.05411547046759e-05 0.000189551166496077 3.74092951319108e-05 7.90277442203825e-05 0.000395066940492496 0.000367701801921296 0.000334872388576471 0.000211551085030697 -0.000372251132697807 0.000120941436909432 0.00012067434302288
"341" -7.78198945785209e-05 6.04635668318575e-05 0.000199263660408349 0.000129289995213614 -3.59074542392882e-05 4.42352181406755e-05 0.000192691489706279 3.97304104027413e-05 7.26018032846574e-05 0.000381740038980865 0.000366755968289095 0.000318777049080928 0.000203105529373838 -0.000374011307778207 0.000110350545760513 0.000105881503976589
