"V1" "V2" "V4" "V5" "V7" "V8" "V10" "V11" "V13" "V14" "V15" "V17" "V18" "V20" "V21" "V23"
"1" -0.000442958250547174 -0.000592332402252507 2.27391796309824e-06 0.00153470525760054 0.00128573751794607 -8.55345225701453e-05 6.84241010162818e-05 0.000470001884611199 0.000683302276728299 0.000292609226420327 0.00108264401203365 0.00073786548360716 0.00063063991312688 0.000337650578582972 0.00103704657578134 0.000820924166983935
"2" -0.000399661215635283 -0.00056786516847395 -3.24574005929175e-06 0.00151370447147047 0.00123481703149258 -5.53044136360806e-05 4.92070636906686e-05 0.000459972761333587 0.000639761262899886 0.000266480622077734 0.00108614772958349 0.000757873701893606 0.0006716447780678 0.000280914327947676 0.00109647199720007 0.000911298517257483
"3" -0.00035652593256219 -0.000544245895269224 -1.04109035256399e-05 0.00149381702760639 0.00118268846105063 -2.80027482972451e-05 2.98499908552605e-05 0.00044791728494651 0.000595172535569369 0.000239846498828157 0.00108743456489787 0.000777639731275462 0.000709441065811688 0.000221869620102383 0.00115397571667585 0.000998644214616759
"4" -0.000313873622668621 -0.000521765118837634 -1.91784443538416e-05 0.00147520391562507 0.00112966916875473 -3.80952184375462e-06 1.04434407558769e-05 0.000433918965601152 0.000549662798288821 0.000212719955302669 0.00108644840605892 0.000796965240949275 0.000743857929765393 0.000160972022090574 0.00120925771445445 0.00108250116655615
"5" -0.000271987026003026 -0.000500653408330376 -2.95080783608868e-05 0.00145796323869512 0.00107607333496182 1.71284211653684e-05 -8.93524738865106e-06 0.000418091944504268 0.000503358708750068 0.000185102254403862 0.00108314916688275 0.00081566665149469 0.000774750358572905 9.86864565275851e-05 0.00126202599412299 0.00116245013355586
"6" -0.000231124341543673 -0.000481088588268037 -4.13562905249888e-05 0.00144212326941414 0.00102219367721354 3.4707917258615e-05 -2.82271226630879e-05 0.000400568128854731 0.00045639581199685 0.000156975523223098 0.001077504836031 0.000833572602273934 0.000801995715999388 3.54872827862317e-05 0.00131199270065856 0.00123809208301253
"7" -0.00019150997462249 -0.000463211444910491 -5.46703702504561e-05 0.00142765585823768 0.000968312026786685 4.8856852637473e-05 -4.73755975563788e-05 0.000381491107003414 0.000408907612565716 0.000128323894750223 0.00106949830606743 0.000850523478918544 0.00082550445614812 -2.81592197779102e-05 0.00135887621777147 0.00130907450792619
"8" -0.000153352354396635 -0.000447122500398229 -6.93878324633988e-05 0.00141449195491261 0.000914692853372193 5.95359954853404e-05 -6.63351343652127e-05 0.000361021959827469 0.000361031920746251 9.9115577413679e-05 0.00105912029042143 0.000866368040107542 0.000845209360503372 -9.17893672009218e-05 0.0014024000620677 0.00137506844559029
"9" -0.000116825887426102 -0.000432889556423245 -8.54491832327524e-05 0.00140251441818815 0.000861563862930319 6.67386068676237e-05 -8.50665275074252e-05 0.000339321599054674 0.000312907690594807 6.93142143242996e-05 0.00104637759687794 0.000880966645151104 0.000861067173032 -0.000154949245936448 0.00144230341601108 0.00143578774932577
"10" -8.20950139800037e-05 -0.000420558168619501 -0.000102784364510954 0.00139157669661359 0.000809149743406596 7.04825560449643e-05 -0.00010352961747189 0.000316557765631556 0.000264670996098286 3.88811132014915e-05 0.00103128287097311 0.000894187180128109 0.000873061249949476 -0.000217193993521603 0.00147833453205317 0.00149097822951406
"11" -4.93048016970941e-05 -0.000410149953277471 -0.00012132076922123 0.00138150918380318 0.000757633264271854 7.0814019304409e-05 -0.000121687795182268 0.000292899869140148 0.000216460907470909 7.77712574163805e-06 0.00101386380564371 0.000905900765490135 0.000881200157607757 -0.000278100840397676 0.00151026376885191 0.00154042842986448
"12" -1.85772036145926e-05 -0.000401675765364325 -0.000140973626929096 0.00137211600358145 0.000707178070004625 6.7800428960457e-05 -0.000139503535190781 0.000268505541033739 0.00016840991196363 -2.40450691369907e-05 0.00099415357506715 0.000915991844586262 0.000885509408317132 -0.00033726256690035 0.0015378671424366 0.00158395406007964
"13" 9.96818068353277e-06 -0.000395130290069121 -0.000161668545849478 0.00136319449171475 0.000657925916716724 6.15271448269102e-05 -0.000156940707600655 0.000243540715596429 0.000120655641290808 -5.66289005635678e-05 0.000972198653607279 0.000924348632323505 0.000886044212409646 -0.000394291067982843 0.00156095217419088 0.00162141695458171
"14" 3.62314245383031e-05 -0.00039050233985122 -0.000183307631929198 0.00135452906847089 0.000609978067046087 5.21036280643552e-05 -0.000173965525772363 0.000218149767136458 7.3325315688322e-05 -9.00176193920615e-05 0.000948054626450231 0.000930865525115305 0.00088287085856173 -0.000448829182000506 0.00157934155418911 0.00165271204179029
"15" 6.01221987827114e-05 -0.000387779304830442 -0.000205801768078306 0.00134590015248158 0.000563422246960617 3.96495509458795e-05 -0.000190532173923281 0.000192476915176058 2.65460735749658e-05 -0.00012424729380563 0.000921784273535759 0.000935443684625242 0.000876078631874444 -0.0005005379139175 0.00159288026347468 0.00167777463427148
"16" 8.15607906485917e-05 -0.000386935984885903 -0.000229052553495741 0.00133709263821683 0.000518318000969252 2.43031310057589e-05 -0.000206603917144424 0.000166651073506899 -1.95611305022569e-05 -0.000159358055125204 0.000893459729093492 0.000937994033079352 0.000865776858358997 -0.000549112859504575 0.00160144111077283 0.00169657683358502
"17" 0.000100489089230845 -0.000387950910720128 -0.000252965823282155 0.00132788779146891 0.000474698804386069 6.21247129744368e-06 -0.000222141897809674 0.000140794363694934 -6.48710339927847e-05 -0.000195385437264576 0.000863165043849262 0.000938433360051935 0.000852082676386794 -0.000594272057386001 0.00160491927057306 0.00170912863357987
"18" 0.000116843540110895 -0.000390798943199395 -0.000277440260930095 0.0013180760262045 0.000432576800024527 -1.44622522632414e-05 -0.000237099028263607 0.000115013699112813 -0.000109275323830747 -0.000232353388410239 0.000830988907726545 0.00093668872344588 0.000835132149223064 -0.000635765920086776 0.00160324270411714 0.00171548067422405
"19" 0.00013058618842178 -0.000395452631098653 -0.000302367872918257 0.00130745890324632 0.000391941228932538 -3.7552563977454e-05 -0.000251439793473731 8.94058391395122e-05 -0.000152663182637401 -0.000270291735849169 0.00079702958183297 0.000932695818178456 0.000815074620263399 -0.000673374078342648 0.00159636199178223 0.00171571575996107
"20" 0.000141691788583239 -0.000401880806567069 -0.000327651745814444 0.00129584462320097 0.000352770599018237 -6.28778278375018e-05 -0.00026512036022408 6.40566105367522e-05 -0.000194937594761364 -0.000309217880500236 0.000761389667547998 0.000926401478557484 0.000792067836861788 -0.000706908795242904 0.00158425840721607 0.00170995523750568
"21" 0.000150140681975579 -0.000410049904119842 -0.000353183734948382 0.00128305424330341 0.00031502579987126 -9.02587544944884e-05 -0.000278101576877406 3.9039347217517e-05 -0.000235997157223276 -0.000349141958158955 0.000724184678182432 0.000917766511822938 0.000766279022419458 -0.00073621443390788 0.00156694202983661 0.00169835270942861
"22" 0.000155939475680556 -0.000419923839154084 -0.000378865236704221 0.00126892104198019 0.000278642346294923 -0.00011950746369587 -0.000290355156952952 1.44177302775554e-05 -0.000275753505827779 -0.000390076293491086 0.000685533672457595 0.000906757578551311 0.000737881874704364 -0.00076115741333721 0.00154445914086644 0.00168109664419316
"23" 0.000159107768830528 -0.000431455969822317 -0.000404598794819181 0.00125330177979191 0.000243568058753179 -0.000150430111886942 -0.000301845088623109 -9.75707669708244e-06 -0.000314132004499585 -0.000432021364241329 0.000645555951071226 0.000893359844143363 0.00070705958639868 -0.000781644714350613 0.00151687397607929 0.0016584087559375
"24" 0.000159676323450521 -0.000444598971806141 -0.000430281370531561 0.00123605767012539 0.000209720398528035 -0.000182832633600255 -0.000312550035851709 -3.34426523132119e-05 -0.00035105331430006 -0.000474968984726356 0.000604389194706298 0.000877571646020018 0.000673996487275031 -0.000797614383399737 0.00148429319427527 0.00163053698839713
"25" 0.000157702861230868 -0.000459287988909289 -0.000455829078471652 0.0012170832218573 0.000177029075743142 -0.000216525633257712 -0.000322447176624926 -5.66029813156405e-05 -0.00038645414706563 -0.000518907403054547 0.000562163398406787 0.000859403630408364 0.000638883574543707 -0.000809026154425259 0.00144684969749114 0.00159775648756774
"26" 0.000153252757053925 -0.000475456899372515 -0.000481146427475524 0.00119628033921115 0.000145413823067116 -0.000251309509771696 -0.000331526160533305 -7.92151436595059e-05 -0.000420279749429472 -0.000563819014459209 0.000519018104161313 0.000838882965931826 0.000601914513991776 -0.000815879292472806 0.00140469996564224 0.00156036924336198
"27" 0.000146426921418462 -0.000493016040393396 -0.000506160030955035 0.00117357658830941 0.00011479887114082 -0.000286993640059818 -0.000339782245854411 -0.000101259467665998 -0.000452485936389788 -0.00060967912553926 0.000475096732802061 0.000816048989190741 0.000563278899615016 -0.000818200170356162 0.0013580336648765 0.00151870025225844
"28" 0.000137330831513948 -0.000511875347672492 -0.000530791005550352 0.00114892402513191 8.51043004794531e-05 -0.000323386806773 -0.000347218184715355 -0.000122725725165074 -0.000483037290613889 -0.000656452115694189 0.000430548513818813 0.000790959549470415 0.000523170850300963 -0.000816039895168609 0.00130707324160387 0.00147308991079611
"29" 0.000126095063818006 -0.000531920196057448 -0.000554974971940712 0.00112229374733189 5.6265207770098e-05 -0.000360305447748796 -0.000353846669560675 -0.000143609656008596 -0.000511904293493035 -0.00070409930163181 0.000385513965211662 0.000763685479083068 0.000481783252930335 -0.000809485296923253 0.00125205538601644 0.00142390079831325
"30" 0.000112867798233554 -0.000553029236767721 -0.000578655179389064 0.00109368755111638 2.82181111871809e-05 -0.000397569038870176 -0.000359691928602963 -0.000163908651484322 -0.000539078051397442 -0.000752573243539619 0.000340147635225607 0.000734309040801898 0.000439303914747471 -0.000798646590666544 0.00119325206963324 0.00137150160540971
"31" 9.78160239127331e-05 -0.000575062460602271 -0.000601778951722137 0.00106312830365796 9.06180890830455e-07 -0.000435001612003921 -0.000364778822157905 -0.000183635675148084 -0.000564551165397062 -0.000801815017789786 0.000294593119228428 0.000702929176293981 0.000395923918016146 -0.000783663694476579 0.00113095317999723 0.00131628004796806
"32" 8.11187466046112e-05 -0.000597868593445021 -0.000624312880752736 0.00103066090420637 -2.57121757565288e-05 -0.000472433674495911 -0.000369146987292696 -0.000202797280483186 -0.0005883402957778 -0.00085176659008059 0.000249006127086971 0.000669654442319224 0.000351825084080042 -0.000764703421511185 0.00106547223369917 0.00125862584645458
"33" 6.29791030820908e-05 -0.000621276410249641 -0.00064622631745909 0.00099637101679303 -5.16716760531315e-05 -0.000509710102225026 -0.000372848873287447 -0.000221414862269755 -0.000610461460495026 -0.000902355911508163 0.000203524496588722 0.000634604889903072 0.000307190694454528 -0.000741957759217148 0.000997135032219263 0.00119893141617526
"34" 4.36064575659785e-05 -0.000645107552513902 -0.000667496884379256 0.00096036295487551 -7.6993338746038e-05 -0.000546680356281935 -0.000375937711727116 -0.000239501951575181 -0.000630950392163572 -0.000953505047251344 0.000158296273161157 0.000597913177497015 0.000262193489384442 -0.000715644691923705 0.000926293863806484 0.00113759175385492
"35" 2.32218822614321e-05 -0.000669171572380667 -0.00068812091329237 0.000922769428663553 -0.000101680880864402 -0.000583203500615926 -0.000378473128215388 -0.00025708760662454 -0.000649854554233017 -0.00100512912648791 0.000113457782508162 0.000559713902554429 0.000217002041112244 -0.000686007907268867 0.000853305207203964 0.00107500027479007
"36" 2.05072305462983e-06 -0.000693270549546506 -0.000708095677696927 0.000883748694066108 -0.000125737671096461 -0.00061915512015545 -0.000380528411828877 -0.000274198547152665 -0.000667236289495368 -0.0010571360290497 6.91483244458858e-05 0.000520153811776253 0.000171786283913866 -0.000653313312284755 0.000778544740289854 0.00101154246653077
"37" -1.96675952534705e-05 -0.000717198639387509 -0.000727435382917608 0.000843494329565268 -0.000149150873448969 -0.000654415805534237 -0.000382180939108929 -0.000290868415343006 -0.000683165412960375 -0.00110942954244474 2.54972867513513e-05 0.00047937950584474 0.000126701314829212 -0.000617846838888237 0.000702389372855662 0.00094759644353833
"38" -4.16968752677921e-05 -0.000740746706256152 -0.0007461546512431 0.000802219538308308 -0.000171891737770567 -0.000688883728492156 -0.000383504748464318 -0.000307129952025257 -0.000697727347083654 -0.00116189963526208 -1.73779070813924e-05 0.00043754103898965 8.18990933362199e-05 -0.000579923543736116 0.000625225680158671 0.000883526802389429
"39" -6.37923429819199e-05 -0.000763703206544336 -0.000764286544676171 0.000760163505578605 -0.00019392586026949 -0.000722471029421202 -0.000384587430155835 -0.000323021281183238 -0.000711023576248003 -0.00121443747803848 -5.93586625619404e-05 0.000394790266691057 3.75250511655469e-05 -0.00053987028853269 0.000547443812942598 0.000819682370970602
"40" -8.57254856844923e-05 -0.000785861684221429 -0.000781863051204457 0.000717591398373703 -0.000215212857591961 -0.00075509981633359 -0.000385509267357696 -0.000338583695929415 -0.000723161193332749 -0.00126692758462778 -0.000100339898074333 0.000351274209582221 -6.2827414861481e-06 -0.000498039892178771 0.000469432188246392 0.000756398643257185
"41" -0.00010726077331477 -0.000807016554645808 -0.00079893336133564 0.000674788458667177 -0.000235700440722329 -0.000786708254675085 -0.000386364852125584 -0.000353859177916324 -0.00073425855618118 -0.00131924669637826 -0.000140223390913961 0.000307142199176399 -4.93931968578083e-05 -0.000454792344225201 0.00039156962988082 0.000693987652850127
"42" -0.00012817538468629 -0.00082697832535731 -0.000815535749210202 0.000632048352045207 -0.000255335846047996 -0.000817249736559132 -0.000387233632322606 -0.00036889124717149 -0.000744453503148793 -0.0013712676268987 -0.000178925848052719 0.000262532949668113 -9.168326416575e-05 -0.000410510282806548 0.000314237328897118 0.000632738354118722
"43" -0.000148259868442667 -0.000845559256982491 -0.000831731615270069 0.000589688253294739 -0.000274058603953187 -0.000846688714360875 -0.00038820095742345 -0.000383724686942455 -0.000753882066795069 -0.00142286328901175 -0.00021636962472914 0.000217580914176711 -0.000133036914913829 -0.000365589302160008 0.000237804176414492 0.000572919643419125
"44" -0.000167312100658445 -0.000862590308071815 -0.000847569498790554 0.000548035740003756 -0.000291804856620117 -0.000875006563835453 -0.000389355486763017 -0.000398404992789853 -0.000762695785584787 -0.0014738996672094 -0.000252490964783514 0.000172413063287499 -0.000173350356406807 -0.000320426698133555 0.000162623967368089 0.000514769476998705
"45" -0.000185150052376435 -0.000877917750755051 -0.000863111768042345 0.000507417241541443 -0.000308524383412977 -0.000902193900633188 -0.000390767446257306 -0.000412975595295867 -0.000771051687310276 -0.00152424326835267 -0.000287234889032172 0.000127146143164744 -0.000212520449902066 -0.000275434585090502 8.90425483771939e-05 0.000458505375974497
"46" -0.000201598003129753 -0.00089140675493911 -0.000878415607673233 0.000468162467347083 -0.000324151215048473 -0.000928256408614787 -0.000392518428868468 -0.000427478567529365 -0.000779111972366947 -0.00157376386051835 -0.000320562166324235 8.18900863658e-05 -0.000250458170972672 -0.000231028508715357 1.73801831980171e-05 0.000404312563819458
"47" -0.000216513792701707 -0.000902939496412573 -0.000893537242930017 0.000430602429058153 -0.00033863489894009 -0.000953209892292573 -0.00039467661546175 -0.000441953917593181 -0.00078704599177186 -0.00162232515275629 -0.000352444771598465 3.67394824308907e-05 -0.00028707865201782 -0.000187618642764734 -5.20556580299395e-05 0.000352350085615113
"48" -0.000229759106709052 -0.000912420114892174 -0.000908535818647982 0.000395049440892837 -0.000351928600204519 -0.000977080457035567 -0.000397301862291707 -0.000456437868853636 -0.000795019273015254 -0.00166979263706726 -0.000382862195668071 -8.21584150336198e-06 -0.00032230330159 -0.000145622243150719 -0.000118973817835278 0.00030274865287786
"49" -0.000241227321515213 -0.000919779082125284 -0.000923459949439995 0.000361808373812034 -0.000363997288130314 -0.00099990481121001 -0.000400458028703328 -0.000470962886014033 -0.000803207174302563 -0.00171604220094864 -0.000411810280929575 -5.29002425104015e-05 -0.000356066980525289 -0.000105444799187327 -0.000183118255476077 0.000255610490793732
"50" -0.000250821197487444 -0.000924965726249832 -0.000938361085978315 0.000331159948881941 -0.000374804075639801 -0.0010217210800202 -0.00040419427007476 -0.000485551039088585 -0.000811772591070065 -0.00176094427609736 -0.00043929229866853 -9.72500628679185e-05 -0.000388302004361403 -6.74848240304278e-05 -0.000244243558755038 0.000211013623907495
"51" -0.000258475498523916 -0.000927946284394039 -0.000953283306462902 0.000303363902143368 -0.00038433623703116 -0.00104258281536644 -0.000408549064472712 -0.000500224881557847 -0.000820884937876921 -0.00180438071262691 -0.000465322521608805 -0.000141205499734275 -0.000418961342628895 -3.21190875453717e-05 -0.000302134487930207 0.000169006543514944
"52" -0.000264131493352889 -0.000928718839297125 -0.000968260407355051 0.000278646248493995 -0.000392583422538861 -0.00106253723280714 -0.000413564426510923 -0.000514994015924966 -0.000830698513402989 -0.00184623636215659 -0.00048992645225296 -0.000184720003107445 -0.000447991398709735 2.81939319049146e-07 -0.000356601942533224 0.000129616726830962
"53" -0.000267768553844618 -0.000927300466528077 -0.00098332139771597 0.000257197616859961 -0.000399554645823297 -0.00108164229478185 -0.000419269204586652 -0.000529859539616815 -0.000841371313891836 -0.00188639988734308 -0.000513140622387409 -0.000227757342942124 -0.000475351826608272 2.93770585253257e-05 -0.00040747983868156 9.28423431489708e-05
"54" -0.000269366604911038 -0.000923726248543697 -0.000998488840813011 0.000239173010004826 -0.000405273965462456 -0.00109995297156515 -0.000425681428071956 -0.000544819202328421 -0.000853037826658333 -0.00192477535883346 -0.00053500028519654 -0.000270285305616971 -0.000501007598507168 5.48504364644005e-05 -0.000454626600781923 5.8664830271937e-05
"55" -0.000268938685262249 -0.000918056681615541 -0.00101377861086871 0.000224684876819114 -0.000409773721384263 -0.00111752194974603 -0.000432815702225748 -0.000559858144423883 -0.000865834480724942 -0.00196126705986006 -0.000555553401796344 -0.000312279869172452 -0.000524927962821769 7.6413059141682e-05 -0.00049793332999553 2.70455527858289e-05
"56" -0.000266511494288658 -0.000910368289623974 -0.00102918584113068 0.000213799584098354 -0.000413105061074222 -0.00113440503624959 -0.00044068171414274 -0.000574951083872703 -0.000879869020086542 -0.00199579584164581 -0.000574857386215022 -0.000353720208785125 -0.000547087042405343 9.38096564284175e-05 -0.00053730817182296 -2.07427211807748e-06
"57" -0.000262126606602169 -0.000900759963364747 -0.00104471833827476 0.000206531716988174 -0.000415340990999882 -0.00115065142392286 -0.000449271572258202 -0.000590068474584032 -0.000895244572170596 -0.00202828291430891 -0.000592967757093762 -0.000394592537844223 -0.000567470017273077 0.000106824333329583 -0.000572692966671449 -2.87697429249537e-05
"58" -0.000255850294329241 -0.000889341927937176 -0.00106034852373924 0.000202856273759415 -0.000416560106879242 -0.00116630388000761 -0.000458581640962289 -0.000605168517217496 -0.00091204265378376 -0.00205867060168272 -0.000609948115769275 -0.000434883997733032 -0.000586058196944057 0.000115276382203702 -0.000604048726373707 -5.31268177366193e-05
"59" -0.000247757063364334 -0.000876247853004023 -0.0010760600818758 0.000202684707440291 -0.000416865996230899 -0.00118140161859548 -0.00046859469692524 -0.00062020505948462 -0.000930319932677763 -0.00208690227426945 -0.000625858863308909 -0.00047458358955948 -0.000602842243540671 0.000119031737997074 -0.000631358715285879 -7.52453269220734e-05
"60" -0.000237937207409005 -0.000861622754877071 -0.00109181597215371 0.000205892157116638 -0.000416373648950439 -0.00119597472698379 -0.00047928843817409 -0.000635123774864565 -0.000950122389240916 -0.0021129382268984 -0.000640767263336645 -0.000513683222151747 -0.00061781860215517 0.000117997191165892 -0.0006546357698795 -9.52317274730378e-05
"61" -0.000226498953969651 -0.000845625783067898 -0.00110757858696753 0.000212290019921413 -0.000415210056121073 -0.001210049772568 -0.000490631381718191 -0.000649866953712693 -0.000971466790378462 -0.00213674709628337 -0.000654738874597631 -0.000552170240889478 -0.000630988577129764 0.000112127104416947 -0.000673916978188106 -0.000113207118826786
"62" -0.00021356515226108 -0.000828431720194529 -0.00112329108655318 0.000221650268016365 -0.00041352664407849 -0.00122364178187162 -0.000502588470718795 -0.000664367633955072 -0.000994345742534444 -0.00215830555795147 -0.000667837942119658 -0.000590032088815956 -0.000642352301493536 0.000101419885813287 -0.000689252744283941 -0.000129293227269606
"63" -0.000199264580092275 -0.000810230378553592 -0.00113889645770263 0.000233694728699272 -0.000411482398382504 -0.00123675769473871 -0.000515114361575918 -0.000678565176908829 -0.00101872998710213 -0.00217761093402683 -0.000680129130638639 -0.000627256882609111 -0.000651920296755401 8.59233626478771e-05 -0.000700720079819862 -0.000143617935361469
"64" -0.000183742527778567 -0.000791212051611084 -0.00115433025341509 0.000248098067284203 -0.000409245076982128 -0.00124939508573655 -0.000528161929479775 -0.000692386628719781 -0.00104456939975146 -0.00219465808107899 -0.000691673119248459 -0.00066382583914746 -0.000659706081658417 6.57296170262225e-05 -0.000708417301368426 -0.000156312082669592
"65" -0.000167149810080253 -0.000771592164806941 -0.00116951969005508 0.000264500654761146 -0.000407008915667261 -0.00126154729212777 -0.000541673325714866 -0.00070576768785858 -0.00107178447544433 -0.00220946311902815 -0.000702529784337879 -0.000699716761674912 -0.000665725479827397 4.09808288216009e-05 -0.000712465119134926 -0.000167513366021202
"66" -0.000149653980894962 -0.000751585508738479 -0.00118438251713158 0.000282501924756117 -0.000404965037636146 -0.00127319343100596 -0.000555594230902009 -0.000718646270503793 -0.00110027445182584 -0.00222204567775899 -0.000712752417633618 -0.000734904999408139 -0.000669997870271201 1.18611768918752e-05 -0.000712995980763942 -0.000177350661417207
"67" -0.00013142512096278 -0.000731421892920652 -0.00119883592486759 0.000301662044746844 -0.00040331948307844 -0.00128430659196654 -0.000569852315880187 -0.000730957858382799 -0.00112991482583786 -0.00223243863403184 -0.000722392431255126 -0.000769361901515962 -0.000672556387096478 -2.14053097561209e-05 -0.000710162158683992 -0.000185960594535232
"68" -0.000112641196008658 -0.000711335522903036 -0.00121279179685836 0.000321522180730182 -0.000402286856167458 -0.00129485640734822 -0.000584379328229573 -0.000742645966028077 -0.00116055391731498 -0.00224068225779499 -0.00073149453587165 -0.000803048773958461 -0.000673424800599816 -5.85471300615625e-05 -0.000704134946553 -0.000193477604565207
"69" -9.34904346838164e-05 -0.000691568103585061 -0.00122615732510819 0.000341597507070727 -0.000402088424198011 -0.00130479613610817 -0.000599103387107511 -0.000753659624166456 -0.00119202297768732 -0.00224682769463398 -0.000740100251621416 -0.000835927822729943 -0.000672645531749575 -9.92596205423583e-05 -0.00069509922979387 -0.000200030384061966
"70" -7.41624967063127e-05 -0.000672363376980732 -0.00123883681458277 0.000361384064728961 -0.000402941391856716 -0.00131408280562752 -0.000613940657969125 -0.000763953444835902 -0.00122413389908354 -0.00225092848591664 -0.000748242619325538 -0.000867950927916439 -0.000670255276447358 -0.000143205726617415 -0.000683258188284628 -0.000205744692352378
"71" -5.48463924233016e-05 -0.000653970174808284 -0.00125072992628813 0.000380369197948955 -0.000405072419487264 -0.00132266376706101 -0.000628816036951394 -0.000773491877445883 -0.00125667256419208 -0.00225304842853539 -0.000755956537641557 -0.000899068308089099 -0.000666302653958185 -0.000190009960740457 -0.000668821548263302 -0.000210749141127785
"72" -3.57491163718317e-05 -0.000636648277550175 -0.00126174481637079 0.000398031539325995 -0.000408701074170768 -0.00133047861121011 -0.000643643148857524 -0.000782241100571656 -0.00128941289665851 -0.0022532581050782 -0.00076325984333392 -0.000929224081533532 -0.000660839046486837 -0.000239279763716526 -0.000652017208220295 -0.000215159412279782
"73" -1.70584327942846e-05 -0.000620640947045467 -0.00127177689933312 0.000413854114613545 -0.000414039967326876 -0.00133747070914662 -0.000658335014925812 -0.00079018676811437 -0.00132211611851258 -0.00225163164727963 -0.000770174678137233 -0.000958357966762249 -0.000653919118832419 -0.000290594229109625 -0.000633080368725411 -0.000219091421205246
"74" 1.02764264301533e-06 -0.000606191849029274 -0.00128073575108752 0.000427329676322224 -0.000421296733876145 -0.00134357207036925 -0.000672805197355682 -0.000797310588051345 -0.00135451956064814 -0.00224824717845671 -0.000776711487080827 -0.000986401439667865 -0.000645605726133067 -0.000343510256612102 -0.000612252382790748 -0.000222651385435254
"75" 1.83130371332363e-05 -0.000593549745638479 -0.00128852334447306 0.000437962797791128 -0.000430665675371213 -0.00134871925908208 -0.000686966830884183 -0.000803606389480768 -0.00138636392269041 -0.00224318403507953 -0.000782873359648287 -0.00101328851889003 -0.000635965607866896 -0.000397573974836855 -0.000589785174272329 -0.000225940572187524
"76" 3.46105764347149e-05 -0.000582940334609012 -0.00129504683572624 0.00044527856767472 -0.000442324121923244 -0.00135284506247666 -0.000700736279744013 -0.000809079456595402 -0.00141736857186388 -0.00223652834225601 -0.00078866424468587 -0.00103894102398348 -0.000625069382571502 -0.000452321318805215 -0.000565933117786827 -0.000229054271277998
"77" 4.97332569329174e-05 -0.000574587401206672 -0.00130022248417061 0.000448837537736922 -0.000456427748329615 -0.00135588619163568 -0.000714021002735817 -0.000813735349972211 -0.00144725847523485 -0.00222836073185656 -0.000794073736164495 -0.00106328491201627 -0.000612995509114246 -0.000507277131612302 -0.000540956301257728 -0.000232074744361868
"78" 6.35106699456115e-05 -0.000568696657044436 -0.00130396791562115 0.000448225593764624 -0.000473111659737882 -0.00135777535169573 -0.000726740817094604 -0.000817589331475565 -0.00147574629328351 -0.00221876858401855 -0.000799094001293845 -0.00108624279842904 -0.000599823693502239 -0.000561967618451631 -0.000515110381673183 -0.00023507811639934
"79" 7.57755448261279e-05 -0.000565450642281279 -0.00130621118713281 0.000443078494394985 -0.000492479098912692 -0.00135845304277603 -0.000738814576774945 -0.000820657644720829 -0.00150255070513489 -0.00220782918191811 -0.000803703966666479 -0.00110772670743213 -0.000585639839054076 -0.000615915203609385 -0.000488655984735087 -0.000238131670952486
"80" 8.63726544564904e-05 -0.000565013075333139 -0.00130687976939518 0.000433071576429958 -0.000514607691479796 -0.00135785750095071 -0.000750159283497542 -0.000822962347950388 -0.00152738821653528 -0.00219562522517415 -0.000807881387930812 -0.00112765643104971 -0.000570531261484569 -0.000668648043868715 -0.000461842835945954 -0.000241286616239601
"81" 9.51639970554694e-05 -0.000567517941979153 -0.0013059152529915 0.000417936479094115 -0.000539539531565396 -0.001355933094169 -0.000760707059991602 -0.000824528916277232 -0.00154998329336561 -0.00218222987367872 -0.000811596421336524 -0.00114594817861701 -0.000554590793443284 -0.000719704280896763 -0.000434916905246364 -0.0002445867227978
"82" 0.000102027464611886 -0.00057308391987699 -0.00130326975280194 0.000397457602916507 -0.000567272710837767 -0.00135263290361511 -0.000770383294735844 -0.000825382502092053 -0.00157006891652909 -0.00216771707752078 -0.000814824096755502 -0.00116251399498252 -0.000537913565995012 -0.000768622423952823 -0.000408122271843649 -0.000248066583813314
"83" 0.000106853299131774 -0.000581775490275843 -0.00129890406317683 0.000371484803930622 -0.000597776496513921 -0.00134790767869065 -0.000779125488712412 -0.000825545739276252 -0.00158738580717625 -0.00215215042691492 -0.000817521322085625 -0.00117727147748778 -0.000520597869902816 -0.000814964018626625 -0.000381678485761211 -0.000251739410308078
"84" 0.000109558435676421 -0.000593643889780775 -0.00129278751294774 0.00033992430796748 -0.000630971165617953 -0.00134172108380362 -0.000786873310311949 -0.000825044219047969 -0.00160168455535604 -0.00213559281229332 -0.000819649322404766 -0.0011901321320257 -0.000502740706367698 -0.000858302753347801 -0.000355803566887589 -0.000255614966894469
"85" 0.000110068026195192 -0.000608695130367495 -0.00128489922668866 0.000302748736869717 -0.000666744714921215 -0.00133403836817319 -0.000793579395618242 -0.000823900064130189 -0.00161273738891694 -0.0021180973492802 -0.000821166262099027 -0.00120101570419152 -0.000484439143420019 -0.000898230545259912 -0.000330700642252383 -0.000259685344989256
"86" 0.000108337064352358 -0.000626899968494063 -0.00127523792016722 0.000259996501729082 -0.000704930561167098 -0.00132483015776124 -0.000799198482695722 -0.000822132926939732 -0.00162033047178251 -0.00209971114580201 -0.000822026413786398 -0.00120984475949364 -0.000465799213611364 -0.000934356551573712 -0.000306548725332257 -0.000263931552069617
"87" 0.000104348446434137 -0.000648187338923992 -0.00126380129577037 0.000211772654335131 -0.000745329735521392 -0.00131408030944208 -0.000803695163423721 -0.000819757727727385 -0.00162426502966558 -0.00208047408000936 -0.00082218248934074 -0.00121653517188829 -0.000446913020808717 -0.000966317463600092 -0.000283517335728268 -0.000268322364625828
"88" 9.80931580909595e-05 -0.00067245141235317 -0.00125060653004675 0.000158244963315944 -0.000787702686952164 -0.00130177157773155 -0.000807038987207963 -0.000816787583303368 -0.00162436760454904 -0.00206041923742525 -0.000821582738354476 -0.00122101716772771 -0.000427882352909346 -0.000993769969741237 -0.000261747584277451 -0.000272814555501928
"89" 8.95916823419078e-05 -0.000699545724806497 -0.00123568267572737 9.96416271758859e-05 -0.000831767544790131 -0.00128789832760196 -0.000809212633757537 -0.000813230102063851 -0.0016204856991785 -0.00203957196343158 -0.000820181009326032 -0.00122322049265346 -0.000408801616313437 -0.00101640061781952 -0.000241363804207463 -0.000277356089644127
"90" 7.88918142207378e-05 -0.000729296392881499 -0.00121906422154096 3.62531991433842e-05 -0.000877217447782547 -0.00127246044596616 -0.000810203568797053 -0.000809091021692252 -0.00161249256814544 -0.00201794953063268 -0.000817922759744899 -0.00122308303838004 -0.000389759341504858 -0.00103392309392449 -0.000222472412499208 -0.000281882084724793
"91" 6.60562167051615e-05 -0.000761487857406734 -0.00120079183452517 -3.15803238718251e-05 -0.000923709453532908 -0.00125546257047856 -0.000810011756630813 -0.000804368647017773 -0.00160027972502052 -0.00199556142817195 -0.000814762017396127 -0.00122054349756542 -0.000370846928490697 -0.00104608121989443 -0.000205148456686934 -0.000286323771185835
"92" 5.11757831875042e-05 -0.000795867856720598 -0.00118092903548656 -0.00010346133563933 -0.000970867602117009 -0.00123691570340369 -0.000808647728737075 -0.000799065412858925 -0.00158377536413486 -0.00197241193352971 -0.000810650337267314 -0.00121555415967504 -0.00035214804553733 -0.0010526487780899 -0.000189454178301774 -0.0002906040414965
"93" 3.43599347297747e-05 -0.000832168409952813 -0.0011595343232343 -0.000178955808296163 -0.00101830897495946 -0.00121683962399449 -0.000806117253984251 -0.000793174798584156 -0.00156292676044695 -0.00194850200966619 -0.000805539138810101 -0.00120807187245575 -0.000333739487992463 -0.00105343699143227 -0.000175418662907823 -0.000294640210616687
"94" 1.57390959435256e-05 -0.000870082755271705 -0.00113667878181178 -0.00025758613979121 -0.00106562412742573 -0.00119525525439324 -0.000802455128323266 -0.000786689962052641 -0.00153770796551443 -0.00192382008162564 -0.000799384931619607 -0.00119805743911924 -0.0003156966276719 -0.0010482877171133 -0.000163055692190382 -0.000298345795611951
"95" -4.53891771246012e-06 -0.000909290254679176 -0.00111243588160307 -0.000338839804652424 -0.0011123979227529 -0.00117219181526098 -0.000797689317517244 -0.000779605725751018 -0.00150812947907053 -0.00189835340529653 -0.000792149542450437 -0.00118549256824832 -0.000298080168796158 -0.00103707999710593 -0.00015235574058561 -0.000301634097071388
"96" -2.63067989105614e-05 -0.000949452195568734 -0.0010868935334332 -0.000422183114603125 -0.00115820692634529 -0.00114768039110506 -0.000791855006696293 -0.00077191484308583 -0.00147422071632574 -0.00187208882958751 -0.000783796514749958 -0.00117035777898169 -0.000280956243775547 -0.00101973506865276 -0.000143287978299214 -0.000304420136099584
"97" -4.93891479849817e-05 -0.000990215427553099 -0.00106013287457621 -0.00050705619251087 -0.00120262883181458 -0.0011217605225514 -0.000785007539686252 -0.000763609088649276 -0.00143604690154569 -0.00184500324274918 -0.000774291779369055 -0.00115265158800132 -0.000264372268835665 -0.00099620372369749 -0.000135799870584944 -0.000306618830892604
"98" -7.35896347831909e-05 -0.00103121328226724 -0.00103224567763361 -0.000592890165677076 -0.00124524948308691 -0.00109447203399202 -0.000777195240810381 -0.00075468799092227 -0.00139369721608152 -0.00181707194104878 -0.000763612492248943 -0.00113237726442044 -0.000248376298420329 -0.000966479137315175 -0.000129821862837705 -0.000308150545258347
"99" -9.87020048964543e-05 -0.00107207944715906 -0.0010033208191909 -0.000679110117027423 -0.00128566497087707 -0.00106585965098729 -0.000768480694766615 -0.000745148311468541 -0.00134729267724212 -0.00178827577174719 -0.000751740322269026 -0.00110955658373441 -0.00023300721448705 -0.000930599145827993 -0.000125266687265857 -0.000308942060642024
"100" -0.000124517451370945 -0.00111244339319089 -0.000973452552222406 -0.000765133315412062 -0.00132348705537167 -0.00103597581111151 -0.000758926927771358 -0.000734994718032051 -0.00129698232458917 -0.00175858612765794 -0.000738661177019708 -0.00108421916503253 -0.000218291347233044 -0.000888639985748416 -0.000122035401074956 -0.000308927742431906
"101" -0.000150816374359512 -0.00115193772527352 -0.000942736370068389 -0.000850385963968611 -0.00135834247559735 -0.00100487106936272 -0.000748605065667642 -0.000724230576495196 -0.00124294325280331 -0.00172797902528996 -0.000724371808842311 -0.00105641441344184 -0.00020425509646404 -0.000840714964998451 -0.000120013849126204 -0.000308050834225741
"102" -0.000177378705944351 -0.00119020799871329 -0.000911263817065558 -0.000934307063742119 -0.00138989719793792 -0.000972602539672004 -0.00073758536221313 -0.000712868934713324 -0.00118537884875926 -0.00169642914813602 -0.000708875237538817 -0.00102619619744655 -0.000190913691683555 -0.000786985349984316 -0.00011906847454735 -0.000306264129767826
"103" -0.000203973730353074 -0.00122690018958394 -0.000879125932188635 -0.00101634181390329 -0.00141783125975494 -0.000939230018677589 -0.000725940866487995 -0.000700929572276333 -0.00112451845771684 -0.00166391755825319 -0.000692187816376016 -0.000993637986292191 -0.000178278488896356 -0.000727650072125789 -0.000119077081632736 -0.000303534541343198
"104" -0.000230386848128992 -0.00126167821925024 -0.00084641990207346 -0.00109596522576795 -0.00144185988367847 -0.000904817954239285 -0.000713754218708095 -0.00068842838462655 -0.0010606202978294 -0.00163042009435329 -0.000674332496419853 -0.000958822807588515 -0.000166347562512621 -0.000662948983884228 -0.000119888004306906 -0.000299837036326602
"105" -0.000256398672671885 -0.00129422386807313 -0.00081323169509815 -0.00117266708278471 -0.00146173166072343 -0.000869435180395759 -0.000701096507641511 -0.000675399601746817 -0.000993960942294744 -0.00159592930290372 -0.000655337222524645 -0.000921853625396098 -0.000155122833243843 -0.000593168614877485 -0.000121361085876152 -0.000295163469984017
"106" -0.000281794460903472 -0.001324238177419 -0.000779649452369007 -0.00124597499493207 -0.0014772364495895 -0.000833149294740597 -0.000688049245691995 -0.000661873249625321 -0.000924843812220465 -0.00156042770798061 -0.000635247962983674 -0.000882840126878899 -0.000144592378071788 -0.00051862339219424 -0.000123349468671682 -0.000289518454457127
"107" -0.00030637046572018 -0.00135143703387427 -0.000745765163445939 -0.00131543514690706 -0.0014881963988243 -0.000796036128747191 -0.000674682398850736 -0.000647891450706215 -0.000853596644919223 -0.00152391358976858 -0.000614119246165491 -0.000841910166114587 -0.000134745891617002 -0.000439678229047628 -0.0001257064135504 -0.000282920661880255
"108" -0.000329935113074578 -0.00137556816882495 -0.000711653317644239 -0.00138063679536706 -0.00149447076303932 -0.000758172897544692 -0.000661078669106538 -0.000633496257783286 -0.000780557873200076 -0.00148638292038554 -0.000592012304347467 -0.000799200896976983 -0.000125560188591742 -0.000356725541769254 -0.000128288877630585 -0.000275399174009761
"109" -0.000352309421742115 -0.00139639866329582 -0.000677402439969053 -0.00144120067081058 -0.00149596060118716 -0.000719639439770805 -0.00064730514215712 -0.000618740356094922 -0.000706090126445459 -0.0014478438957465 -0.000569003702920234 -0.000754863816258351 -0.000117017830624324 -0.000270195782019019 -0.000130953328161694 -0.000266999596913488
"110" -0.000373322729396133 -0.00141372025320136 -0.000643086769899504 -0.00149678932780397 -0.00149260392932927 -0.000680520361682679 -0.000633429628681778 -0.000603674033394794 -0.000630564234300593 -0.00140830767519524 -0.000545173853895895 -0.000709062746800835 -0.00010909281002794 -0.000180551717117177 -0.000133571687158111 -0.000257778974168805
"111" -0.000392831726913922 -0.00142735924099402 -0.000608780478136443 -0.00154710009729064 -0.00148438079219262 -0.000640903035916792 -0.000619516620124652 -0.000588357662462265 -0.000554369584211264 -0.00136779512960184 -0.000520619027052831 -0.000661970158600428 -0.000101756420683081 -8.82881848353456e-05 -0.00013601904064132 -0.000247807068226643
"112" -0.000410697758845535 -0.00143716279653066 -0.000574560241582491 -0.00159187624343787 -0.00147130001297771 -0.000600874377771368 -0.000605627104247818 -0.000572848859274838 -0.000477896586659188 -0.00132633157846112 -0.000495439647074455 -0.000613769470782981 -9.49789452517505e-05 6.08255980209084e-06 -0.00013817603457076 -0.000237164170387465
"113" -0.000426811379871139 -0.00144301000631097 -0.000540485567009413 -0.00163089968497998 -0.00145341868623156 -0.000560527496841321 -0.000591813307725791 -0.000557212702390625 -0.000401549299324686 -0.00128394952454153 -0.000469745450408293 -0.000564653324153515 -8.87322839229714e-05 0.000102020702185658 -0.000139943958611255 -0.000225939364160165
"114" -0.000441083120471212 -0.00144480997230446 -0.000506630073454585 -0.00166400026552628 -0.0014308199792336 -0.000519957066770061 -0.000578125845523017 -0.000541507765676385 -0.000325729351386867 -0.00124069332906547 -0.000443657937976725 -0.000514820765606125 -8.29812421744109e-05 0.000198963555520245 -0.00014123010560406 -0.000214233151131809
"115" -0.000453433881184244 -0.00144249707290237 -0.000473045015141424 -0.00169104446281272 -0.00140361832864086 -0.000479255034277689 -0.000564608844220057 -0.000525800808339893 -0.000250839975070081 -0.00119660789263726 -0.000417301061051207 -0.000464479034899534 -7.76959106139469e-05 0.000296348324297739 -0.000141954548240371 -0.000202147278474223
"116" -0.000463818600581821 -0.00143603625576369 -0.000439797677333859 -0.00171195115060804 -0.00137196184737989 -0.000438520207816039 -0.000551294235626587 -0.000510152444608009 -0.000177274512065523 -0.00115175522433979 -0.000390803251193543 -0.000413833160248081 -7.28427665843504e-05 0.000393589921201146 -0.000142057921786962 -0.000189795778561675
"117" -0.000472206966381509 -0.00142542435776319 -0.0004069321235215 -0.00172667714201826 -0.00133603274993956 -0.000397846413975628 -0.000538218893937309 -0.00049462338248693 -0.000105427297624706 -0.00110619884110282 -0.000364302413832395 -0.000363102200539902 -6.83902539041915e-05 0.000490108629174547 -0.000141484650199038 -0.000177293810177069
"118" -0.000478591292765997 -0.00141068317474043 -0.000374501667724163 -0.00173522620224208 -0.00129603298343314 -0.000357333091885497 -0.00052540652226419 -0.000479269785172009 -3.56712553205586e-05 -0.00106000496199739 -0.00033793298047235 -0.000312498699750764 -6.43072290307848e-05 0.000585324762678835 -0.000140206087062223 -0.000164759136335252
"119" -0.000482987770927309 -0.00139186303367653 -0.000342548148624088 -0.00173764107314938 -0.00125219151016235 -0.000317071165055618 -0.000512871920824465 -0.0004641474588298 3.16355254870249e-05 -0.00101325840574369 -0.00031183793811992 -0.000262236480114513 -6.05632133226689e-05 0.00067866944797164 -0.000138195950725237 -0.000152310291690521
"120" -0.000485425299189621 -0.00136903868271155 -0.000311113667738712 -0.00173401744271039 -0.00120475483649525 -0.000277156833114804 -0.000500631915878086 -0.000449309897610141 9.61478656275188e-05 -0.000966040584986645 -0.000286155705783137 -0.000212531254745886 -5.71298879138677e-05 0.000769584529543891 -0.000135458768153219 -0.000140066534807702
"121" -0.000485967326815275 -0.00134231759820315 -0.000280231945509932 -0.00172448448777119 -0.00115399164154208 -0.000237681776942919 -0.000488692708887925 -0.000434800329396182 0.000157550125178435 -0.000918441438178406 -0.000261028832966454 -0.000163590297918626 -5.39822557569642e-05 0.000857536542480374 -0.000132000231293453 -0.000128141786860189
"122" -0.000484681263963329 -0.00131182450811734 -0.000249939213548904 -0.00170921595814848 -0.00110018844005721 -0.000198734060119252 -0.000477053933889918 -0.000420658225218818 0.00021555146317499 -0.000870562253467243 -0.000236594505956674 -0.000115616429975104 -5.10927764410348e-05 0.00094200875167622 -0.000127845621091063 -0.000116651339762492
"123" -0.000481661854389917 -0.00127771291587696 -0.000220257595295722 -0.00168842363934113 -0.00104363697442366 -0.000160400194703695 -0.000465716582897136 -0.000406924145382552 0.000269892657423201 -0.000822505306021065 -0.000212985818323815 -6.88100902659121e-05 -4.843685515557e-05 0.00102252649788501 -0.000123035387378322 -0.000105700312376755
"124" -0.000477011749959424 -0.00124015834055594 -0.000191214253373602 -0.00166236024947681 -0.000984647988080143 -0.000122763035293646 -0.000454666865319024 -0.000393626147747939 0.000320346264305839 -0.000774373521767604 -0.00019033613197144 -2.33573167705591e-05 -4.59981471264255e-05 0.00109864524351836 -0.000117629377208913 -9.53929319466504e-05
"125" -0.000470853345613782 -0.00119935646926529 -0.000162828231120504 -0.00163131584418938 -0.000923537482910104 -8.589674471789e-05 -0.000443898519349106 -0.000380790065519981 0.00036671728594991 -0.00072628312408658 -0.000168765346665061 2.05632490939372e-05 -4.37527930007489e-05 0.00116996650199272 -0.0001116866950914 -8.58220186072973e-05
"126" -0.000463323073004866 -0.00115552357079457 -0.00013511069935495 -0.0015956078376315 -0.000860628756179582 -4.98787215191099e-05 -0.000433392510728787 -0.000368436305784736 0.000408853912856682 -0.000678345349881346 -0.000148397564873264 6.27845138076473e-05 -4.16889219622682e-05 0.00123613769970584 -0.000105293027560767 -7.70769349646013e-05
"127" -0.000454566124469853 -0.00110889427878446 -0.000108082381815264 -0.00155559096324148 -0.00079624652990148 -1.47756789087308e-05 -0.000423132987566923 -0.000356581920902709 0.00044663654622091 -0.000630682318666073 -0.000129335552039814 0.000103150904827492 -3.97851043487276e-05 0.00129685326229089 -9.85354071629723e-05 -6.92343772195446e-05
"128" -0.000444728745798787 -0.00105972414101484 -8.17453846639076e-05 -0.00151165516157448 -0.000730718700061628 1.93521940917622e-05 -0.000413097770425017 -0.000345235276715975 0.000479989965950028 -0.000583411350224269 -0.000111681832155089 0.00014152485120103 -3.80332910029628e-05 0.00135186524602574 -9.15211877292931e-05 -6.23656087691924e-05
"129" -0.000433973142308767 -0.00100827805213015 -5.61104172221383e-05 -0.001464202087563 -0.000664372008034059 5.24434638307097e-05 -0.000403262775508607 -0.00033440259982893 0.000508879851032377 -0.000536652163046671 -9.55307612409433e-05 0.000177779205251366 -3.6423556100271e-05 0.00140097475506183 -8.43609592695597e-05 -5.65319732401455e-05
"130" -0.000422460309718785 -0.000954841074032748 -3.11742440512457e-05 -0.00141367021432117 -0.000597530374094938 8.44497836888032e-05 -0.000393606953821962 -0.00032408950871251 0.00053330995447963 -0.000490526227426974 -8.0959004440209e-05 0.000211806896619728 -3.49475566407457e-05 0.00144404702383059 -7.71739621149833e-05 -5.17825706130352e-05
"131" -0.000410358932078281 -0.000899705308646868 -6.94581076995973e-06 -0.00136050689416226 -0.000530514209153168 0.000115324358452043 -0.000384102407432347 -0.000314290933941923 0.000553326310605425 -0.000445156551130205 -6.80336098586498e-05 0.000243515198092941 -3.35959270640186e-05 0.00148100097356341 -7.0086535679985e-05 -4.81577863576925e-05
"132" -0.000397829326681619 -0.000843176194503656 1.65805894580554e-05 -0.00130518321619315 -0.000463642988387796 0.000145026594435993 -0.000374728994261508 -0.000305007732014711 0.000569010478044023 -0.000400659753880902 -5.68146942951196e-05 0.00027282852924999 -3.23654203024014e-05 0.00151181138588837 -6.32334375126785e-05 -4.56905861125664e-05
"133" -0.000385039143529388 -0.000785567390395772 3.94054813154685e-05 -0.00124818054455483 -0.000397211387336658 0.000173525275903705 -0.000365458933386729 -0.000296232576094158 0.000580484103894391 -0.000357155169589334 -4.73460483054795e-05 0.000299691463018059 -3.12542323309595e-05 0.00153651365085069 -5.67484545221287e-05 -4.43992564000085e-05
"134" -0.000372143592629643 -0.000727201787217933 6.15362517701143e-05 -0.00118998361545359 -0.000331523924946597 0.000200789410243861 -0.000356266384585711 -0.000287958536532889 0.000587902557936022 -0.000314750044833109 -3.96604196127004e-05 0.000324063805595229 -3.02602076297738e-05 0.001555192069648 -5.07792617104441e-05 -4.42987016321481e-05
"135" -0.000359294004138012 -0.000668399460332538 8.29714571558302e-05 -0.00113108506853161 -0.000266864808746002 0.000226798368809122 -0.000347133860512976 -0.000280174898849739 0.000591457745373496 -0.000273559248850882 -3.3773746767062e-05 0.000345922976386986 -2.93804596843234e-05 0.00156799159830865 -4.54564556436974e-05 -4.53892987879271e-05
"136" -0.000346641056268506 -0.00060949231281435 0.000103721832605195 -0.00107198030588615 -0.000203503694133332 0.000251533220885342 -0.00033803800080936 -0.000272877919597507 0.00059136503472254 -0.000233681973960274 -2.96906454599307e-05 0.00036526536742896 -2.86184954409586e-05 0.00157509064040398 -4.0923997937878e-05 -4.76644843219194e-05
"137" -0.00033432068344462 -0.000550809125421859 0.000123789135905475 -0.0010131488207421 -0.000141705028728911 0.000274986324126014 -0.000328959511878823 -0.000266052241521626 0.000587869890327596 -0.000195217552743727 -2.74044281852108e-05 0.000382105361374786 -2.79725266376644e-05 0.00157673016818138 -3.73185332975778e-05 -5.11099671386272e-05
"138" -0.000322461875133004 -0.000492674277766752 0.000143181385045459 -0.000955071344229977 -8.17089264271676e-05 0.000297149182634323 -0.000319884341552175 -0.000259688117278489 0.000581242256585712 -0.000158253862314859 -2.68963971525664e-05 0.000396469808914059 -2.7448449718374e-05 0.00157317178896454 -3.47678160637206e-05 -5.57007547742266e-05
"139" -0.000311176082627724 -0.000435408652276794 0.000161903102418375 -0.000898210702723421 -2.37454232714788e-05 0.000318020197858209 -0.000310797054950755 -0.00025378014445361 0.000571767950325376 -0.000122872395168094 -2.81289053360032e-05 0.000408406519629809 -2.70441073203827e-05 0.00156472973954788 -3.3397941103983e-05 -6.14058694749529e-05
"140" -0.00030057075136709 -0.000379330687264019 0.000179962064155404 -0.000843009298092699 3.19784224366368e-05 0.000337603798306839 -0.000301684509771663 -0.000248312624996809 0.000559749779129807 -8.91469904689973e-05 -3.10599714519336e-05 0.000417975194222348 -2.67608090214056e-05 0.00155173776474634 -3.33276225593119e-05 -6.81845367100565e-05
"141" -0.000290736807248535 -0.000324745128428623 0.000197355108986731 -0.000789893352437781 8.52658919035606e-05 0.000355909014336376 -0.000292542774696009 -0.000243279100430506 0.000545501057191913 -5.7141229576654e-05 -3.56284304491259e-05 0.000425249251062847 -2.6602674774494e-05 0.00153455510756823 -3.46571625809022e-05 -7.59898092742551e-05
"142" -0.000281753694806056 -0.000271944572663821 0.000214091766556522 -0.000739258579296774 0.00013595168172013 0.000372945323347059 -0.000283362794491466 -0.000238665624837502 0.000529342430558242 -2.6906993846422e-05 -4.17679268447753e-05 0.000430319437011096 -2.65696951199062e-05 0.00151356846525505 -3.74851477292097e-05 -8.4767685624246e-05
"143" -0.000273680081688837 -0.00022121239889604 0.000230174160271016 -0.000691470563542674 0.000183881747160344 0.00038872985045658 -0.000274143083615942 -0.000234461594678968 0.000511599753210318 1.51391473043781e-06 -4.93942922601136e-05 0.000433281339855959 -2.66581182925895e-05 0.0014891655797943 -4.18911343534748e-05 -9.44581622446902e-05
"144" -0.000266571712778382 -0.000172806796084878 0.00024559884192628 -0.000646861139275091 0.000228932639108996 0.000403284128357388 -0.000264880557383618 -0.000230657088397737 0.000492595791429778 2.80898089393876e-05 -5.8422030880175e-05 0.00043424999015824 -2.68727137103707e-05 0.00146175242896818 -4.79348093214378e-05 -0.000104992552954713
"145" -0.000260459768368609 -0.000126974068400319 0.000260365928016995 -0.000605729469930602 0.000270994509661799 0.000416629447782228 -0.00025558680586989 -0.000227241201482026 0.000472651147484808 5.28010691075237e-05 -6.87484243103185e-05 0.000433340157217824 -2.72076867471469e-05 0.00143173949365082 -5.56712547271679e-05 -0.000116300112397083
"146" -0.000255368958468852 -8.39349455426172e-05 0.000274475191940092 -0.000568329338060766 0.000309983273719714 0.000428788935744575 -0.000246261515470201 -0.000224198001557477 0.00045207690701409 7.56402681480668e-05 -8.02716417347621e-05 0.000430682349638348 -2.76625039054585e-05 0.00139953182722159 -6.51289821713592e-05 -0.000128301572015661
"147" -0.000251308662563033 -4.38902981472661e-05 0.000287922412900216 -0.00053488020156749 0.000345839047431695 0.000439793472273965 -0.000236915068249221 -0.000221513588022109 0.000431173765928705 9.66110847769491e-05 -9.28764854660769e-05 0.000426410214146836 -2.82282630906703e-05 0.00136553121027712 -7.63243455290608e-05 -0.000140916338232236
"148" -0.000248272000204911 -7.0070919080847e-06 0.000300702254807641 -0.000505556154628268 0.00037853120206256 0.000449671637565856 -0.000227558382444554 -0.00021917440225792 0.000410229985984745 0.000115728982995401 -0.000106445850568583 0.000420662696933414 -2.89033662814497e-05 0.00133013341822206 -8.92512850690631e-05 -0.000154054885325541
"149" -0.00024624284381746 2.65666937035896e-05 0.000312808136237769 -0.000480480786654891 0.000408042467100052 0.000458456578493307 -0.000218203884234217 -0.000217161501789077 0.000389514231394144 0.000133018580768801 -0.000120855394951701 0.000413583859667781 -2.96803211689519e-05 0.00129371601022877 -0.000103888094843743 -0.000167628991970937
"150" -0.000245190570098669 5.67162403715773e-05 0.000324236409812006 -0.00045974145349133 0.000434380786624059 0.000466178304339682 -0.000208870930044007 -0.00021545481444893 0.000369276870914494 0.000148520051973536 -0.000135980098937565 0.000405320272015927 -3.05481225776735e-05 0.00125664367007862 -0.000120194796933828 -0.000181544803014635
"151" -0.000245078458430452 8.33567626722981e-05 0.000334974976226252 -0.000443376106429659 0.000457587659962437 0.000472874127993401 -0.000199571860023421 -0.000214034202413615 0.000349750625417491 0.000162277391946959 -0.000151695592749081 0.000396019565022265 -3.15006707316471e-05 0.00121926244887874 -0.0001381149247157 -0.000195705586242281
"152" -0.000245856507661916 0.00010643538701311 0.000345017962554109 -0.000431376342149365 0.000477711431687277 0.000478579121302638 -0.000190325736569673 -0.000212876781221206 0.000331139512214971 0.000174350644428177 -0.000167869057710525 0.000385829657334392 -3.25248200071397e-05 0.00118189745156103 -0.000157569141838478 -0.000210013488610491
"153" -0.000247466190202389 0.000125926885921911 0.000354358732928583 -0.000423694107662636 0.000494824686879196 0.000483326007269459 -0.000181155920365564 -0.000211958709778883 0.000313628148501549 0.000184803253663958 -0.000184377590341655 0.000374895970928406 -3.3609775423206e-05 0.00114484828861009 -0.000178464576452983 -0.000224375773109924
"154" -0.000249842620666651 0.000141843415798438 0.000362986097733108 -0.000420232204492347 0.000509025674162797 0.000487154864863234 -0.000172075773831915 -0.000211254584658716 0.000297373256213309 0.000193712122099546 -0.000201095654312404 0.000363365032683759 -3.47452585947597e-05 0.00110839069361658 -0.000200700944468469 -0.000238689434465486
"155" -0.000252914653156937 0.000154223559143232 0.000370891427111086 -0.000420860868566294 0.000520423804836051 0.000490099910150111 -0.000163111744221186 -0.000210733742118001 0.000282505476348536 0.000201154359384575 -0.000217899082220404 0.00035137771175514 -3.5917007825565e-05 0.0010727760974969 -0.000224151217691613 -0.000252861322481161
"156" -0.000256607998312773 0.000163138143809187 0.00037807401306731 -0.000425408570793092 0.000529146065376507 0.000492198382925345 -0.0001542791295301 -0.000210367749102765 0.0002691319487633 0.000207217599559562 -0.000234671550166149 0.000339073529467503 -3.71122832898068e-05 0.00103822341692574 -0.000248685035282886 -0.000266795626629114
"157" -0.000260837492431266 0.000168691459027588 0.000384523816457519 -0.000433669217662811 0.000535337578237829 0.000493485501208899 -0.000145599291927662 -0.000210129251443422 0.000257331432522996 0.000211996492321347 -0.000251298685926582 0.000326582648454486 -3.83177695609229e-05 0.00100492915099636 -0.00027415972062501 -0.000280402019211956
"158" -0.000265529952356845 0.000171008017050761 0.000390240896977082 -0.000445401047147298 0.000539143872362871 0.000493997110194458 -0.000137093017807954 -0.000209986839493707 0.000247154942213451 0.00021558253097782 -0.000267677654627065 0.000314033915690005 -3.95212902561659e-05 0.000973058044657756 -0.000300424228352422 -0.000293593850959815
"159" -0.000270596837360947 0.000170252972141722 0.00039522305306149 -0.00046033877346596 0.00054073139048886 0.000493767607619927 -0.000128777104957798 -0.000209907969566734 0.000238631044230857 0.000218074411805344 -0.000283703978033254 0.000301548520360291 -4.07106060138138e-05 0.000942751049187193 -0.00032731958147368 -0.000306284594136405
"160" -0.000275957254259349 0.000166599632565041 0.000399474728078194 -0.000478190173586072 0.000540268230622453 0.000492834814664778 -0.000120671556614627 -0.000209866437401196 0.000231759806857614 0.000219572486554578 -0.000299287382048389 0.000289239397828418 -4.18749999424872e-05 0.000914114925139089 -0.000354684469808231 -0.000318402511712424
"161" -0.000281534893938894 0.000160260015809492 0.000402999301106694 -0.000498640300363019 0.000537932106981392 0.000491232877749739 -0.000112784863330013 -0.000209831327499765 0.000226524294939877 0.000220174705703669 -0.000314344926972117 0.0002772123352564 -4.30034155821164e-05 0.00088723838001185 -0.000382355453034835 -0.000329875504459499
"162" -0.000287250880415184 0.000151455001820053 0.00040580740345086 -0.000521361860151247 0.000533900997429547 0.00048899339994398 -0.000105134354268423 -0.000209775376839188 0.000222877605148669 0.00021997839620251 -0.000328798468699407 0.000265569537789249 -4.40874915867371e-05 0.000862172072955727 -0.000410166147242371 -0.000340639426526429
"163" -0.00029302996361135 0.000140429088434125 0.000407914568457691 -0.000546010297259649 0.000528357120539854 0.000486151002516104 -9.77330338319027e-05 -0.000209671259065451 0.000220758632717925 0.000219082466722475 -0.000342586355446206 0.000254398953392784 -4.51188604943752e-05 0.000838951507546081 -0.00043795317858319 -0.000350642172579742
"164" -0.000298806195310833 0.000127445451470966 0.000409334178245071 -0.000572232561477334 0.000521476159693932 0.000482740904755328 -9.05864191209141e-05 -0.000209496292529916 0.000220083105687505 0.000217577265933254 -0.000355650238974544 0.000243784423146804 -4.60922767247698e-05 0.000817585521736118 -0.000465556807261537 -0.000359835610641188
"165" -0.000304520272872363 0.000112775199505514 0.000410092166273827 -0.000599674402775829 0.000513444197471249 0.000478793460302316 -8.37041245881811e-05 -0.000209231417019067 0.000220749615528825 0.00021555553677274 -0.000367940014228019 0.0002337990933716 -4.70044858415669e-05 0.000798060164768926 -0.000492825423022099 -0.000368185111660985
"166" -0.000310113457617478 9.67008889927428e-05 0.000410213487920775 -0.000627974387871026 0.000504430697413468 0.000474342744634714 -7.70893526973031e-05 -0.000208854612849721 0.000222645643650786 0.000213100225897233 -0.000379423867775805 0.000224509835679413 -4.78535097590192e-05 0.000780337455957781 -0.000519606951328374 -0.000375660543319622
"167" -0.000315537746978288 7.95115351559602e-05 0.000409731054268192 -0.000656780329755673 0.000494610854708012 0.0004694181775079 -7.07431124204577e-05 -0.000208355213772019 0.000225641084214139 0.000210291185369118 -0.000390070852525078 0.000215974218168831 -4.86395863622337e-05 0.000764364907391032 -0.000545769802446374 -0.000382248340892905
"168" -0.000320752641942881 6.15029933283881e-05 0.000408677834487125 -0.000685744653462605 0.0004841501855683 0.000464056117720526 -6.46619850111376e-05 -0.000207717879513931 0.000229600658821452 0.000207200653392414 -0.000399862465303529 0.000208238793223084 -4.93637263614972e-05 0.000750073331653629 -0.000571182562068449 -0.000387937592403307
"169" -0.000325728760311353 4.2971935005095e-05 0.00040709716698717 -0.000714526756943849 0.000473208033128083 0.000458285063765095 -5.88468635339841e-05 -0.000206938592609067 0.000234374955257191 0.000203896224966702 -0.000408791395385196 0.000201344499060087 -5.00357762497514e-05 0.000737375584039577 -0.000595730550175944 -0.000392731542824657
"170" -0.000330438181058721 2.42120256808312e-05 0.000405033593845476 -0.000742803543620618 0.000461932410472834 0.00045214045834593 -5.3287992091173e-05 -0.000206009424311725 0.00023981443807768 0.000200435089531485 -0.000416857193283774 0.000195323015478188 -5.06593476768491e-05 0.000726172645530364 -0.00061930621302422 -0.000396644652797088
"171" -0.000334862244059492 5.51730177493177e-06 0.00040253669440642 -0.000770265994034019 0.000450471760868221 0.000445652521470119 -4.7981568507225e-05 -0.00020493001701182 0.000245761733036923 0.000196874108526086 -0.000424068586964125 0.000190200095097565 -5.12452449318353e-05 0.00071635511990245 -0.000641819239183771 -0.000399697150749081
"172" -0.000338995196464989 -1.28310279555401e-05 0.000399658154835798 -0.00079662714374508 0.000438961301076492 0.000438856738263997 -4.29100975555167e-05 -0.000203706726831005 0.000252060907342565 0.000193253636582499 -0.000430441372149089 0.000185990823999233 -5.18060567599938e-05 0.000707805388376541 -0.000663197514402404 -0.000401924313759324
"173" -0.000342835105595588 -3.05557186671371e-05 0.000396456700625976 -0.000821616242700825 0.000427535525397724 0.000431784052468144 -3.80662915777659e-05 -0.00020234504541392 0.000258556459299695 0.000189615957497752 -0.000435999102866658 0.000182704768484373 -5.23546492541455e-05 0.000700392768195689 -0.000683372821127659 -0.000403361842268774
"174" -0.000346384879409737 -4.73960713869421e-05 0.000392991584388177 -0.000844994044948136 0.000416303555423932 0.000424470757197221 -3.34311797141307e-05 -0.000200854141264571 0.000265097938827727 0.000185987545945404 -0.000440771252784735 0.000180342468578193 -5.29063659999464e-05 0.000693994190766801 -0.000702297112402315 -0.000404061509617606
"175" -0.000349661610419357 -6.31011769885163e-05 0.000389325777875923 -0.000866540564498068 0.000405386600664503 0.000416951294750275 -2.89916091546544e-05 -0.000199247903912637 0.000271541324229782 0.000182392544951329 -0.000444796176282669 0.000178899309158323 -5.34830673167927e-05 0.000688473760089517 -0.000719937218162466 -0.000404079595926734
"176" -0.00035268199056939 -7.74390869482201e-05 0.000385524699685885 -0.000886062892078408 0.000394881527535467 0.000409262076871641 -2.47297675581055e-05 -0.000197540760508876 0.000277749715152969 0.000178849893258104 -0.000448112838501194 0.000178361132362229 -5.40970852583497e-05 0.000683702235587513 -0.000736273445101286 -0.000403478379774636
"177" -0.000355468704323917 -9.01995211049196e-05 0.000381655628624067 -0.000903403577958092 0.000384884813926021 0.000401440403814926 -2.06232161510631e-05 -0.000195752057182492 0.000283596071849867 0.000175367507755366 -0.000450768006572063 0.000178712512030152 -5.47708903264588e-05 0.00067954344759554 -0.000751297750712446 -0.000402328620395128
"178" -0.000358055104283179 -0.000101187727869941 0.000377788788367013 -0.000918429240224611 0.000375485219839705 0.000393522463032825 -1.66552874413193e-05 -0.000193904309768615 0.000288965746875464 0.000171951411545427 -0.000452811166318385 0.000179926058820257 -5.55243239026824e-05 0.000675872365612844 -0.000765020779239579 -0.000400703657549512
"179" -0.000360468102459113 -0.00011023622040155 0.000373992668569339 -0.000931040332280068 0.000366760827818361 0.000385548116446381 -1.28053114318084e-05 -0.000192018186899949 0.000293758135690981 0.000168601934366683 -0.000454295671669997 0.000181973453096407 -5.63786720609585e-05 0.000672565518584211 -0.000777460588709499 -0.000398683699988009
"180" -0.000362747103189159 -0.000117200912987459 0.000370337948897577 -0.000941166262115432 0.000358777025773316 0.000377560261748203 -9.0536479173222e-06 -0.000190119615391478 0.000297888093942498 0.000165312179933725 -0.000455268865469267 0.000184816652193565 -5.73513076348103e-05 0.000669503430424376 -0.000788647108741137 -0.00039634939459043
"181" -0.000364928353084422 -0.000121962633264696 0.00036689300404471 -0.000948769344008081 0.000351604667109335 0.000369595824449439 -5.38002925105041e-06 -0.000188232446175577 0.000301286157851955 0.000162074951947249 -0.000455790377682613 0.000188417292273586 -5.84621734215285e-05 0.000666577239705253 -0.000798623554569824 -0.000393785177694048
"182" -0.000367051755347087 -0.000124432591969811 0.000363727596359052 -0.000953844446683436 0.000345293964539868 0.000361699499795945 -1.76323671901857e-06 -0.000186384052257131 0.000303897175808713 0.000158878531539825 -0.000455911206647395 0.000192726970600732 -5.97282161721919e-05 0.000663686394090394 -0.000807440905260602 -0.000391078639133255
"183" -0.00036915432709388 -0.00012454648983109 0.000360907882814233 -0.000956410667580613 0.000339892531150661 0.000353915760514345 1.81677289423902e-06 -0.000184601782953299 0.00030568914209428 0.00015570995344531 -0.000455685739556042 0.000197697053247855 -6.11677195888505e-05 0.000660738055227313 -0.000815156311103554 -0.000388311240726965
"184" -0.000371277718014587 -0.000122280160752129 0.000358498960096193 -0.000956528921935078 0.000335442817335806 0.000346285671403079 5.37674928326508e-06 -0.000182910665937905 0.000306642565806675 0.000152553124769867 -0.000455162657627456 0.000203270220751844 -6.27936596858082e-05 0.000657649453178614 -0.000821841101196044 -0.000385572608171966
"185" -0.000373456687438873 -0.000117624628199867 0.000356564719999448 -0.000954280127417446 0.000331969991080235 0.000338853782846043 8.92953735568656e-06 -0.000181339100617026 0.000306759740442699 0.000149394816918282 -0.000454393393392645 0.000209389596316119 -6.46175754439032e-05 0.000654349186827967 -0.000827563623787793 -0.000382943819775571
"186" -0.000375722184703936 -0.000110613440329357 0.000355159558406198 -0.000949775037020309 0.000329504938674704 0.000331666968938192 1.24994352277821e-05 -0.000179913396339429 0.00030605780781607 0.000146218401741585 -0.000453418904580202 0.000215990429823235 -6.66480162187703e-05 0.000650770005152549 -0.000832399662634702 -0.000380504518631678
"187" -0.000378106784897459 -0.000101309777775739 0.000354340010540528 -0.000943153392682784 0.00032806047942264 0.000324768038117786 1.60943532491665e-05 -0.000178655664928619 0.000304575414828748 0.000143009437824727 -0.000452282661221391 0.000223006239013596 -6.88903578576024e-05 0.000646869416931448 -0.000836428954214956 -0.000378333265199514
"188" -0.000380636348102402 -8.98041818121311e-05 0.000354156362305799 -0.000934580309950472 0.000327643593571323 0.000318200143506232 1.97295910850076e-05 -0.000177594250799814 0.000302361865136094 0.00013975828543785 -0.000451022295415426 0.00023037002138337 -7.13494728738115e-05 0.000642598139048659 -0.000839729702645313 -0.000376501424111004
"189" -0.000383333074438837 -7.62218886432542e-05 0.000354649218933257 -0.000924239790417685 0.000328255093171605 0.000312008303117358 2.34127576896055e-05 -0.000176748020293775 0.000299485582772818 0.000136453663252765 -0.000449667228724495 0.000238004074408031 -7.40185433284507e-05 0.000637933519740871 -0.000842379374898445 -0.000375076738636908
"190" -0.000386204799849506 -6.0713694746454e-05 0.000355858905866562 -0.000912343119359295 0.000329890378263407 0.000306232695792891 2.71535661893392e-05 -0.000176139291502498 0.000296029225043016 0.000133090981792858 -0.000448245241558109 0.000245836241832181 -7.68944061021828e-05 0.000632852473950282 -0.000844456124882118 -0.000374120478691469
"191" -0.000389267295272599 -4.34634159601127e-05 0.000357812056763612 -0.000899113277864563 0.000332534391077149 0.000300913926781109 3.0956614432453e-05 -0.000175785876319302 0.00029208661809103 0.000129665967747039 -0.00044677401433363 0.000253788710367404 -7.99648747996175e-05 0.000627341465774792 -0.000846031871595628 -0.000373688922547401
"192" -0.000392516383640882 -2.46816846371103e-05 0.000360534839826236 -0.000884788773094744 0.000336162661322188 0.000296090003828153 3.48278304112196e-05 -0.000175702749051284 0.00028776180285109 0.000126182827028128 -0.000445270163192692 0.000261781257489646 -8.32179125583118e-05 0.000621398899668248 -0.000847180360394957 -0.000373827615125536
"193" -0.00039594796247666 -4.6030337600235e-06 0.000364042461471549 -0.000869632158766655 0.000340741246803343 0.000291797771807293 3.87670855569889e-05 -0.00017590290439299 0.000283168442568417 0.000122646325726981 -0.000443743347380079 0.000269730407026595 -8.66337301568678e-05 0.000615028340739393 -0.000847960430806031 -0.000374578747900025
"194" -0.000399548351634312 1.65084368787319e-05 0.000368338569632065 -0.000853904990116912 0.000346232989714238 0.000288065596597398 4.27711295661241e-05 -0.000176397097242542 0.000278427715320286 0.000119067568655795 -0.0004421951233755 0.000277554336594618 -9.01896849990348e-05 0.000608241985700212 -0.000848433819397343 -0.000375976339075918
"195" -0.000403289146231998 3.8378527095272e-05 0.000373422720100544 -0.00083787895286642 0.000352596992917029 0.000284925070426285 4.68392352042447e-05 -0.000177194465593646 0.000273666109349248 0.000115465922585033 -0.000440622649732646 0.000285169287610635 -9.38581728718801e-05 0.00060105990697629 -0.000848644051417713 -0.00037804359346916
"196" -0.000407147813951593 6.06998335816944e-05 0.000379283363890665 -0.000821831618871462 0.000359776602816836 0.000282395039960088 5.09657823574174e-05 -0.000178296491760677 0.000269009480650245 0.000111859123545075 -0.000439017031115684 0.000292491450600496 -9.7609427970906e-05 0.000593497729155979 -0.000848638146649136 -0.000380798344412486
"197" -0.000411079599312233 8.31579667431965e-05 0.00038589774452076 -0.000806037775364539 0.000367709540640322 0.000280498832854667 5.51445294705529e-05 -0.000179701808264631 0.000264586755010422 0.000108277822352864 -0.000437365103645143 0.000299435512818555 -0.000101407337835097 0.000585585723685193 -0.000848446099252305 -0.000384245537880046
"198" -0.000415041180071975 0.000105424215013919 0.000393235075512682 -0.000790777977630336 0.000376329394762112 0.000279248743587805 5.93586043079785e-05 -0.00018140719259748 0.000260526282824016 0.00010475327550921 -0.00043564826310956 0.000305918019526334 -0.000105216566619457 0.000577350578811107 -0.000848086590170694 -0.000388386718862738
"199" -0.000418975865958139 0.000127159563073862 0.000401252127905381 -0.00077631538501104 0.000385573531437782 0.000278650323777934 6.36079637395945e-05 -0.000183403076101324 0.00025695001028307 0.000101321398199205 -0.000433842822347482 0.000311858160643907 -0.00010899542668699 0.000568821613168127 -0.000847579730899993 -0.000393214592312164
"200" -0.000422828996366288 0.000148018291733753 0.000409900739573396 -0.000762910974086599 0.000395352376722065 0.000278707718767823 6.78694769895051e-05 -0.000185679120648154 0.000253972516901817 9.80280914950914e-05 -0.000431924903104346 0.000317174366686709 -0.000112698331210319 0.000560031517134471 -0.00084692107113856 -0.000398709715670409
"201" -0.00042652332734828 0.000167656432598757 0.000419116937666906 -0.000750814641164001 0.000405585742473079 0.000279412240053979 7.21321216679826e-05 -0.000188216491797108 0.000251703553121944 9.49161438892148e-05 -0.000429859609508476 0.000321788944987327 -0.00011628427312708 0.000551012330743336 -0.000846108586156873 -0.000404848826836161
"202" -0.000429999141093791 0.000185722385791871 0.000428831033086629 -0.000740260194384656 0.000416181177311997 0.000280755965875488 7.63789641591771e-05 -0.000190991927223213 0.000250241157174042 9.20377150790571e-05 -0.000427620686353234 0.000325622236146821 -0.000119703188574221 0.00054178989914731 -0.000845121985371139 -0.00041159736027814
"203" -0.000433169192674238 0.000201884396953394 0.000438962577338436 -0.000731462779009775 0.000427052400556512 0.000282719673016379 8.05941466442383e-05 -0.000193981015222511 0.000249670346853369 8.94484770895182e-05 -0.000425167077434652 0.000328608146528666 -0.000122908739939356 0.000532395169806683 -0.000843931797967141 -0.000418911429444991
"204" -0.000435961081682923 0.000215807976699432 0.000449422057866364 -0.000724616986014158 0.000438099081327788 0.000285277627857054 8.47592723860298e-05 -0.000197150417214399 0.000250067051276425 8.72038551650101e-05 -0.000422463652683436 0.000330674620069395 -0.000125851502444281 0.000522855860024989 -0.000842503329485465 -0.000426746313458679
"205" -0.000438292942719046 0.000227181489551307 0.000460112791003611 -0.000719894932166106 0.000449222452144196 0.000288397045539781 8.88533622435853e-05 -0.000200461871594566 0.000251487068224709 8.53641832625074e-05 -0.00041947403656022 0.000331759841384097 -0.000128484401267659 0.000513189619232232 -0.000840788475029956 -0.000435046714752494
"206" -0.000440076242519523 0.000235705680834337 0.000470931536746837 -0.000717444048920101 0.000460313758514502 0.000292039724187489 9.28567647692247e-05 -0.000203878903874956 0.000253974655583358 8.39938901350196e-05 -0.00041616119134877 0.000331804637715439 -0.000130762184046159 0.00050341880757126 -0.00083873394653921 -0.000443747586753278
"207" -0.000441235687009704 0.000241102600411067 0.00048176867946772 -0.000717390186302839 0.000471272482803762 0.000296161015412757 9.67493567614473e-05 -0.000207351830115321 0.000257555427203319 8.31527651636138e-05 -0.000412484532643275 0.000330759905460545 -0.000132632575792269 0.000493558874861458 -0.000836275856640481 -0.000452783202855088
"208" -0.00044168967371955 0.000243125051303959 0.000492503839753049 -0.000719817392341112 0.000481988262891506 0.000300708393723866 0.000100516255825755 -0.000210833881704257 0.000262238935877155 8.2905738933657e-05 -0.000408410660730777 0.000328578981550905 -0.000134054832066708 0.000483622900520059 -0.000833343542533948 -0.0004620780569749
"209" -0.000441358200323696 0.000241551431814995 0.000503021028370035 -0.000724796752367794 0.000492349559982881 0.000305624898734321 0.000104135542412759 -0.000214272495815242 0.000268016204529053 8.33152864708248e-05 -0.000403905851920923 0.000325223269701817 -0.000134984980873846 0.000473614911196165 -0.000829862563089701 -0.000471554675338854
"210" -0.000440175081139182 0.000236189143396091 0.000513195606743858 -0.000732361888832356 0.000502245238893492 0.000310849415881625 0.000107591321708105 -0.000217609963047881 0.00027485933187746 8.44414079067591e-05 -0.000398930105165164 0.0003206650527007 -0.000135382874007023 0.000463540124883341 -0.000825750573256364 -0.000481128217758385
"211" -0.000438067714337506 0.000226886201859926 0.000522900809394553 -0.00074251396720892 0.000511567226802798 0.000316314888275004 0.000110861944783265 -0.00022078930779303 0.000282723753268412 8.63468096177898e-05 -0.000393458725095999 0.000314880740219082 -0.000135211072317673 0.0004533963640737 -0.000820920497452472 -0.000490714028060611
"212" -0.000434985855984128 0.000213520204359453 0.000532013538588189 -0.000755231548347335 0.000520200219708304 0.000321948111851369 0.000113936332018985 -0.000223745232786326 0.000291548667346426 8.9084999609386e-05 -0.000387460393240164 0.000307857350345852 -0.000134436024301467 0.000443178855619329 -0.000815289047439471 -0.000500221501345264
"213" -0.000430871692093309 0.000196019305346724 0.000540407186398011 -0.000770457561962846 0.000528033152801549 0.000327678320184703 0.000116794493257403 -0.0002264225971824 0.000301253176715673 9.27120812337927e-05 -0.000380911477472282 0.000299591390288012 -0.000133030097419601 0.000432878847298216 -0.000808766624454153 -0.000509556580189947
"214" -0.000425686810693754 0.000174338788822523 0.00054796182155211 -0.000788112395959114 0.000534957244797362 0.000333425594826132 0.000119428942839313 -0.000228755046553394 0.000311744026700582 9.72747136423723e-05 -0.000373790596283452 0.000290088552544245 -0.000130964208692681 0.000422479771341709 -0.000801260593425378 -0.00051862816477294
"215" -0.000419397844000655 0.000148489433874735 0.000554556431357125 -0.000808080489613801 0.000540871247976304 0.00033911465809009 0.000121824951213107 -0.000230682594666946 0.000322908941979065 0.000102814215423749 -0.000366078238118983 0.000279363983035289 -0.000128223992817351 0.000411972513352849 -0.000792687168628927 -0.000527340784630198
"216" -0.000411983969544067 0.000118517270312089 0.000560080725547576 -0.000830230426500996 0.000545659379692331 0.000344663146293441 0.000123973730044146 -0.000232140238047888 0.000334625068578584 0.000109371059904351 -0.000357765423517125 0.000267441926469442 -0.000124788122456703 0.000401335764913754 -0.000782956880088003 -0.000535602861562025
"217" -0.000403434748716026 8.45142585661845e-05 0.00056442570423435 -0.000854402098881309 0.000549228773060608 0.000349995978452234 0.000125867734876529 -0.000233073174171616 0.000346754325287854 0.000116971734526584 -0.00034884277154409 0.000254356221045905 -0.000120652208386109 0.00039055241382782 -0.000771995358619247 -0.000543319363429392
"218" -0.00039375357519062 4.66159568255196e-05 0.000567491029976017 -0.000880413074508324 0.000551482709988738 0.000355028317858404 0.000127500594522225 -0.000233422135579057 0.000359151339584086 0.000125637891682426 -0.000339305559761122 0.000240153840543992 -0.000115810008718623 0.000379602577868044 -0.000759724582218895 -0.000550401031712794
"219" -0.000382947186577224 5.00150666250214e-06 0.000569188161790286 -0.000908062906339 0.00055233577392695 0.000359689080254651 0.000128873948325928 -0.000233135603345638 0.000371657298399911 0.000135383141450095 -0.000329159261824218 0.000224887940992725 -0.000110263032646989 0.000368468394624908 -0.000746078926609083 -0.000556760139786719
"220" -0.000371043832246564 -4.01114484729736e-05 0.000569432543833474 -0.000937136730736478 0.000551703999778929 0.000363898873425351 0.000129982938711639 -0.000232168114259036 0.000384107845308614 0.000146209319664944 -0.000318410153113977 0.000208623408689408 -0.000104020682352288 0.000357129628105829 -0.000731001173321646 -0.000562314577516822
"221" -0.000358069205836483 -8.84648616634885e-05 0.000568156780641002 -0.000967398555373711 0.00054951087377628 0.00036758598115169 0.000130831559090251 -0.000230473040989778 0.000396335352218403 0.000158110782470141 -0.000307072443002652 0.000191433303248429 -9.71011231649685e-05 0.000345568547847835 -0.000714446226284834 -0.000566983700126874
"222" -0.000344069964744769 -0.000139758733221813 0.000565298626225888 -0.000998604040254062 0.000545703188139422 0.000370683253147314 0.000131423923301805 -0.000228015780980217 0.000408162436068756 0.000171069957861446 -0.000295169913170269 0.00017339789813168 -8.95230176494318e-05 0.000333775196157132 -0.000696378539383401 -0.000570696463705388
"223" -0.000329099425135159 -0.000193665707072434 0.00056081211638062 -0.00103050538652414 0.000540222434370529 0.000373122931911964 0.000131767984183671 -0.000224767824314193 0.000419417914464424 0.000185060583371127 -0.00028272720810051 0.000154607784240658 -8.13181816647023e-05 0.00032173772526703 -0.00067677995749365 -0.000573390860164335
"224" -0.000313216463078981 -0.000249815071103466 0.000554660937926985 -0.00106283992411683 0.000533035832744956 0.00037484485410945 0.000131869638801442 -0.000220703260540984 0.000429925971810853 0.000200042116891032 -0.000269779235944899 0.000135160988340163 -7.25191691794631e-05 0.000309449123970166 -0.000655640967665872 -0.000575002499773307
"225" -0.000296490652104787 -0.000307818572850261 0.000546820806622391 -0.00109534113370788 0.000524111929256514 0.000375795264900183 0.000131739373775484 -0.000215810273275977 0.000439518521346373 0.000215964182835246 -0.000256363529833597 0.000115161331773221 -6.31694077705264e-05 0.000296908567791408 -0.000632976000733343 -0.00057548702309244
"226" -0.000279003815307292 -0.000367259973715852 0.000537285696599973 -0.00112774402103112 0.000513447803335051 0.000375923932073584 0.000131394148792553 -0.000210074879013613 0.000448025832688616 0.000232769185513095 -0.000242530197839946 9.47213379612024e-05 -5.33213252462848e-05 0.000284122959765044 -0.000608812350300397 -0.000574798962100658
"227" -0.000260828039563568 -0.000427694038508107 0.000526055071367329 -0.00115978524805104 0.000501042244873269 0.000375187649263071 0.000130844295423577 -0.000203505956086206 0.000455291283999283 0.000250380052062895 -0.000228332106886523 7.39539819918795e-05 -4.30241269247798e-05 0.000271103502892089 -0.000583194604246118 -0.000572910043841514
"228" -0.000242061262148388 -0.000488668083033222 0.000513148177249136 -0.00119120062017319 0.000486918930389118 0.000373550892239164 0.000130113425455243 -0.000196106430189314 0.00046116661521485 0.000268718883452879 -0.00021382776563485 5.29819787589774e-05 -3.23410684562218e-05 0.000257873181834021 -0.000556182387742899 -0.000569796906356723
"229" -0.000222789010833476 -0.000549713669858776 0.000498594987218055 -0.00122173315767174 0.000471116727656564 0.000370981053733027 0.00012921255217471 -0.000187894012489548 0.000465512450406215 0.000287690790489242 -0.000199080497402647 3.19259772615728e-05 -2.13410456103249e-05 0.000244452926443964 -0.000527864237669618 -0.000565448500919835
"230" -0.000203110531321409 -0.000610354199103083 0.000482436299902034 -0.00125113484640194 0.000453687559872065 0.000367456993434188 0.000128166639391613 -0.000178893644527865 0.000468204574438382 0.000307196465546693 -0.000184163316402783 1.09138336059356e-05 -1.00949957243633e-05 0.000230883555471444 -0.000498333043059665 -0.00055986337033617
"231" -0.000183123551824449 -0.000670109722690709 0.000464726416754253 -0.00127916283517218 0.000434705010061553 0.000362960311514195 0.000126999746733663 -0.000169139201254103 0.000469132159508707 0.000327121349405294 -0.000169154329888754 -9.92996120785131e-06 1.32237535063342e-06 0.000217208210120705 -0.000467711108148766 -0.000553052919223229
"232" -0.000162928645219989 -0.000728503589406074 0.000445535312780294 -0.00130558824294575 0.000414248756081886 0.000357487411656306 0.00012572819082838 -0.000158667862505989 0.000468201876123674 0.000347351547073191 -0.000154128277433156 -3.04763001192825e-05 1.28322197361404e-05 0.000203473383300406 -0.000436130053470366 -0.000545033826963937
"233" -0.00014262925244137 -0.000785063949951209 0.000424943314222444 -0.00133018831949612 0.000392425443886538 0.000351032403542096 0.000124381067497232 -0.000147526864679611 0.000465335891031846 0.000367758467266163 -0.00013917022483707 -5.06021650895872e-05 2.43486666618291e-05 0.000189740287892076 -0.000403740112078482 -0.000535835826324801
"234" -0.000122328234020045 -0.00083932966913994 0.000403034710755171 -0.00135276168316821 0.000369356258873333 0.000343609017335279 0.000122978808176459 -0.000135767768625527 0.000460479111211765 0.000388214951551094 -0.000124366513250859 -7.01825619130112e-05 3.57905001986554e-05 0.00017606991398568 -0.000370710522011283 -0.000525499762137795
"235" -0.000102125927242848 -0.000890857420336279 0.000379914932917558 -0.00137311478741207 0.000345165095459015 0.000335227482970576 0.000121553638345341 -0.000123452470230264 0.00045359053115563 0.000408586309137319 -0.000109807476108265 -8.91014847425171e-05 4.70673635638713e-05 0.000162540663356524 -0.000337221277541066 -0.000514075887622771
"236" -8.21282129276323e-05 -0.00093922010320682 0.000355689618646885 -0.00139107561144644 0.000320000739355275 0.000325915553946676 0.000120128023247305 -0.000110637971595773 0.000444657060166847 0.000428736378523905 -9.55771871888252e-05 -0.000107236967448754 5.80987668917541e-05 0.000149222594572246 -0.000303459611001811 -0.000501618614009216
"237" -6.24298264668409e-05 -0.000984013156738474 0.000330484295710838 -0.00140648301490869 0.000294016850560974 0.00031570079380862 0.000118727963479305 -9.73945297011591e-05 0.000433677982665065 0.000448528519448477 -8.17693190204191e-05 -0.000124484896147602 6.87958891016078e-05 0.000136201960420285 -0.000269626265000672 -0.000488196461685983
"238" -4.31378412146486e-05 -0.00102486685756537 0.000304424062563358 -0.00141919738080904 0.000267379264126415 0.000304624330537757 0.000117382271495727 -8.37926165789892e-05 0.000420678684103381 0.000467822465116809 -6.84662472176629e-05 -0.000140741439646337 7.90775850533666e-05 0.00012356036045913 -0.000235936474072331 -0.000473880839832834
"239" -2.43427799685385e-05 -0.00106143528289115 0.000277640984720096 -0.00142909784813669 0.000240259454450322 0.000292735297632769 0.000116117038909785 -6.99029654030048e-05 0.000405706812947359 0.000486488290398832 -5.57546948137345e-05 -0.000155909539843681 8.88641507761149e-05 0.000111389722215637 -0.000202597313539572 -0.000458752723951266
"240" -6.14258200700627e-06 -0.00109340843058415 0.000250282351145776 -0.00143608290699133 0.000212832447142354 0.000280087212134153 0.00011495857101559 -5.5801151332877e-05 0.000388825259887934 0.000504391564923307 -4.37179002140554e-05 -0.000169901251622938 9.80788265406558e-05 9.97765351007273e-05 -0.000169829143458282 -0.000442896750328787
"241" 1.13726145994229e-05 -0.00112051532338821 0.00022248710629652 -0.00144006744945782 0.000185284565566739 0.000266743774395192 0.000113931248020347 -4.15591695872972e-05 0.000370119710016925 0.000521406472963134 -3.24316803255199e-05 -0.000182642235781846 0.000106651281855936 8.88102204503954e-05 -0.000137847194358054 -0.000426402977162996
"242" 2.8117710468307e-05 -0.00114252310884595 0.000194416210126358 -0.00144098738970071 0.000157796402106598 0.000252774242245786 0.000113065355403888 -2.72562615099536e-05 0.000349697149558211 0.000537416012114156 -2.19666522842135e-05 -0.0001940627929963 0.000114514691726413 7.85812446602996e-05 -0.000106867022652621 -0.000409364333483716
"243" 4.40084142299444e-05 -0.00115923608907027 0.000166216122437284 -0.0014388059032886 0.000130555983988569 0.000238258244574033 0.0001123805724803 -1.29623203482063e-05 0.000327679554831337 0.000552306802534991 -1.23875120351174e-05 -0.00020410710069162 0.000121614882742856 6.91730311752876e-05 -7.70909896317206e-05 -0.000391875497748293
"244" 5.89639548557683e-05 -0.00117050671099438 0.000138044525448116 -0.00143350149144644 0.000103743333386059 0.00022327990292722 0.000111902220058564 1.24706347436348e-06 0.000304206221607004 0.000565981989066058 -3.75061735062825e-06 -0.00021272577736543 0.000127899335155254 6.06694463497074e-05 -4.87262293157955e-05 -0.000374037174147828
"245" 7.29178537431638e-05 -0.00117622865429569 0.000110062661981435 -0.00142507843816602 7.75371812356044e-05 0.000207929929042588 0.000111649380400263 1.53043811587995e-05 0.000279432504423168 0.000578346322757698 3.89505615114428e-06 -0.000219885210857064 0.000133329874977256 5.31483517754714e-05 -2.19578132360942e-05 -0.000355942885400851
"246" 8.580657551503e-05 -0.00117633560267939 8.24274015793462e-05 -0.00141356118314626 5.21114420820009e-05 0.000192305273275011 0.000111642822040478 2.91394268857356e-05 0.000253529335355994 0.000589325143754798 1.05091701373924e-05 -0.000225564108960156 0.000137871577891861 4.66800165613403e-05 3.03948692887891e-06 -0.000337693557951204
"247" 9.75677786269148e-05 -0.00117081984148872 5.52923077199372e-05 -0.00139899711871554 2.76322909057194e-05 0.000176510639950239 0.000111903780783754 4.26903469011526e-05 0.000226674981658687 0.000598849829119027 1.6064836806286e-05 -0.000229748159437019 0.000141503837291091 4.13272002062047e-05 2.61010400485355e-05 -0.00031938183996749
"248" 0.000108154934824142 -0.00115969983295518 2.88184508483274e-05 -0.00138145651016305 4.25749930742533e-06 0.000160651115453069 0.000112440643432833 5.58947142149353e-05 0.000199063991145409 0.000606869540047447 2.05436530776809e-05 -0.000232436380330405 0.000144214672973928 3.71497504273555e-05 4.7090020490806e-05 -0.000301101975374846
"249" 0.000117522507757495 -0.00114304796811141 3.14658116404935e-06 -0.00136103091328542 -1.78653488868203e-05 0.000144840014432994 0.000113272874733017 6.86961851168966e-05 0.000170892061050926 0.000613344439826792 2.39346548873466e-05 -0.000233644171757622 0.000146005243439383 3.41890065033305e-05 6.58814563308189e-05 -0.000282943402211711
"250" 0.000125640929990554 -0.00112097879171993 -2.15721677386257e-05 -0.00133783589390039 -3.85956981438011e-05 0.000129191598740517 0.000114408088118681 8.10423173994189e-05 0.000142366356752833 0.000618250919004005 2.62447957646186e-05 -0.000233392391840914 0.000146880944649718 3.24869575997343e-05 8.23746496069387e-05 -0.000264993419170726
"251" 0.000132486570506701 -0.00109364583271445 -4.52011253588493e-05 -0.00131200713285919 -5.78075122529505e-05 0.000113820741535637 0.000115853468313979 9.28850362792161e-05 0.000113695671274807 0.000621577517199732 2.74811031643988e-05 -0.000231713682122486 0.000146863471637659 3.20658783529196e-05 9.64942225121333e-05 -0.000247330833670151
"252" 0.00013804835786041 -0.00106124324797609 -6.76121901627984e-05 -0.00128369745255024 -7.5389870805581e-05 9.88474567146013e-05 0.000117616591746089 0.000104183173152985 8.50885277145291e-05 0.000623331653511469 2.76767185917437e-05 -0.000228653577039623 0.000145980153587188 3.2943612829109e-05 0.000108184611841984 -0.000230031660854277
"253" 0.000142323556493871 -0.00102399985894482 -8.86748067691228e-05 -0.00125308862014162 -9.12452793232203e-05 8.43907139750158e-05 0.000119691825193936 0.000114895826522143 5.6755012126394e-05 0.000623527046841432 2.68594827351017e-05 -0.000224264839826782 0.000144272614754363 3.51228750275765e-05 0.000117415500376782 -0.000213166004308981
"254" 0.000145320711206605 -0.00098218516364455 -0.000108284425869236 -0.00122036944329249 -0.000105283775924663 7.05649766815831e-05 0.000122087161789977 0.000124988998020344 2.89025264348786e-05 0.000622199246789147 2.50776276592374e-05 -0.000218612899739722 0.000141788848726953 3.85956184421436e-05 0.000124182705378607 -0.000196796575135977
"255" 0.000147061696679055 -0.000936094162197939 -0.000126332055405534 -0.00118575592484693 -0.000117437839705952 5.7491154162739e-05 0.000124788093939604 0.000134435120816051 1.73259646880018e-06 0.000619391319020586 2.2387627200895e-05 -0.000211770189289178 0.000138586051276263 4.33398603151229e-05 0.000128507851656935 -0.000180981643794833
"256" 0.000147583230583695 -0.000886058626947761 -0.000142733304164782 -0.0011494754237576 -0.000127647294252066 4.52751890033611e-05 0.000127794416436678 0.000143209834974118 -2.45620511505867e-05 0.000615162411091431 1.88467232432514e-05 -0.000203819991451183 0.000134726216588012 4.93257631867907e-05 0.000130432901374417 -0.000165771237608023
"257" 0.000146920127936005 -0.000832436266966547 -0.000157403866461676 -0.00111177059571832 -0.000135875880169545 3.40293646314748e-05 0.00013109153600942 0.000151289921426471 -4.97959887030581e-05 0.000609575899945611 1.45300247107454e-05 -0.000194845566933833 0.000130284840537086 5.65091082414604e-05 0.000130023952702391 -0.000151210393433663
"258" 0.000145138207246035 -0.000775604569035792 -0.000170284247822017 -0.00107289585871495 -0.000142091728569752 2.38547045029326e-05 0.000134666323955203 0.000158662477994758 -7.37956080856223e-05 0.000602713695741616 9.51529743454708e-06 -0.000184948269692069 0.000125338151843469 6.48288985513177e-05 0.000127368007846431 -0.00013733560444796
"259" 0.000142297005595152 -0.00071596750330132 -0.000181315582118656 -0.00103311725662074 -0.000146287154196728 1.48482968947476e-05 0.000138500794583179 0.000165313709771974 -9.64002004085403e-05 0.00059466169472738 3.8847920059603e-06 -0.00017422548813016 0.00011996616168125 7.42273102081863e-05 0.000122578481707542 -0.00012417896677669
"260" 0.00013847672152961 -0.000653942200243801 -0.000190469308569307 -0.000992702482974747 -0.000148460791978524 7.09550154617598e-06 0.000142575868562711 0.000171238165513944 -0.000117464748328049 0.000585515762831029 -2.27609678561104e-06 -0.0001627824849816 0.000114256503029077 8.46213378939824e-05 0.000115781218049879 -0.00011176635639315
"261" 0.000133767878252174 -0.000589967897508534 -0.000197715796116434 -0.000951932971590419 -0.00014863758585329 6.75523622563928e-07 0.000146871927961918 0.00017643284867357 -0.00013685915512237 0.00057537712945891 -8.87230989950582e-06 -0.000150735423235043 0.000108295066697278 9.59243679880326e-05 0.000107118090995259 -0.000100120018243661
"262" 0.000128260226633863 -0.000524484037725691 -0.000203049218536526 -0.000911086389519259 -0.000146839151194136 -4.3416931682331e-06 0.000151364512329942 0.000180896804824746 -0.000154467276476862 0.000564352110777549 -1.58161743803069e-05 -0.000138193075508816 0.000102170601148422 0.00010804177453175 9.67485561192257e-05 -8.92517483348461e-05
"263" 0.000122066856779157 -0.00045794278265267 -0.000206478951861979 -0.000870442514914874 -0.000143121647232209 -7.90021742141673e-06 0.000156025731366278 0.000184634903956524 -0.000170197721103702 0.000552551871813657 -2.30131227616535e-05 -0.000125274363209714 9.5973237602069e-05 0.000120870900590177 8.48367093763391e-05 -7.91728935693124e-05
"264" 0.000115290883932359 -0.000390803551791593 -0.000208021083881401 -0.000830275515490759 -0.000137536713417241 -9.95628612516106e-06 0.000160828788156531 0.000187655770914758 -0.000183973940084226 0.000540089346661071 -3.03705572286448e-05 -0.000112097737609397 8.97880329433054e-05 0.000134297815917526 7.15653989068922e-05 -6.9894086387121e-05
"265" 0.000108057564348613 -0.00032351740410233 -0.000207716687474561 -0.00079085757224556 -0.000130161622138145 -1.04738488542587e-05 0.000165745498024777 0.000189975479080553 -0.0001957407569949 0.00052707931161999 -3.77993053839229e-05 -9.87788586080461e-05 8.36976752742698e-05 0.000148207573435948 5.7115341663022e-05 -6.14136988804265e-05
"266" 0.000100486555437281 -0.00025653861081098 -0.000205609873781173 -0.000752449615838071 -0.000121080170464228 -9.43534374302763e-06 0.000170744028992226 0.000191607398486635 -0.000205464466589071 0.000513637238032531 -4.5211664697285e-05 -8.5437148296764e-05 7.77837372508556e-05 0.000162473717681219 4.16746160560163e-05 -5.37340180863176e-05
"267" 9.27020012721998e-05 -0.000190306677945874 -0.000201769277850441 -0.000715297603263862 -0.000110388145477199 -6.83604483527783e-06 0.000175796795252777 0.000192571357137849 -0.000213128136055277 0.000499875717932856 -5.25237557478205e-05 -7.21861759303153e-05 7.21207735043366e-05 0.000176976181228362 2.54338705702755e-05 -4.68527262521289e-05
"268" 8.48345078870194e-05 -0.000125256008529107 -0.0001962657965687 -0.000679637590580294 -9.81922700912142e-05 -2.68345152478459e-06 0.000180869104199778 0.0001928926632049 -0.000218739143818855 0.000485907057448074 -5.96577604484663e-05 -5.91440601921478e-05 6.67785608926425e-05 0.000191581088437406 8.57361831277332e-06 -4.07643269014481e-05
"269" 7.70036318474161e-05 -6.18023632884875e-05 -0.000189187106953343 -0.000645684068291803 -8.46156208226773e-05 2.99841591620692e-06 0.000185929475000093 0.000192599962643524 -0.000222319931018714 0.000471839608616958 -6.65429236610707e-05 -4.6418418075663e-05 6.18185272300622e-05 0.000206162719621514 -8.7150994873803e-06 -3.54623438289779e-05
"270" 6.93378062444559e-05 -3.4067932073834e-07 -0.000180631538691312 -0.000613633776506611 -6.97823645320853e-05 1.01740500476437e-05 0.000190954301255866 0.000191725237849523 -0.000223920270159092 0.000457776866797118 -7.31123953958745e-05 -3.41174306836893e-05 5.72980409776503e-05 0.000220591194601606 -2.62613503457869e-05 -3.09409046558165e-05
"271" 6.1957184954899e-05 5.87517418875172e-05 -0.000170706243685235 -0.000583660164955635 -5.38340055415197e-05 1.87946451785623e-05 0.000195904092284409 0.000190301966146346 -0.000223603747881994 0.000443819089652438 -7.93119390152195e-05 -2.23399711980225e-05 5.32616342094441e-05 0.00023473594812511 -4.38928447129056e-05 -2.71884102908343e-05
"272" 5.49755796369142e-05 0.000115124736607209 -0.000159529890774486 -0.000555919842800325 -3.69107084072316e-05 2.87967989467364e-05 0.000200752168988828 0.000188368989524114 -0.000221448407638022 0.000430061080083502 -8.50851377023923e-05 -1.1180474193285e-05 4.97530259014873e-05 0.000248470497694466 -6.14470670163981e-05 -2.41973887648525e-05
"273" 4.84961641518624e-05 0.000168463930001891 -0.000147222154947595 -0.000530529874311091 -1.91676630832631e-05 4.01023577579901e-05 0.000205474254690945 0.000185969287915044 -0.000217558012905218 0.00041658832144403 -9.039316587873e-05 -7.28758844982035e-07 4.67984804616498e-05 0.000261674172747177 -7.87775141202353e-05 -2.19552341704788e-05
"274" 4.26234051573252e-05 0.000218471504063162 -0.000133916261503793 -0.000507596786970584 -7.65224239193872e-07 5.26274295782216e-05 0.000210039486414215 0.000183146830238426 -0.000212046738366205 0.00040348418976421 -9.51985540542374e-05 8.93676300049798e-06 4.4426174238908e-05 0.000274225272210814 -9.5745038535178e-05 -2.04493042661206e-05
"275" 3.74484613951774e-05 0.000264901874619479 -0.000119741920890387 -0.000487185750156142 1.81373433180598e-05 6.62749925000824e-05 0.000214421175746411 0.000179948763328913 -0.000205040925705346 0.00039082163967982 -9.94757985107872e-05 1.77434653115957e-05 4.26428750624499e-05 0.000286014321219062 -0.000112221439910299 -1.96671201192445e-05
"276" 3.30463436615364e-05 0.000307534945502933 -0.000104834028085241 -0.000469345524373696 3.73709148016239e-05 8.09398337446425e-05 0.000218597622025666 0.00017642505208735 -0.000196683869983908 0.000378669160140712 -0.000103202970961934 2.56305802738606e-05 4.14550999529377e-05 0.000296936835902232 -0.000128097600859403 -1.95914340309433e-05
"277" 2.94832288960067e-05 0.000346188955903873 -8.93390071112281e-05 -0.000454085942639883 5.67737954189125e-05 9.65048832223175e-05 0.000222547925310473 0.000172627242008274 -0.000187124301091436 0.000367084891076933 -0.000106366133491487 3.25436331850036e-05 4.08618652711664e-05 0.00030689338991939 -0.000143274892026831 -2.02127919261846e-05
"278" 2.68196296447158e-05 0.000380730120548243 -7.33861692611564e-05 -0.000441397423297524 7.61731229211813e-05 0.000112853173401699 0.000226253051749379 0.000168604992453128 -0.00017652379202945 0.000356123154222249 -0.000108959859638375 3.84415646204455e-05 4.08522130689715e-05 0.000315793945470686 -0.000157664814821393 -2.15061884911158e-05
"279" 2.5093799466114e-05 0.000411057327916151 -5.71198231083471e-05 -0.000431243530949219 9.5402386481325e-05 0.000129857424737792 0.000229693707940846 0.000164412392891479 -0.000165048337032739 0.000345824928528482 -0.000110985523300309 4.32916208923642e-05 4.1404022514485e-05 0.000323558761693089 -0.000171197910104181 -2.34591049701966e-05
"280" 2.43323770341143e-05 0.000437117599817355 -4.06699049753413e-05 -0.000423552828437834 0.000114304039291383 0.000147391467188964 0.000232854900413098 0.000160105606194909 -0.000152867668128923 0.000336230125071212 -0.000112449371960401 4.70749114563476e-05 4.24937190648706e-05 0.000330121923768827 -0.000183814375469754 -2.60418828086703e-05
"281" 2.45588252883455e-05 0.000458899351306546 -2.41700062788812e-05 -0.000418241102945782 0.00013271660268798 0.000165325444203788 0.000235722790495617 0.000155732811381737 -0.000140153903084241 0.000327366756249449 -0.0001133563550673 4.97799160888775e-05 4.40908013099509e-05 0.000335424042571114 -0.000195470352416727 -2.9238443706494e-05
"282" 2.57655775866826e-05 0.000476426987287648 -7.74779215624281e-06 -0.00041518938693376 0.00015048891326232 0.000183527305336456 0.000238293879035072 0.00015134789820061 -0.000127079820255823 0.000319257388722468 -0.000113728851451534 5.14065514109842e-05 4.61560231955501e-05 0.00033941642497009 -0.000206135373735136 -3.30219435530627e-05
"283" 2.79533125004376e-05 0.000489776757412791 8.48201717387502e-06 -0.000414266215756746 0.000167477095297474 0.000201869871064206 0.000240553866509798 0.00014700158357637 -0.000113817551413544 0.000311917504593596 -0.000113580878254633 5.19685833650686e-05 4.8646533582531e-05 0.000342064430853506 -0.000215787722465695 -3.73591179081652e-05
"284" 3.10902471952355e-05 0.000499055937553627 2.44001940493306e-05 -0.000415317628963903 0.000183549755328347 0.00022022798185683 0.000242501445854276 0.000142742897200395 -0.000100532927138255 0.000305355545548906 -0.000112936205386429 5.14878373071754e-05 5.15159646781522e-05 0.000343347747091199 -0.000224420939652538 -4.22238681170095e-05
"285" 3.51506349532573e-05 0.000504412117577029 3.99093650629643e-05 -0.000418173445818899 0.000198579339109817 0.000238478909360238 0.000244132241582304 0.000138614314980566 -8.73863188008549e-05 0.000299574007596203 -0.000111818264387619 4.99963039799627e-05 5.47149249769343e-05 0.000343254662872752 -0.000232036872426797 -4.75794957617066e-05
"286" 4.00895055703812e-05 0.000506034010473272 5.49072799436238e-05 -0.000422649409292206 0.000212465772786362 0.00025650810196272 0.000245450493057905 0.000134660507836547 -7.45318891742623e-05 0.000294567974943272 -0.000110255698917661 4.7538197001891e-05 5.81882868918437e-05 0.000341784439920011 -0.000238650654825993 -5.33899180727065e-05
"287" 4.5852326969718e-05 0.000504136450079636 6.93139360116557e-05 -0.000428546139939946 0.000225106637052091 0.000274206072901663 0.000246454203857523 0.000130919815763102 -6.21121192637458e-05 0.000290326958821113 -0.00010827716149916 4.41648141719848e-05 6.18813306526922e-05 0.000338955107805332 -0.000244283595281577 -5.96198817609347e-05
"288" 5.23816711160193e-05 0.000498972453691268 8.30493470567509e-05 -0.000435662769978559 0.000236425575703962 0.000291470906432505 0.000247148280765001 0.000127428600995794 -5.0260398978918e-05 0.000286835962801866 -0.000105910375885425 3.99346383875933e-05 6.57400337572533e-05 0.000334787499408749 -0.000248969760442469 -6.62238298622655e-05
"289" 5.96074243918257e-05 0.000490816638280431 9.60442716939073e-05 -0.000443782971820139 0.000246364731220487 0.00030821060084764 0.000247544131035663 0.000124216684744479 -3.9096389606246e-05 0.000284077977666918 -0.000103186151609859 3.4915903233391e-05 6.97048465613245e-05 0.000329326939759142 -0.000252749309992133 -7.31614569662929e-05
"290" 6.74565073709344e-05 0.000479968516761091 0.000108251349996258 -0.000452690326069918 0.000254869535714323 0.000324340573398944 0.000247648915348444 0.000121311924728242 -2.87257858556907e-05 0.000282024410692096 -0.000100135270481576 2.91840523654352e-05 7.37190681822437e-05 0.00032261786234908 -0.000255667426488824 -8.03877525592263e-05
"291" 7.58511295630402e-05 0.00046674711694725 0.000119627303491353 -0.000462166029164963 0.000261920370236771 0.000339790340059662 0.000247475753901291 0.000118736539821715 -1.92414842698076e-05 0.000280649508934353 -9.6784383515155e-05 2.28193629274629e-05 7.77270703479187e-05 0.000314723767443179 -0.000257784225391558 -8.78552980104614e-05
"292" 8.47076264946405e-05 0.000451493754596286 0.000130133713989716 -0.000471990273703989 0.000267508572703895 0.000354494631132057 0.000247035350584632 0.000116510324059698 -1.07207269022129e-05 0.000279921767118836 -9.31632778190167e-05 1.59064799036758e-05 8.16763068807934e-05 0.000305712139107022 -0.000259153150471499 -9.55140602123267e-05
"293" 9.39445938799507e-05 0.00043455131909388 0.000139751676099614 -0.000481948990881272 0.000271638094066633 0.000368404055887782 0.000246345572351333 0.000114646411657906 -3.22161118260602e-06 0.000279806763914486 -8.93037896817853e-05 8.53227049782032e-06 8.55120667416985e-05 0.000295665140477368 -0.000259842597781448 -0.000103319432307229
"294" 0.000103475249980165 0.000416275553776196 0.000148476523058817 -0.000491831838678305 0.000274341174840331 0.000381476036909755 0.000245422727736475 0.000113154176863796 3.20982932052832e-06 0.000280268438384803 -8.52264252490021e-05 7.9065886051825e-07 8.91880188030959e-05 0.000284671512796885 -0.00025991566135283 -0.000111216381140381
"295" 0.000113212693643345 0.000397024998938665 0.00015630032951359 -0.000501431486501973 0.000275658604189128 0.000393681761422442 0.000244288958823435 0.000112039263642316 8.54743850169172e-06 0.00028126927358099 -8.09603967296592e-05 -7.22895754231408e-06 9.26546107381524e-05 0.000272828769931293 -0.000259447927083268 -0.000119156586189605
"296" 0.000123071570714557 0.000377156109904534 0.00016324514825399 -0.00051055607353253 0.000275651462189012 0.000405004697262535 0.000242959441537638 0.000111302505514451 1.2779076465729e-05 0.00028277205991991 -7.65269016788792e-05 -1.54317054490024e-05 9.58733773683291e-05 0.000260234409069767 -0.000258508992362123 -0.000127086259952028
"297" 0.000132970265744608 0.000357021979486332 0.000169322480879393 -0.000519017060536297 0.000274400461094463 0.00041543548232249 0.000241461945829464 0.000110943813391629 1.59103419087433e-05 0.000284736648900683 -7.19487327586626e-05 -2.37275482180699e-05 9.88022133154976e-05 0.000247000413755922 -0.00025717236903975 -0.000134960024998121
"298" 0.0001428248538282 0.000336965751067358 0.000174566738774342 -0.00052664267168659 0.000272002011739483 0.000424979606842142 0.000239815739360073 0.00011096028433787 1.79623483126414e-05 0.000287123363974368 -6.72435856495107e-05 -3.20255627924071e-05 0.000101412062924823 0.000233239174277828 -0.000255513598982264 -0.000142721377845079
"299" 0.000152555492632648 0.000317316835816058 0.000179021284904271 -0.000533276452046262 0.000268553155317119 0.000433649053610632 0.000238043349463842 0.000111340872385658 1.89706860380622e-05 0.000289897220907474 -6.24275397749517e-05 -4.02404380838373e-05 0.000103674740708997 0.000219063564506174 -0.000253598705772369 -0.000150325740571315
"300" 0.000162089342677689 0.000298388051938471 0.000182730131561946 -0.000538772622684964 0.000264178262831337 0.000441468568930845 0.000236174318126549 0.000112075422151164 1.89851952935347e-05 0.000293018509997407 -5.75124613025048e-05 -4.82879268029053e-05 0.000105566013521122 0.000204591109948765 -0.000251499886880617 -0.000157722939700913
"301" 0.000171358750152803 0.000280475381200513 0.000185754638756046 -0.000542998219108768 0.000258998788053076 0.000448466799346872 0.000234228050449093 0.000113152603454216 1.80682902145304e-05 0.000296453456378526 -5.25154830835006e-05 -5.60900499855464e-05 0.000107071511992712 0.000189941529581551 -0.000249284040382918 -0.000164864022044681
"302" 0.000180292354716797 0.000263851295756937 0.000188151900380056 -0.000545845796860486 0.000253157422959823 0.000454689572215116 0.000232237715048766 0.00011456058950445 1.62949698214429e-05 0.000300169776268118 -4.74441939105323e-05 -6.35754103480741e-05 0.000108179155573803 0.00017523046073992 -0.000247014858166496 -0.000171705245695592
"303" 0.000188833037450522 0.000248766744897581 0.00018999587368817 -0.000547216958176225 0.000246800165269759 0.000460181296331983 0.000230220344283189 0.000116279083193931 1.37516024983281e-05 0.000304134546298747 -4.23026559492122e-05 -7.06785484689562e-05 0.000108885341927293 0.000160571287060919 -0.000244749962907806 -0.000178201321753038
"304" 0.000196923658173668 0.000235438990218711 0.000191357839645472 -0.000547033386550472 0.000240069437867556 0.00046499860515797 0.000228209904010074 0.000118293649339342 1.05337586668771e-05 0.000308320932485991 -3.70998502955518e-05 -7.73395050940238e-05 0.00010919019824579 0.00014608034189345 -0.000242542853375012 -0.000184313007566514
"305" 0.000204518771189225 0.000224064241345155 0.000192314294099641 -0.000545241224941002 0.0002331200091888 0.000469203336675852 0.000226228755152546 0.000120586375022275 6.74296293449547e-06 0.00031270254324405 -3.18361015390993e-05 -8.35073268601406e-05 0.000109100641834229 0.000131867695803631 -0.000240439257161353 -0.000189997396195175
"306" 0.000211571348154228 0.000214808557983984 0.000192955570384549 -0.000541799400395115 0.000226104693289199 0.000472858328964663 0.000224302839077433 0.000123140260435417 2.48941504611036e-06 0.000317254560522734 -2.65119229209291e-05 -8.91380112405403e-05 0.000108628870063275 0.000118030075443735 -0.000238487917585826 -0.000195221487984331
"307" 0.000218052560714339 0.000207802856495858 0.00019335706414589 -0.0005366844013344 0.00021917553998541 0.00047603604911349 0.000222455115987437 0.00012593301310458 -2.11328496365911e-06 0.000321959155889833 -2.11259838347154e-05 -9.41982042915854e-05 0.000107793584814702 0.000104675963404699 -0.00023671828661977 -0.000199951238942858
"308" 0.000223925796436233 0.000203149217775843 0.000193606669288991 -0.000529894848507464 0.000212486037573693 0.000478810125707455 0.000220709509516495 0.00012895016266285 -6.94801539401738e-06 0.000326795883271072 -1.5677045215526e-05 -9.86558190678131e-05 0.00010661668486135 9.18882670336708e-05 -0.000235165912759708 -0.000204153388107036
"309" 0.000229176134740357 0.000200920780758679 0.00019378983340868 -0.000521450144198626 0.000206179037064504 0.00048125037486417 0.000219094143086279 0.000132170722223737 -1.18991433108924e-05 0.000331748980556882 -1.0165201643689e-05 -0.000102498481911297 0.000105124653417337 7.97579621856178e-05 -0.000233852810477332 -0.000207807397719095
"310" 0.00023378592005784 0.000201155341152894 0.000193992873092924 -0.000511388335480528 0.000200393727998588 0.000483434996878273 0.000217622172878705 0.000135575349485619 -1.68436607305053e-05 0.000336806362458907 -4.58096271037817e-06 -0.000105714821459055 0.000103351984681375 6.83608514065424e-05 -0.000232796957570696 -0.000210887846845558
"311" 0.000237748870409639 0.000203861380205277 0.0001942984479353 -0.000499757108618146 0.000195264787759477 0.000485438785411929 0.000216318096186746 0.000139148046262933 -2.16690147458223e-05 0.000341956316010251 1.07591596492588e-06 -0.000108301894154625 0.000101329772189567 5.77637027733244e-05 -0.000232010737055156 -0.000213373294231845
"312" 0.00024105972140472 0.000209024682425925 0.000194787142056134 -0.000486628076511896 0.000190917080459017 0.000487331312434924 0.000215198734418069 0.000142870034259984 -2.62603583977218e-05 0.000347186131629503 6.81120293942264e-06 -0.000110269045365778 9.91000745228464e-05 4.80295288740828e-05 -0.000231503591082716 -0.000215254755732269
"313" 0.000243732452946379 0.00021659040897938 0.000195532848766942 -0.000472089172275835 0.000187462381995662 0.000489186017143059 0.000214280140645585 0.000146721206819584 -3.05076376431028e-05 0.000352489486151647 1.26279113635553e-05 -0.000111627387305512 9.67020335911291e-05 3.92098182504555e-05 -0.000231272386640582 -0.000216519529434538
"314" 0.000245771593247535 0.000226483328845969 0.000196614499949395 -0.000456240051061734 0.00018500428676922 0.000491068120545914 0.000213579457359986 0.000150688227974047 -3.43108239344217e-05 0.000357858194866118 1.85282496492345e-05 -0.000112405241791476 9.41773627676783e-05 3.13436136501291e-05 -0.000231317448675113 -0.000217162208528823
"315" 0.000247208820316209 0.0002386050716295 0.00019809189116414 -0.00043920080320541 0.000183632856659671 0.000493043384192604 0.000213102767536617 0.000154749045912535 -3.75717325294439e-05 0.000363283663001231 2.4515973609936e-05 -0.000112627880366237 9.15703233473488e-05 2.44664864826174e-05 -0.000231629726704107 -0.000217185946528933
"316" 0.000248063258425105 0.00025282388953176 0.000200034308971485 -0.000421099450398698 0.000183420300185476 0.000495165864996477 0.000212862931809065 0.000158890675041613 -4.02071444416773e-05 0.000368756194899312 3.0587124011319e-05 -0.000112333352534458 8.89260097877196e-05 1.85994333326229e-05 -0.000232199157894162 -0.000216592826614428
"317" 0.000248365182530484 0.000268997072466216 0.000202490282766404 -0.000402071405983796 0.000184442008396129 0.000497487495862646 0.000212865212472537 0.000163092883673201 -4.21354342183157e-05 0.000374270601156222 3.67429644059941e-05 -0.000111564455442009 8.62858028579201e-05 1.37596570872431e-05 -0.000233008821363718 -0.000215393740426856
"318" 0.000248160949400018 0.000286953870208248 0.000205509688150393 -0.000382270501587034 0.000186735410967758 0.000500050316389896 0.000213117640691232 0.000167344489987815 -4.32925052008793e-05 0.000379815566840171 4.2974032476187e-05 -0.000110371914007311 8.36946796587173e-05 9.95111387014287e-06 -0.000234046560876231 -0.000213606306972928
"319" 0.000247485409075103 0.000306510807045003 0.000209130276271625 -0.000361850953240442 0.000190341524753394 0.000502894001222492 0.000213617588184591 0.000171623024756158 -4.36195096118595e-05 0.000385381403689029 4.92752250225496e-05 -0.000108803966432991 8.11951896985684e-05 7.16876243898421e-06 -0.000235292899364987 -0.000211248691226886
"320" 0.000246387422854657 0.000327467262252809 0.000213386784961689 -0.000340978080382662 0.000195271401295796 0.000506041655289636 0.000214367828466139 0.00017591339150223 -4.30756773750658e-05 0.000390953440748249 5.56340742721956e-05 -0.000106923139271122 7.88224071653072e-05 5.4015167015033e-06 -0.000236731960332321 -0.000208347159495255
"321" 0.000244921555580404 0.000349613624221234 0.000218298068576001 -0.000319817245456047 0.000201537738139007 0.00050951716896193 0.000215359935185301 0.000180201280395679 -4.16261631943701e-05 0.000396520073503404 6.20373807546147e-05 -0.00010478571353681 7.66139402699374e-05 4.62752273723241e-06 -0.000238338910535928 -0.000204930155441993
"322" 0.000243136439201448 0.000372724649235325 0.000223878656612162 -0.000298538763865074 0.000209121319709121 0.000513325658796198 0.000216591940923445 0.000184470258145558 -3.92541049571107e-05 0.000402064866635805 6.84715685018481e-05 -0.000102455783213413 7.46046316396441e-05 4.81652268215139e-06 -0.000240097475330912 -0.000201035919675315
"323" 0.000241092745334584 0.00039657207571242 0.000230133102228018 -0.000277308902063221 0.000217996036170833 0.000517471262990589 0.000218055322278853 0.000188699842447179 -3.59495747729684e-05 0.000407566341686187 7.49137434239783e-05 -0.00010000154712617 7.28238699928494e-05 5.93560888381638e-06 -0.000241986034199143 -0.000196700626375257
"324" 0.000238842798111151 0.000420926658682526 0.000237058948685853 -0.000256298449709207 0.000228128451898525 0.000521942196457924 0.000219736059124297 0.000192880531325949 -3.1721706238468e-05 0.00041300506886115 8.13388144975245e-05 -9.74889789699886e-05 7.1293492775342e-05 7.93885138920948e-06 -0.000243987149903741 -0.000191966780249299
"325" 0.000236445792676408 0.000445546931185149 0.000244638275763867 -0.000235663330979364 0.000239456706223261 0.000526718350358512 0.000221624057235969 0.0001969899018409 -2.65872233682728e-05 0.000418356458737967 8.77234753109406e-05 -9.49834250684622e-05 7.00352077492045e-05 1.07788704617271e-05 -0.000246085858787463 -0.000186884164408108
"326" 0.000233960826326437 0.000470202170214616 0.000252853107905979 -0.000215565678440785 0.000251908681646411 0.000531775353381161 0.000223700247501208 0.000201014652632294 -2.05757796571101e-05 0.000423593391940107 9.40335130116871e-05 -9.2555142344044e-05 6.90650326828414e-05 1.43982818665528e-05 -0.000248260746009522 -0.000181500560754134
"327" 0.000231439406087778 0.000494659650532025 0.000261667546522834 -0.000196151270625179 0.00026540508125531 0.000537072275191255 0.000225945377928977 0.000204936149507693 -1.37320340658927e-05 0.000428684011778335 0.000100241670162536 -9.02633367836107e-05 6.83940835953593e-05 1.87389163955862e-05 -0.000250501697611375 -0.000175868127022043
"328" 0.000228936844381417 0.000518694305340725 0.000271045881630782 -0.000177559986859329 0.000279854776097167 0.000542564724485402 0.000228343419678161 0.000208742082913143 -6.10880105041338e-06 0.000433597386896531 0.000106309892234826 -8.81795602348121e-05 6.80256550226457e-05 2.37323094695444e-05 -0.000252796037952513 -0.000170042172133751
"329" 0.000226504484250236 0.00054208987260737 0.000280938087068073 -0.000159917724165506 0.000295145142846959 0.000548193436369498 0.000230868439199037 0.000212414259470475 2.23189641611922e-06 0.000438300287188687 0.000112202979859879 -8.63583456165077e-05 6.79602471887236e-05 2.93120823170588e-05 -0.000255131902201667 -0.000164075068875874
"330" 0.000224188561602372 0.000564639919656589 0.000291291466718475 -0.000143337029238001 0.000311169045081171 0.000553900666834033 0.000233501140522889 0.000215937153560377 1.12150120618934e-05 0.000442750900862813 0.000117882249273156 -8.48621194078706e-05 6.81948523831701e-05 3.54016567748367e-05 -0.000257501807486853 -0.000158025805670119
"331" 0.000222030797932665 0.000586150141168062 0.000302040446118898 -0.000127923482011107 0.000327798133980925 0.000559613393482293 0.000236213821574073 0.000219296110395948 2.07586504003048e-05 0.00044691609652647 0.000123305353358216 -8.37442987021618e-05 6.87165770478976e-05 4.19283157591833e-05 -0.000259893278195879 -0.000151948261515794
"332" 0.000220069603981506 0.000606439798837591 0.000313120573400784 -0.000113756522896556 0.000344901562126237 0.000565254709195973 0.000238981994845935 0.000222474670328557 3.07727820148651e-05 0.000450750554476754 0.000128434885953087 -8.3054878839882e-05 6.95137719641309e-05 4.88129144533494e-05 -0.000262304258228126 -0.000145899827094838
"333" 0.000218337619512475 0.000625347079092341 0.000324454085825021 -0.000100906871600094 0.000362339380138449 0.000570744506985275 0.000241775835583173 0.000225461495581216 4.11623425381939e-05 0.000454212371178089 0.000133229339371977 -8.28390752733467e-05 7.05621814494401e-05 5.5972790632796e-05 -0.00026472856755191 -0.000139934733139908
"334" 0.000216862720256437 0.000642725040118245 0.000335964959117125 -8.94280187959772e-05 0.000379965118462742 0.000575997366503411 0.000244569048779369 0.00022823849497349 5.18268249902116e-05 0.000457260518228033 0.000137650454188462 -8.31343151391262e-05 7.18414568479518e-05 6.33306534468585e-05 -0.000267159805675928 -0.000134103930717782
"335" 0.000215664448469826 0.000658447146045295 0.000347571011848665 -7.93537154533671e-05 0.000397636604035112 0.000580922629904388 0.000247331939115057 0.000230793118232328 6.26595833477426e-05 0.000459851966486523 0.000141657827847413 -8.39775802779007e-05 7.33230104900623e-05 7.08014588798656e-05 -0.000269595517300136 -0.000128454967250238
"336" 0.000214756134500801 0.000672404416384816 0.000359185560928018 -7.07035688427276e-05 0.000415196573212527 0.00058542969418952 0.000250037199706896 0.000233111612930686 7.35557597450413e-05 0.000461940962891704 0.000145211754525602 -8.53974174841147e-05 7.49739277403755e-05 7.83078494509336e-05 -0.00027203170889645 -0.000123037415474185
"337" 0.000214142796930298 0.000684517419102124 0.000370718784691658 -6.34720033776752e-05 0.000432505507416302 0.000589424080427604 0.000252659108269089 0.000235180553810119 8.44070872364258e-05 0.000463485362699045 0.000148280740121033 -8.74122850750597e-05 7.67629271353568e-05 8.57697650606327e-05 -0.000274464746512138 -0.000117891566747814
"338" 0.000213833287768389 0.00069471768316658 0.000382082417283323 -5.76448531201815e-05 0.000449402455943858 0.000592811285729427 0.000255161306746685 0.000236988100581718 9.51027599915494e-05 0.000464443063602274 0.000150834007116815 -9.00395087735185e-05 7.86502793942869e-05 9.3103966973365e-05 -0.00027689083848894 -0.000113055783803295
"339" 0.00021381937406734 0.000702967412739017 0.000393186576866417 -5.31865014768758e-05 0.000465745986216066 0.000595502071064525 0.000257523623475674 0.000238522971679839 0.000105538866761014 0.000464775556886271 0.000152836887467487 -9.32884353735973e-05 8.05977010997677e-05 0.00010024114256732 -0.000279304597114295 -0.000108563018820699
"340" 0.000214086753972773 0.000709242458604991 0.000403939200783784 -5.00495898365095e-05 0.000481390604048341 0.000597406374860533 0.000259715682282128 0.000239769246040836 0.00011561182237266 0.00046444304359793 0.000154267375715211 -9.7160212259009e-05 8.25672508629829e-05 0.000107100940177058 -0.000281699046473583 -0.000104441108827952
"341" 0.000214619259033634 0.000713546177729776 0.000414252932304412 -4.81632009044101e-05 0.000496192392324754 0.000598436267623781 0.000261707916762379 0.000240722619101731 0.000125221781994116 0.000463408476922416 0.000155105688297649 -0.000101648260720093 8.45167531501702e-05 0.000113616186976889 -0.000284071068307411 -0.000100714548819034
"342" 0.000215400386553617 0.00071590429490652 0.000424039659466513 -4.74490245731112e-05 0.000510022615130054 0.000598510808393957 0.000263481097983616 0.000241366869997272 0.000134274795982747 0.00046164186703108 0.000155331016299136 -0.000106747579622257 8.64034113484654e-05 0.000119718229914772 -0.000286408473200445 -9.73964567919102e-05
"343" 0.000216395523780898 0.000716360335813207 0.000433214396169886 -4.7812830854444e-05 0.000522753225547215 0.000597552727422945 0.000265005619021437 0.000241694259413775 0.000142685662737094 0.000459113528768118 0.000154938108712806 -0.000112436129470985 8.81881655477824e-05 0.000125346050274312 -0.000288698268324719 -9.44983527015484e-05
"344" 0.000217577410791327 0.000714974045070153 0.000441697690387235 -4.91465250311629e-05 0.000534263545166312 0.000595489216637714 0.000266265082947516 0.000241697715656418 0.000150372799382123 0.000455799927718297 0.000153917083171635 -0.000118691950070712 8.98330537898046e-05 0.000130439713683132 -0.000290933369609886 -9.20260818138094e-05
"345" 0.000218907940533144 0.000711836161735945 0.000449411723917993 -5.13363460631679e-05 0.000544454809699897 0.000592260106908858 0.000267235479400515 0.000241365843282927 0.00015726585698225 0.000451676944223364 0.000152268197523104 -0.000125484938243752 9.12951563672369e-05 0.000134945021688479 -0.000293090810226695 -8.99737869619472e-05
