"V1" "V2" "V4" "V5" "V7" "V8" "V10" "V11" "V13" "V14" "V15" "V17" "V18" "V20" "V21" "V23"
"1" -0.000164696556947678 -0.00011798508365525 -0.00025863176367961 -0.000437999181688449 -0.000249686903597731 -0.000223207564487451 -0.000109004442492085 -0.000187445671245016 -0.000910597603229592 -0.00011889261406322 -6.35783622195709e-05 -9.68913164361917e-05 -0.000221883928686686 -0.000423681299331925 -0.000171036184832566 -0.00029843462139943
"2" -0.00015841527570211 -0.000117883165124186 -0.000252867861049179 -0.000433706304876886 -0.000246527645196454 -0.000220195541224947 -0.000104247961819865 -0.000184814182611363 -0.000909584817349243 -0.000113493502929844 -6.30388280161728e-05 -9.80042307753007e-05 -0.000211477292621693 -0.000417143292229827 -0.000178069806288725 -0.000298880116456813
"3" -0.00015198770510937 -0.000117490686290323 -0.000246756382069531 -0.000428997127798239 -0.00024294265147135 -0.000216916672936571 -9.87386128264797e-05 -0.000181796973624774 -0.000904844494417837 -0.000107565135040483 -6.2086870360422e-05 -9.91379190856252e-05 -0.00020119929332674 -0.000410220561891597 -0.000186573042227771 -0.000300450088522803
"4" -0.000145463263243301 -0.000116831504466788 -0.000240356119979512 -0.000423920038289716 -0.000238953739184383 -0.00021337525538184 -9.2483785093491e-05 -0.000178397760616732 -0.000896542338156789 -0.000101181852888305 -6.07809752673466e-05 -0.000100285446277209 -0.000191078887755602 -0.000403006512479149 -0.00019642222155989 -0.000303204016048553
"5" -0.000138880912509625 -0.000115929586797565 -0.000233735291753937 -0.000418528473253964 -0.000234591308759064 -0.00020957929700767 -8.55096738439721e-05 -0.000174620085179882 -0.000884888709260781 -9.4416760662452e-05 -5.91775146075562e-05 -0.000101437816023378 -0.000181154263795141 -0.000395608594072934 -0.000207492448877136 -0.000307192333899
"6" -0.000132296524002488 -0.0001148157941355 -0.000226955782811065 -0.000412878816688447 -0.000229885528059542 -0.000205542942253258 -7.78365316710665e-05 -0.000170471933831305 -0.000870101287306944 -8.7356889705884e-05 -5.73420563838715e-05 -0.000102586085469592 -0.000171454530610706 -0.000388126474576362 -0.000219642275898152 -0.000312444152083005
"7" -0.000125757366800727 -0.00011351367718498 -0.000220087182689541 -0.000407023702904279 -0.000224870492824656 -0.000201270873908971 -6.94953960403918e-05 -0.000165958825565668 -0.000852419473932836 -8.00836110291805e-05 -5.53351192088276e-05 -0.000103716472380727 -0.00016201104093433 -0.000380670409139057 -0.000232724814329778 -0.000318978687539934
"8" -0.000119314370868582 -0.000112063324406226 -0.000213200219553117 -0.000401017158144384 -0.000219582944960969 -0.000196782521874962 -6.05253886362011e-05 -0.000161101317838996 -0.000832094762413318 -7.26785056263026e-05 -5.32257783513424e-05 -0.000104824298968573 -0.000152849673404599 -0.000373323875694023 -0.000246588928530833 -0.000326790708475802
"9" -0.000113010507478374 -0.000110489459019682 -0.000206352460749172 -0.000394907793388975 -0.000214056876866948 -0.00019208324262155 -5.0958260898851e-05 -0.000155900279987185 -0.000809392248665602 -6.52279622443973e-05 -5.10741231591905e-05 -0.000105894964326899 -0.000143999621946237 -0.000366184997733333 -0.000261071241442859 -0.000335860755436769
"10" -0.000106899082527599 -0.000108828452188535 -0.000199617668948532 -0.000388753599668261 -0.000208331204513591 -0.000187196019252099 -4.08483579039167e-05 -0.000150379874673504 -0.000784589945456942 -5.7817014173894e-05 -4.89416422626964e-05 -0.0001069206585103 -0.000135487824546255 -0.000359334990041973 -0.000276011642641593 -0.00034615653072017
"11" -0.000101018598210211 -0.000107113986132232 -0.000193053948540225 -0.000382597954447521 -0.000202447339569113 -0.000182131162376121 -3.02309408377099e-05 -0.000144554809269074 -0.000757971072238491 -5.05261861982312e-05 -4.68936541844078e-05 -0.000107890052891243 -0.000127335925064382 -0.000352855965288375 -0.00029124554244097 -0.000357624026241077
"12" -9.54236344409857e-05 -0.000105383506809842 -0.000186729694414378 -0.000376490295178015 -0.000196446557284341 -0.000176911620338044 -1.91771041245477e-05 -0.000138451079687073 -0.000729826535657368 -4.34327217947865e-05 -4.49871862668513e-05 -0.000108798038938417 -0.000119567058989964 -0.000346808646166272 -0.000306614625042928 -0.000370195814627581
"13" -9.01530959252249e-05 -0.000103668827197673 -0.000180701526286937 -0.000370473003890111 -0.000190367594751737 -0.000171552980527598 -7.72515062781677e-06 -0.000132082562004164 -0.000700445019032414 -3.66169292995316e-05 -4.32753845842359e-05 -0.000109634539697945 -0.000112202583145003 -0.000341259241027907 -0.000321947756268648 -0.000383789559304123
"14" -8.52469033064693e-05 -0.000102008369644329 -0.000175026577500732 -0.000364589991170492 -0.000184252760478034 -0.00016607769335762 4.04995493624234e-06 -0.000125483953250774 -0.000670121666494836 -3.01466791630092e-05 -4.18127684963121e-05 -0.000110393834253257 -0.000105261930196594 -0.00033625663565302 -0.000337100093193736 -0.000398312595642342
"15" -8.07306368353575e-05 -0.000100426124411221 -0.000169749721001428 -0.000358871676763508 -0.000178142214329399 -0.000160498861400753 1.61015035993881e-05 -0.000118668136627301 -0.000639141289730653 -2.409242299172e-05 -4.0642562067296e-05 -0.000111065220006534 -9.87597628893355e-05 -0.000331848494973707 -0.000351909939626758 -0.000413646940974724
"16" -7.66471493025001e-05 -9.89573660505173e-05 -0.000164922855230951 -0.000353353320375378 -0.000172077600989184 -0.000154848816487445 2.83562018580281e-05 -0.000111671346463341 -0.000607783026711601 -1.85109305877444e-05 -3.98088989542325e-05 -0.000111650299046935 -9.27161981013386e-05 -0.000328055865222966 -0.000366234321924622 -0.000429670678376357
"17" -7.30199012573179e-05 -9.76339469166629e-05 -0.00016058763086407 -0.000348066388925789 -0.000166097735632868 -0.000149141757244587 4.07503177075226e-05 -0.000104518368045909 -0.000576319848541112 -1.34593385625352e-05 -3.93472108321958e-05 -0.00011214207474726 -8.71441383063873e-05 -0.00032490484452115 -0.000379939140138499 -0.0004462599236897
"18" -6.98792730556195e-05 -9.64796512211345e-05 -0.000156778995311663 -0.000343035224169018 -0.000160244281121719 -0.000143406309765001 5.32167647309266e-05 -9.72414427184533e-05 -0.000545015781863453 -8.98655745358613e-06 -3.92867232004148e-05 -0.000112540158946296 -8.20548156386768e-05 -0.000322408052997148 -0.000392891914075064 -0.000463264505292789
"19" -6.72271621380002e-05 -9.55167696863685e-05 -0.000153520402889228 -0.000338270610026904 -0.000154548625287625 -0.000137657556546073 6.56971597687784e-05 -8.98620425952354e-05 -0.000514112856083636 -5.12903429186699e-06 -3.96512259361533e-05 -0.00011284237160491 -7.74591470363625e-05 -0.000320559264967731 -0.000404977028814086 -0.000480531978559922
"20" -6.50931356444698e-05 -9.4767523400326e-05 -0.000150836649596703 -0.00033379382001076 -0.000149053022384233 -0.000131924430642012 7.81153932878933e-05 -8.24185079025927e-05 -0.000483840176710235 -1.92124995055455e-06 -4.04568649527773e-05 -0.000113052742944554 -7.33710956419142e-05 -0.000319354510509945 -0.000416082863877973 -0.000497909319840747
"21" -6.34758176193477e-05 -9.42479343833743e-05 -0.000148748839876454 -0.000329611637647062 -0.000143785229544354 -0.000126226567285992 9.04114141496255e-05 -7.49363801810134e-05 -0.000454418397326373 6.10953931488783e-07 -4.17191899295551e-05 -0.000113173199580961 -6.97959722512972e-05 -0.000318780693887546 -0.000426121182268439 -0.000515238075127188
"22" -6.2380577629466e-05 -9.39734376235063e-05 -0.000147262361371942 -0.00032573404738122 -0.000138782587976591 -0.000120591748344319 0.000102518671234508 -6.74484083328321e-05 -0.000426031889251717 2.44844674919555e-06 -4.34365392015443e-05 -0.000113209004651711 -6.67446564998626e-05 -0.000318809063271823 -0.000435006806259089 -0.000532352226556041
"23" -6.18005752240682e-05 -9.39516127211726e-05 -0.000146378892930426 -0.000322154630454004 -0.00013406858213604 -0.000115039267949123 0.000114371427768357 -5.99835938567308e-05 -0.000398861510107985 3.58473260813779e-06 -4.56109253696173e-05 -0.000113165757921961 -6.42246513227801e-05 -0.000319407957190201 -0.000442672279585755 -0.000549089436650001
"24" -6.17368959355551e-05 -9.41930667427983e-05 -0.000146096571313504 -0.000318871068738148 -0.000129673750741763 -0.000109593000073324 0.000125913026581965 -5.25749934908593e-05 -0.000373046820240855 4.01631647958821e-06 -4.82323845068267e-05 -0.000113054317770257 -6.22326722714392e-05 -0.000320530476972978 -0.000449054231136465 -0.000565281542135663
"25" -6.21621610481124e-05 -9.46932399373725e-05 -0.000146400696490666 -0.000315872999992184 -0.00012562033106767 -0.000104275125349282 0.000137087186984321 -4.52455038433789e-05 -0.000348719518750801 3.74976409728476e-06 -5.12868333565525e-05 -0.000112882641999116 -6.07834781718319e-05 -0.000322138766358323 -0.000454118774019956 -0.000580772360394871
"26" -6.30660514783176e-05 -9.54510436106181e-05 -0.000147277803056647 -0.000313149682123236 -0.000121930569192793 -9.91065979636417e-05 0.000147834530040312 -3.8024994075392e-05 -0.000325981630650062 2.79838914317052e-06 -5.47508754435992e-05 -0.000112664871758976 -5.98723123354639e-05 -0.000324177544971889 -0.000457834940240009 -0.000595408906855119
"27" -6.44195713080843e-05 -9.64619177189075e-05 -0.000148702795202195 -0.000310684290121001 -0.000118623587726742 -9.41118848278136e-05 0.000158108011290488 -3.09454967412822e-05 -0.000304908861351191 1.18107499599369e-06 -5.86021882242554e-05 -0.0001124173707439 -5.95080972948358e-05 -0.000326587399685906 -0.000460187239102442 -0.000609038580361532
"28" -6.61970412060683e-05 -9.77185240443885e-05 -0.000150645379392485 -0.000308453994534227 -0.000115713006302833 -8.93088970152308e-05 0.000167853330232795 -2.40274631023556e-05 -0.000285558590866959 -1.07721522821424e-06 -6.28134131321866e-05 -0.000112154171800606 -5.96871075490359e-05 -0.000329316157401076 -0.000461174219040878 -0.00062152446875328
"29" -6.83592867851397e-05 -9.9199394298797e-05 -0.000153067659472543 -0.00030643232793657 -0.000113209393677615 -8.47144230040941e-05 0.000177037420258242 -1.72961002587059e-05 -0.000267953173676775 -3.93748119150921e-06 -6.73418679945743e-05 -0.000111890602382617 -6.04061151868201e-05 -0.000332286574755468 -0.000460802766652776 -0.000632726317121002
"30" -7.08667993806982e-05 -0.000100888584734173 -0.000155930684714394 -0.000304596402379102 -0.00011112341252272 -8.03484598447971e-05 0.000185621061211578 -1.07702005301002e-05 -0.000252106905432839 -7.36647412691386e-06 -7.21502457297638e-05 -0.000111644243662671 -6.16698541740361e-05 -0.000335440992097383 -0.000459102960210205 -0.00064252989308495
"31" -7.36880297474043e-05 -0.000102770641842877 -0.000159194486230006 -0.00030291559853995 -0.000109462100354896 -7.62324976214185e-05 0.000193563390145137 -4.47874135426365e-06 -0.000237997793256554 -1.1320057612371e-05 -7.71961146826271e-05 -0.000111442380318785 -6.34779679932921e-05 -0.000338707242229787 -0.000456110213616439 -0.000650832911972559
"32" -7.67630354284211e-05 -0.000104815017988149 -0.000162800735588801 -0.000301357279483503 -0.000108225637948383 -7.23739625471023e-05 0.000200842836509878 1.56736075850177e-06 -0.000225592041398381 -1.57483401623241e-05 -8.24337507675349e-05 -0.000111299724498644 -6.5818718377822e-05 -0.000342011693625035 -0.00045186768967056 -0.000657531703527444
"33" -8.00561832528085e-05 -0.000106997516632919 -0.000166704242182382 -0.000299894596682925 -0.000107416826961448 -6.87954391181294e-05 0.000207430325862849 7.3466906484574e-06 -0.000214831330094443 -2.06024289153705e-05 -8.78106635738891e-05 -0.000111238878808456 -6.86953561611395e-05 -0.000345284431558177 -0.000446436524715058 -0.000662559113276653
"34" -8.35036790083001e-05 -0.000109288912927482 -0.000170840625444507 -0.00029848311285481 -0.000107028204830247 -6.55038132238882e-05 0.000213316174905718 1.28479086995855e-05 -0.000205640693860136 -2.58214171667605e-05 -9.32807771223907e-05 -0.000111282578918977 -7.20928581163888e-05 -0.000348454258955397 -0.000439882864976423 -0.000665838679539682
"35" -8.70626593763404e-05 -0.000111654840150921 -0.000175161863059975 -0.000297097316430077 -0.000107055124850037 -6.25143153426067e-05 0.000218482942807377 1.80533881698621e-05 -0.000197926795303619 -3.13524409187884e-05 -9.8785390291027e-05 -0.00011145438299093 -7.60143913574522e-05 -0.000351451503117572 -0.000432284917067916 -0.000667335806708175
"36" -9.06758121080171e-05 -0.00011406540520903 -0.000179600437949587 -0.000295702352086416 -0.000107487410370627 -5.98371489398936e-05 0.000222922962493207 2.29568847588377e-05 -0.000191582250840267 -3.71306846511415e-05 -0.000104274758995257 -0.000111773754562398 -8.04435242323903e-05 -0.000354194761512976 -0.00042372766466011 -0.000667013449789224
"37" -9.42921632566751e-05 -0.000116489461855984 -0.000184104270872822 -0.000294264320622646 -0.000108318654580382 -5.74828100544588e-05 0.000226631194868158 2.75446557912485e-05 -0.000186491220899507 -4.31005130677097e-05 -0.000109695783457175 -0.000112271421378764 -8.53773457536162e-05 -0.000356626802665605 -0.000414302443233026 -0.000664866499754625
"38" -9.78504242180491e-05 -0.000118887528259638 -0.000188604979939715 -0.000292743524387656 -0.00010953001581684 -5.54532889312321e-05 0.000229617332499905 3.18155992662523e-05 -0.000182517576178677 -4.91959037136079e-05 -0.000114991016457691 -0.000112958653023623 -9.07940024047721e-05 -0.000358673079030206 -0.000404102185365624 -0.000660887345089661
"39" -0.000101300577298066 -0.000121229863868164 -0.000193046897539888 -0.000291118916732032 -0.000111105551434252 -5.37619132421663e-05 0.000231882050836774 3.57590265652952e-05 -0.00017952981118375 -5.53560404121902e-05 -0.00012010970893117 -0.000113866477862339 -9.66910456364349e-05 -0.000360267593389931 -0.00039323510267348 -0.000655110345693571
"40" -0.000104591298700308 -0.000123478614159703 -0.000197366805050423 -0.000289353322917721 -0.000113030648671013 -5.24058516796572e-05 0.000233436954283053 3.93765469059217e-05 -0.000177375327734356 -6.1518793199985e-05 -0.000124999696048033 -0.000115010426216254 -0.000103046400189044 -0.000361345300175069 -0.000381801309321823 -0.000647564381571374
"41" -0.000107670620087597 -0.000125602358189573 -0.000201513191141642 -0.000287425017223507 -0.000115281114100864 -5.13938531059979e-05 0.000234300188377111 4.26640684037517e-05 -0.000175909080718834 -6.76274143761631e-05 -0.000129609152443509 -0.000116410767720287 -0.000109847181599123 -0.000361854150181475 -0.00036991006147343 -0.000638308419382319
"42" -0.000110483375240166 -0.000127570835873692 -0.000205424073214107 -0.000285304381265306 -0.000117839920640918 -5.07240601645454e-05 0.000234490087399127 4.56220068429069e-05 -0.000174981953571169 -7.36207207882446e-05 -0.000133895527114274 -0.000118084105730578 -0.000117075111727323 -0.00036173820696123 -0.00035767405640447 -0.000627410868516138
"43" -0.000112994638083631 -0.000129353733902554 -0.000209055620213652 -0.000282976483478263 -0.000120681419139889 -5.04033304105433e-05 0.000234030542431244 4.82482336955301e-05 -0.000174436078586352 -7.94457876798513e-05 -0.000137809916114937 -0.000120052390288071 -0.000124709443538511 -0.000360939290823231 -0.000345197175756384 -0.00061495514505769
"44" -0.000115146198832586 -0.000130918936000168 -0.000212350564711514 -0.000280411161839865 -0.000123781083305966 -5.04184551518067e-05 0.000232954846560964 5.05556498413486e-05 -0.000174128901242198 -8.50498733650913e-05 -0.000141310768783589 -0.000122319826219331 -0.000132723625360884 -0.000359419268922073 -0.000332589744758724 -0.000601033895640336
"45" -0.00011690741630751 -0.000132245145799517 -0.000215268341756599 -0.000277602230339549 -0.000127120274635849 -5.07799112499189e-05 0.00023127894072329 5.2540497311623e-05 -0.000173912995784253 -9.03853693799577e-05 -0.000144362505342381 -0.00012490492742893 -0.000141104533899058 -0.000357135208590285 -0.000319958325827156 -0.000585761858259293
"46" -0.000118246928424644 -0.000133310167857579 -0.000217769170164487 -0.000274532154855878 -0.000130666130319529 -5.14749858972222e-05 0.000229049069380054 5.4211682503287e-05 -0.000173650314184905 -9.54067853609611e-05 -0.000146936086203425 -0.000127817762027113 -0.000149815940123657 -0.000354054587360259 -0.000307405725989699 -0.000569251850840924
"47" -0.000119119890974518 -0.00013408698877016 -0.000219810470510889 -0.000271195167872321 -0.000134396178039866 -5.24997899273325e-05 0.00022629675323245 5.55822615289115e-05 -0.000173206927619409 -0.000100074905518954 -0.00014899371586013 -0.000131057750836478 -0.000158833338982738 -0.000350151733015704 -0.00029503290645948 -0.000551632396816578
"48" -0.000119506175516122 -0.000134566497419981 -0.000221368659103773 -0.000267583391209037 -0.00013828609665219 -5.38522941736302e-05 0.000223054139424982 5.66523483635793e-05 -0.000172461184345545 -0.00010435656362699 -0.000150518313620417 -0.000134633517316267 -0.000168131177033988 -0.000345406459693867 -0.000282931626966197 -0.000533040072192364
"49" -0.000119388556904541 -0.000134736938018778 -0.000222415443704775 -0.000263698940299036 -0.000142311070079215 -5.55218022592781e-05 0.000219363468488681 5.74311215961058e-05 -0.000171298772690812 -0.000108221801438 -0.00015148706634804 -0.000138547231388952 -0.000177672963866406 -0.000339798521357484 -0.000271193019957049 -0.000513611662092732
"50" -0.000118739742612755 -0.000134579815000131 -0.000222926636583939 -0.000259538232075097 -0.000146443486420137 -5.74973080350658e-05 0.000215264520200352 5.79347289660321e-05 -0.000169621235343613 -0.000111646405708515 -0.000151890348768635 -0.000142793276226733 -0.000187430893854257 -0.000333330645973396 -0.00025989698934677 -0.000493492392843419
"51" -0.000117554110295352 -0.000134095826286209 -0.000222887587166608 -0.000255108771460902 -0.000150656608359466 -5.97709709767347e-05 0.000210807687897543 5.81728448019403e-05 -0.000167334034887268 -0.000114612733819696 -0.000151719188045665 -0.000147363689960661 -0.000197361302660655 -0.000325999671053065 -0.000249119519923641 -0.000472823533259819
"52" -0.000115820318660748 -0.000133281669656066 -0.000222292393595896 -0.000250424154386316 -0.000154933217421421 -6.23317720621014e-05 0.000206022087050177 5.81547078440138e-05 -0.000164372253896833 -0.000117111988276249 -0.000150975430675998 -0.000152253666661078 -0.000207437286030272 -0.000317826539059233 -0.000238929242350868 -0.000451754771971041
"53" -0.000113548844837986 -0.000132143031292507 -0.000221134523477405 -0.000245493547947432 -0.000159247982411098 -6.51680554754245e-05 0.000200952203831274 5.7893134728333e-05 -0.000160664641314774 -0.000119135748239035 -0.000149659469837794 -0.000157449554104934 -0.000217616435166024 -0.000308812130170076 -0.000229386931151111 -0.000430430910641698
"54" -0.000110734025935975 -0.000130681656139447 -0.000219418912886297 -0.000240329964629777 -0.000163580123445881 -6.82694387919755e-05 0.000195642459811813 5.74012254713841e-05 -0.0001561678301948 -0.000120687706900026 -0.000147783862748634 -0.000162932359628538 -0.000227861656843733 -0.000298998839772257 -0.000220540288134904 -0.000408990510413144
"55" -0.000107387823996278 -0.000128911415541909 -0.000217148902809295 -0.000234953819785005 -0.000167903809015169 -7.16170927107204e-05 0.00019014318204504 5.66936994653777e-05 -0.000150847417406295 -0.000121770700803603 -0.000145363756543625 -0.000168684874078317 -0.000238128349439906 -0.000288409942666963 -0.000212430801867841 -0.000387564145533808
"56" -0.000103528071420871 -0.000126843575671043 -0.000214342392193147 -0.000229390846792961 -0.000172209735244776 -7.51995187926169e-05 0.000184482172484603 5.57815605388124e-05 -0.000144687813917764 -0.000122401386506984 -0.000142421885797618 -0.00017468770466829 -0.000248381248246357 -0.000277089853695894 -0.000205102212803225 -0.000366294095524296
"57" -9.91718086615131e-05 -0.00012449590101087 -0.000211011953989772 -0.00022365691380597 -0.000176470425045771 -7.89988545571472e-05 0.000178716609291754 5.46836396095283e-05 -0.00013768423945879 -0.000122596690092954 -0.000138986469030717 -0.00018090974935434 -0.000258569757227368 -0.000265090184261463 -0.000198567461397231 -0.000345289748573671
"58" -9.43503269016276e-05 -0.000121890831472428 -0.000207183594681858 -0.000217779688141567 -0.000180678748747211 -8.30055787794147e-05 0.000172874874797397 5.34082678449422e-05 -0.000129851050799424 -0.000122379149051527 -0.000135087344972896 -0.000187325983236699 -0.000268659566101611 -0.000252466728346123 -0.000192853495515204 -0.000324673725652171
"59" -8.9087476810903e-05 -0.000119048572852739 -0.000202882814954354 -0.000211789047773696 -0.000184811255817381 -8.71907913539449e-05 0.000167008078412615 5.19753130239e-05 -0.000121211399226555 -0.000121779679610202 -0.000130766719242546 -0.000193901276754144 -0.000278599647802644 -0.000239278825372048 -0.000187959857282239 -0.000304546143100611
"60" -8.34273363301121e-05 -0.00011600470982517 -0.000198145099489738 -0.000205715015694446 -0.000188867134935802 -9.15531180666937e-05 0.000161145145808272 5.03919458203267e-05 -0.000111807808303143 -0.000120833887222624 -0.000126065609646343 -0.000200610132060443 -0.000288354514930498 -0.000225594682309667 -0.000183892631390125 -0.000285006038172857
"61" -7.74000388846701e-05 -0.00011278134426518 -0.00019300444066884 -0.000199583710229982 -0.000192822976783554 -9.60618769042149e-05 0.00015533337785021 4.86779123935236e-05 -0.000101691722073156 -0.00011957501097892 -0.000121030747849538 -0.000207411665438675 -0.000297872147388504 -0.000211488528295893 -0.000180640297604823 -0.000266132645840037
"62" -7.10590971745745e-05 -0.000109413447714223 -0.000187502798043767 -0.000193428952468884 -0.000196678434578151 -0.000100705715429786 0.00014959988454178 4.68465721312442e-05 -9.09278186125765e-05 -0.000118048533409865 -0.000115713621070578 -0.000214265878503498 -0.000307115229399756 -0.00019703976550339 -0.000178187779155442 -0.00024799942054929
"63" -6.44451432170484e-05 -0.00010593699621902 -0.000181675927727495 -0.00018728196795758 -0.000200421363874654 -0.000105461876262641 0.000143990088784374 4.49138828914618e-05 -7.95886136363398e-05 -0.000116297426733674 -0.000110164913239262 -0.000221137175736752 -0.000316034056160728 -0.000182320911408194 -0.000176510628893127 -0.000230662712986452
"64" -5.7606363602246e-05 -0.000102383488241865 -0.000175573553816138 -0.000181171801655898 -0.000204046510086594 -0.000110311259844551 0.000138530676096002 4.28927758615221e-05 -6.77664475212647e-05 -0.000114370982018581 -0.00010444537728849 -0.000227981217623561 -0.000324594044214659 -0.000167431529626083 -0.000175582294472254 -0.000214171645649421
"65" -5.06002016443386e-05 -9.87984825636834e-05 -0.000169244257737531 -0.000175133230319029 -0.000207550276179439 -0.000115240227093452 0.000133254770929649 4.07942062042677e-05 -5.55479050463864e-05 -0.000112315859965002 -9.86077419643847e-05 -0.000234759340465672 -0.000332749152789795 -0.000152440326387943 -0.000175361740303523 -0.00019855870491774
"66" -4.34815537221765e-05 -9.52118142127979e-05 -0.000162736412603198 -0.000169196236968383 -0.000210928997892187 -0.000120227847225687 0.000128193675032979 3.86343951791487e-05 -4.30403383227043e-05 -0.000110185693473979 -9.27155674583003e-05 -0.00024142829856063 -0.000340461329227843 -0.000137441383458641 -0.00017581555987628 -0.000183856276982594
"67" -3.63021132358824e-05 -9.16674656093044e-05 -0.000156093575096234 -0.000163389545346662 -0.000214178362330682 -0.000125248481419132 0.00012337641854858 3.64329029943315e-05 -3.03474428061251e-05 -0.000108026493064929 -8.68264594345042e-05 -0.000247942149078954 -0.000347692391835403 -0.000122518742248524 -0.000176892995449963 -0.000170061406049071
"68" -2.91192465122559e-05 -8.82012202315032e-05 -0.000149373069908303 -0.000157741620150844 -0.000217298042941271 -0.000130287240796029 0.000118833081828274 3.41947674626391e-05 -1.75909786419231e-05 -0.000105893081628092 -8.10003219557169e-05 -0.000254263505474616 -0.000354404652430437 -0.0001077665397012 -0.000178545726366771 -0.000157184639493974
"69" -2.19985482974293e-05 -8.4855413132268e-05 -0.000142623487694132 -0.000152283795994184 -0.000220291691775135 -0.000135325396790938 0.000114583410050702 3.19382877735629e-05 -4.87516577340132e-06 -0.00010383090539154 -7.52938160241749e-05 -0.000260348001859453 -0.000360566410642808 -9.32484499946621e-05 -0.000180717302827176 -0.000145209772849836
"70" -1.49847670754126e-05 -8.16635765499135e-05 -0.000135892354028443 -0.000147039342575905 -0.000223158649849367 -0.000140341647027947 0.000110649413325475 2.96739176766413e-05 7.67563498548306e-06 -0.000101887983256609 -6.97656159664108e-05 -0.000266155542864787 -0.000366148180774006 -7.90539714415701e-05 -0.000183355662460191 -0.000134123064136754
"71" -8.14993143445934e-06 -7.86691465333014e-05 -0.000129233818734569 -0.000142034049832553 -0.000225899984814357 -0.000145318923836038 0.000107054012976211 2.74135828641331e-05 1.994218484797e-05 -0.000100111067958953 -6.44718173573961e-05 -0.000271647376408249 -0.000371118389229575 -6.52628192328993e-05 -0.000186405392222753 -0.000123889519481826
"72" -1.53705503640539e-06 -7.58998385569563e-05 -0.000122688887797454 -0.000137285288721438 -0.000228518618536412 -0.000150234217392158 0.000103814118722689 2.51714996488399e-05 3.18098573161314e-05 -9.8544672651948e-05 -5.94609035204892e-05 -0.000276784405606945 -0.000375452605045094 -5.19434144729018e-05 -0.0001897994795639 -0.000114472880237969
"73" 4.79721412928418e-06 -7.3393189663165e-05 -0.000116303962027337 -0.000132815468959375 -0.000231016017474228 -0.00015507326156042 0.000100953874294244 2.29617741851999e-05 4.31643140408479e-05 -9.72200120550915e-05 -5.4782797061389e-05 -0.000281532722014102 -0.000379130464515444 -3.91548889872666e-05 -0.000193482451784082 -0.000105828098638794
"74" 1.07979888376846e-05 -7.11811557680637e-05 -0.000110125571310626 -0.000128640369000719 -0.000233401672393825 -0.000159817687777974 9.84730571762637e-05 2.07866410768974e-05 5.3894682005695e-05 -9.61770516992782e-05 -5.04820560183011e-05 -0.000285862136468646 -0.000382131428885284 -2.69658945733914e-05 -0.000197392731476573 -9.79030058522954e-05
"75" 1.64190209188956e-05 -6.92854646578329e-05 -0.000104188930273534 -0.000124775589062757 -0.000235673105480181 -0.000164447557345481 9.63988573300417e-05 1.8669536890091e-05 6.38976132428013e-05 -9.54442200973606e-05 -4.6596062764778e-05 -0.000289738948565745 -0.000384445503665016 -1.54203567010368e-05 -0.000201473383721881 -9.06471100360677e-05
"76" 2.16134543986077e-05 -6.77384127905301e-05 -9.85322726889249e-05 -0.000121234215077288 -0.000237837338183041 -0.000168944486871779 9.47296948207022e-05 1.66129338081847e-05 7.30693331023722e-05 -9.50466603974605e-05 -4.31612639725744e-05 -0.0002931405605632 -0.000386060121060859 -4.57474827571183e-06 -0.000205666229021384 -8.40012514584833e-05
"77" 2.63443943330903e-05 -6.65574152275441e-05 -9.31901610067148e-05 -0.000118019782318126 -0.0002398967358093 -0.000173295611264178 9.34762041919867e-05 1.46271194400525e-05 8.13233752149042e-05 -9.50027366557673e-05 -4.02073014120497e-05 -0.000296043190820909 -0.000386968158770272 5.54273096756492e-06 -0.000209912929792924 -7.79020136341994e-05
"78" 3.05636946055e-05 -6.57624458564525e-05 -8.81913272846029e-05 -0.000115143315036263 -0.000241857926441333 -0.000177485336621196 9.2644822696324e-05 1.2723796372485e-05 8.85726325493577e-05 -9.53259369449994e-05 -3.77566931440635e-05 -0.000298429335350532 -0.000387170615331648 1.48936390492101e-05 -0.000214162518366984 -7.22896258107092e-05
"79" 3.42466685463953e-05 -6.53688000275037e-05 -8.35577209642124e-05 -0.000112599646519818 -0.00024372201794883 -0.000181497051025632 9.22366894158246e-05 1.09102787454917e-05 9.47469311116996e-05 -9.60281382492464e-05 -3.58282877525075e-05 -0.000300280952499107 -0.000386666541562534 2.34554499580121e-05 -0.000218358127003332 -6.70975150078182e-05
"80" 3.73653170933874e-05 -6.53830634547749e-05 -7.93142433616669e-05 -0.00011039709761977 -0.000245494903135588 -0.000185313839751236 9.2252387088044e-05 9.19791985519912e-06 9.97841998347067e-05 -9.71080521474338e-05 -3.44332159362032e-05 -0.000301590653103908 -0.000385468821215771 3.12134351443842e-05 -0.000222455577264694 -6.22723150293685e-05
"81" 3.98969071949745e-05 -6.58128341006764e-05 -7.54758227821785e-05 -0.000108525003184988 -0.000247178932201996 -0.000188923873646188 9.26889801269587e-05 7.59418108477539e-06 0.000103626546720158 -9.85649900372463e-05 -3.35819072298964e-05 -0.000302348183281688 -0.000383585367479796 3.8156359234596e-05 -0.000226408519210146 -5.77514621573191e-05
"82" 4.18132885083336e-05 -6.66661502852962e-05 -7.20545484653895e-05 -0.000106983164273236 -0.000248779820805365 -0.000192319885963205 9.35368898294929e-05 6.10071331975529e-06 0.000106237515835738 -0.000100389973337224 -3.32709788610553e-05 -0.000302558700691975 -0.000381032174982711 4.42880724388538e-05 -0.000230172124171398 -5.34831639607373e-05
"83" 4.31119361452144e-05 -6.79338217454809e-05 -6.90585628127118e-05 -0.000105754944585238 -0.000250298724290036 -0.000195485722031242 9.47975331134208e-05 4.73123500211392e-06 0.000107588952864715 -0.0001025633053254 -3.34925593255535e-05 -0.0003022227871819 -0.000377831995047266 4.96181390424066e-05 -0.000233711002399639 -4.94212692806454e-05
"84" 4.37790439306409e-05 -6.96102026501695e-05 -6.64865018525644e-05 -0.000104833548576541 -0.000251736375224084 -0.000198410388687447 9.64585150601742e-05 3.49213117539237e-06 0.000107663907602044 -0.000105070587572881 -3.42409615180502e-05 -0.000301342817863123 -0.000374004141230326 5.41559813411223e-05 -0.000236986489587208 -4.55132135090025e-05
"85" 4.38196225655162e-05 -7.16903761040806e-05 -6.43439672315266e-05 -0.00010420365939557 -0.00025309991059163 -0.000201088287211875 9.8500825672037e-05 2.38153352798754e-06 0.000106450976899602 -0.00010788374990512 -3.54961056863251e-05 -0.000299937141047887 -0.000369584454533159 5.79214636149703e-05 -0.00023997528909379 -4.17318346252369e-05
"86" 4.32317786641199e-05 -7.41534209896624e-05 -6.26231466177688e-05 -0.000103851237987763 -0.000254388883843717 -0.000203508052808098 0.000100917872252416 1.41113306273383e-06 0.00010396159779972 -0.000110971885048222 -3.7234343185917e-05 -0.000298021283487517 -0.000364605841767341 6.0949430428282e-05 -0.000242650710195399 -3.80446458376771e-05
"87" 4.20268291136833e-05 -7.69829870383307e-05 -6.13107562701628e-05 -0.000103749186995796 -0.000255603428179733 -0.000205666120408146 0.000103684608442094 5.84098055362737e-07 0.000100212527507355 -0.000114304771673003 -3.94336050344241e-05 -0.000295612588671525 -0.000359100498903137 6.32667948112474e-05 -0.000244985170562319 -3.44294887503084e-05
"88" 4.02156770765375e-05 -8.01561771520367e-05 -6.03949623459965e-05 -0.000103885161140935 -0.000256746937951612 -0.000207553562971287 0.0001067904074486 -9.62926589513961e-08 9.52339483053436e-05 -0.000117839058452701 -4.20564547609427e-05 -0.000292737085294961 -0.000353110400165059 6.49156049683439e-05 -0.000246967215412064 -3.08751654200829e-05
"89" 3.78223050851693e-05 -8.36508922513551e-05 -5.98552462310439e-05 -0.000104229332507419 -0.000257818784287221 -0.000209165210087331 0.000110207717385223 -6.28771674576719e-07 8.90681385529042e-05 -0.000121533255935488 -4.50740080557936e-05 -0.000289425761929163 -0.000346675463444626 6.59501698430119e-05 -0.000248578189812611 -2.73700801295278e-05
"90" 3.4866630671571e-05 -8.74352701182453e-05 -5.96771201973289e-05 -0.00010475887956876 -0.000258819336184569 -0.000210500509134793 0.000113911627421733 -1.00819525011554e-06 8.17559306711682e-05 -0.00012534406392563 -4.8442156969695e-05 -0.000285707764064533 -0.000339844741760167 6.6404465355681e-05 -0.000249815055363991 -2.39264358081599e-05
"91" 3.137963580038e-05 -9.14795800200217e-05 -5.98306571031759e-05 -0.00010545256945404 -0.000259752405046514 -0.00021155893469942 0.000117876051098175 -1.2363255123873e-06 7.33669232608022e-05 -0.000129224837994787 -5.21208470440485e-05 -0.000281620235343447 -0.000332667971048605 6.6346678790376e-05 -0.000250666196591929 -2.05535633634992e-05
"92" 2.73959743662953e-05 -9.57483084920917e-05 -6.0289346789472e-05 -0.000106275270366713 -0.000260613743030614 -0.000212332280197575 0.000122079521814027 -1.30795173973058e-06 6.39633877541941e-05 -0.000133121968081339 -5.60655962557814e-05 -0.000277200339568737 -0.000325193521810534 6.58258914956133e-05 -0.000251139112629063 -1.72726554030587e-05
"93" 2.29466924951836e-05 -0.000100206008505728 -6.10274357098759e-05 -0.000107206644448557 -0.000261407694269812 -0.000212831219873589 0.000126483742352932 -1.22823319491734e-06 5.3622880372577e-05 -0.000136989707582258 -6.02268028520369e-05 -0.000272489669973214 -0.000317470533316272 6.49073036706368e-05 -0.000251228482481341 -1.41140735714764e-05
"94" 1.80788680737342e-05 -0.000104815877756479 -6.20107998931908e-05 -0.00010821406661121 -0.000262131023224381 -0.000213050269150236 0.000131063258696641 -9.94208380273121e-07 4.24289539129274e-05 -0.000140773713630372 -6.45588659372069e-05 -0.000267533574659264 -0.000309557852144052 6.36506721557835e-05 -0.000250942205671395 -1.11184813397019e-05
"95" 1.28354537763085e-05 -0.000109537240365211 -6.32067261565283e-05 -0.000109274218095134 -0.000262783370632274 -0.000212991883637737 0.00013578279564234 -6.09750311597242e-07 3.04666629099461e-05 -0.000144428353958354 -6.90081515049486e-05 -0.000262374934975512 -0.000301507510313868 6.21178008890661e-05 -0.000250292718445338 -8.32899020587885e-06
"96" 7.25696043994423e-06 -0.000114329394348757 -6.45786719868858e-05 -0.00011034962440134 -0.000263368727617456 -0.000212664937202232 0.000140604793306808 -7.53646313312547e-08 1.78355576739376e-05 -0.000147892887093863 -7.35274373502941e-05 -0.000257061522394247 -0.000293373094723789 6.03804149561462e-05 -0.000249288147121336 -5.79972522178868e-06
"97" 1.40475022310064e-06 -0.000119150065270643 -6.60909585721913e-05 -0.000111421777383383 -0.000263882831858331 -0.000212069590486563 0.000145501244523986 6.07809631727748e-07 4.62524625158752e-06 -0.000151126810329773 -7.80612545479451e-05 -0.000251640071998933 -0.000285209359026762 5.84963438725041e-05 -0.000247945513924681 -3.58566374012582e-06
"98" -4.67977772351903e-06 -0.000123961783810479 -6.77105442816145e-05 -0.000112457862443531 -0.000264324544666644 -0.00021121296693894 0.000150432195428729 1.43399751585453e-06 -9.06066643934192e-06 -0.000154080766997206 -8.25656245217293e-05 -0.000246157365170438 -0.000277069143921958 5.65335389610154e-05 -0.000246281378895701 -1.75077463365521e-06
"99" -1.09504415038906e-05 -0.000128724060006844 -6.94027559233585e-05 -0.000113435301077698 -0.000264701272390056 -0.000210105113178539 0.000155357300112374 2.39508499190619e-06 -2.31217892753186e-05 -0.000156709151941186 -8.69873630035773e-05 -0.000240663742709401 -0.000269011163634546 5.45542321464833e-05 -0.000244318795148031 -3.64286554268625e-07
"100" -1.7341675040723e-05 -0.000133395944274777 -7.11263238696023e-05 -0.000114325016288588 -0.000265007022336031 -0.000208751257256361 0.000160241984712009 3.49083325025746e-06 -3.74547968152262e-05 -0.00015896937339699 -9.12820809744011e-05 -0.000235206114072212 -0.000261081246124423 5.26216800424931e-05 -0.000242073419703703 5.08558544881015e-07
"101" -2.38079457668322e-05 -0.000137937198364307 -7.28508468610716e-05 -0.000115103915433246 -0.000265244340212398 -0.000207162156626566 0.000165047162989515 4.71141719772257e-06 -5.19599262990452e-05 -0.000160824833615846 -9.54013462438428e-05 -0.000229828852922578 -0.000253331019192037 5.07895507256578e-05 -0.000239574359181917 7.92411493415261e-07
"102" -3.02939887325364e-05 -0.000142313010990529 -7.45420721686049e-05 -0.000115750851091665 -0.00026541444404893 -0.000205347827537271 0.000169742443661505 6.05113892963457e-06 -6.65356357199683e-05 -0.000162241103949353 -9.93017602888909e-05 -0.00022457840273248 -0.000245807437394018 4.9121778965767e-05 -0.000236842573690242 4.20199340498217e-07
"103" -3.67443345364636e-05 -0.000146488164969279 -7.61650980347401e-05 -0.000116244539857692 -0.000265520926449714 -0.000203316319890102 0.000174280147709987 7.50222097546953e-06 -8.10851535763341e-05 -0.000163187848255293 -0.000102946047829953 -0.000219499694000828 -0.00023855707997879 4.76635710487679e-05 -0.000233904795769353 -6.77450057511242e-07
"104" -4.31080884066174e-05 -0.000150424599749518 -7.76863778507476e-05 -0.000116562006683107 -0.000265559845776988 -0.000201081289368146 0.000178639546653942 9.06129835295226e-06 -9.55106704658513e-05 -0.000163639558061426 -0.000106290760353578 -0.00021462807418217 -0.000231620463387423 4.64712306391861e-05 -0.000230786591976602 -2.56585033487645e-06
"105" -4.93427388242883e-05 -0.000154099920648146 -7.90840520757821e-05 -0.000116689552098207 -0.000265540847219974 -0.000198655042019997 0.000182767793077323 1.07106911600574e-05 -0.000109726775684966 -0.000163580528574463 -0.000109310514352838 -0.000210008933585051 -0.00022503780445758 4.55777677402596e-05 -0.000227515472726701 -5.30986501331294e-06
"106" -5.53875037711521e-05 -0.000157477549895659 -8.03260704016477e-05 -0.000116612061834264 -0.000265460931175639 -0.000196046507463936 0.000186643717923684 1.24499846597689e-05 -0.000123644092555136 -0.000162995536825101 -0.000111972074714429 -0.000205670637790907 -0.000218839860624381 4.50244431090885e-05 -0.000224111737665459 -8.96371890864673e-06
"107" -6.12072502298968e-05 -0.000160540337748671 -8.13891102194161e-05 -0.000116313788612832 -0.000265325645296224 -0.000193272145118345 0.000190233635492806 1.42609596476178e-05 -0.000137181120666259 -0.000161874130032963 -0.000114248500530691 -0.000201649303775999 -0.000213061791395223 4.48496098255116e-05 -0.000220607949212439 -1.35820875353098e-05
"108" -6.67594077487807e-05 -0.000163263449333714 -8.2257533901927e-05 -0.000115790445110396 -0.000265140724094977 -0.000190346626754554 0.000193500121435707 1.6132919213468e-05 -0.000150267909674741 -0.000160220848675816 -0.000116120210421452 -0.000197972774201255 -0.000207728736807275 4.50742634294008e-05 -0.000217022551558491 -1.92050699060469e-05
"109" -7.19911012681723e-05 -0.000165623849599306 -8.28989270035668e-05 -0.000115022001602661 -0.000264906250944474 -0.000187276510098148 0.000196430894000114 1.80646964436423e-05 -0.00016283191539682 -0.000158032950810594 -0.000117570241863724 -0.000194661935107067 -0.000202863428446179 4.57229567660184e-05 -0.000213382089397895 -2.58624234372462e-05
"110" -7.68797423755061e-05 -0.000167614856947919 -8.33113017688732e-05 -0.000114014200970778 -0.000264630923642443 -0.000184085754020053 0.000198986334171537 2.00360591309856e-05 -0.000174815545731285 -0.0001553294108919 -0.000118591994226216 -0.000191738677624036 -0.000198480886412028 4.68065841833598e-05 -0.000209706302008276 -3.35839816525947e-05
"111" -8.13847424699076e-05 -0.000169218615125815 -8.3476352519423e-05 -0.000112755241905834 -0.000264317413715721 -0.000180780938216616 0.000201146084732118 2.20360386200616e-05 -0.000186165644220315 -0.000152121103472741 -0.000119171708272738 -0.000189220354814038 -0.000194601270773727 4.83360815368263e-05 -0.000206018244847941 -4.23831873995962e-05
"112" -8.54811132833148e-05 -0.000170434227291936 -8.33798113715926e-05 -0.000111243686308306 -0.000263971281463067 -0.000177380191064405 0.000202897514917675 2.40566343987444e-05 -0.000196831833518421 -0.000148434903980988 -0.000119313420206152 -0.000187113374816504 -0.000191222479206867 5.03175781711335e-05 -0.000202327003421352 -5.22496313823722e-05
"113" -8.91393056215929e-05 -0.000171250442376027 -8.30198044928708e-05 -0.000109480471141496 -0.00026359938005443 -0.00017389200497063 0.000204223962541013 2.60862529470109e-05 -0.000206778553242826 -0.000144297007920564 -0.000119016478770366 -0.00018542445139082 -0.000188351460027997 5.27432702961272e-05 -0.000198654929903164 -6.31777433399012e-05
"114" -9.2339375748893e-05 -0.000171669540519499 -8.23920867705016e-05 -0.000107468554991667 -0.000263209333253921 -0.000170335764499729 0.000205106775696095 2.81082336880109e-05 -0.000215979913803336 -0.000139745329900686 -0.000118290277898925 -0.000184159894759103 -0.000185993219366159 5.55990112662348e-05 -0.000195016567638316 -7.51502339065728e-05
"115" -9.50693912372164e-05 -0.000171696599277487 -8.14951848204262e-05 -0.00010521320801105 -0.000262808758161198 -0.000166724012612224 0.000205540650088627 3.01120898909493e-05 -0.000224403789492306 -0.000134817991621912 -0.000117147533152259 -0.000183312452528321 -0.000184133494262553 5.88794509407568e-05 -0.000191417136290298 -8.81206562953264e-05
"116" -9.73106992806534e-05 -0.000171334739261736 -8.03320010828428e-05 -0.000102716690711381 -0.000262400012136696 -0.000163065564943207 0.000205527242421386 3.20912559513294e-05 -0.000232040057657432 -0.000129560040701894 -0.00011560319800189 -0.000182873923067875 -0.000182761845862171 6.25534046078148e-05 -0.000187863268314714 -0.000102039181116571
"117" -9.90582498891323e-05 -0.000170597719165787 -7.89034076322347e-05 -9.99871330776721e-05 -0.000261992693173875 -0.00015937736037652 0.000205056385969293 3.40292474272575e-05 -0.000238883018912228 -0.000124021532594065 -0.00011368165286981 -0.000182835284958189 -0.000181866430046706 6.66054899002372e-05 -0.000184363167146587 -0.000116843985246646
"118" -0.000100309761613783 -0.000169493802883279 -7.72212396810509e-05 -9.7037898971236e-05 -0.000261594503570101 -0.000155674751780351 0.000204132211116521 3.59149116365905e-05 -0.000244928774414839 -0.000118256158865848 -0.000111409333197068 -0.000183178061565839 -0.000181421613996684 7.09935538383981e-05 -0.00018091490896522 -0.000132459527805864
"119" -0.000101057797041274 -0.000168043082673991 -7.52966152003535e-05 -9.3873861894469e-05 -0.000261213274820871 -0.000151961560154237 0.000202766752019166 3.77407034632131e-05 -0.000250191049419695 -0.000112320785889953 -0.000108809187089444 -0.000183880487608284 -0.000181408787550254 7.56883602849079e-05 -0.00017751987014621 -0.000148795101291759
"120" -0.000101319162026498 -0.000166262637019559 -7.31359746196721e-05 -9.05114554212741e-05 -0.000260855898158602 -0.000148260178658805 0.000200966406684565 3.949309062025e-05 -0.000254672993473653 -0.00010627176967512 -0.000105917482843547 -0.000184920192642812 -0.000181798640902222 8.06561424874559e-05 -0.000174170106070566 -0.00016574960935637
"121" -0.000101097244030405 -0.000164172758938294 -7.07584299959124e-05 -8.69659313402904e-05 -0.000260530470364896 -0.000144574619401566 0.000198743648262544 4.11656321538659e-05 -0.000258400869490043 -0.000100175768793476 -0.000102766581614686 -0.000186269536546879 -0.000182557254072125 8.58484780273314e-05 -0.000170859464830778 -0.000183210361470302
"122" -0.000100406940477526 -0.000161802337950926 -6.81765248605327e-05 -8.32461191511964e-05 -0.000260243637038057 -0.000140919434808925 0.000196124490187344 4.27448260634031e-05 -0.000261397855383196 -9.40885112909071e-05 -9.93967347623141e-05 -0.000187899505074802 -0.000183650608512928 9.12304035996637e-05 -0.00016757702141485 -0.000201052515674371
"123" -9.92579067821505e-05 -0.000159167739948064 -6.54084576969305e-05 -7.93698186078075e-05 -0.000259995415253615 -0.000137296768691053 0.000193131717246776 4.42304761205398e-05 -0.000263693077432152 -8.807807218951e-05 -9.58418700038742e-05 -0.000189768153502853 -0.00018504227517154 9.67500353096652e-05 -0.000164308171112376 -0.000219141477675181
"124" -9.76803043363545e-05 -0.000156306920968758 -6.24768712771059e-05 -7.53580269268522e-05 -0.000259802421535954 -0.000133728919433448 0.000189782017360212 4.56045226304683e-05 -0.000265324702611448 -8.22038733496826e-05 -9.21459721060375e-05 -0.000191847024361773 -0.000186691380518536 0.000102369252936935 -0.000161039626797792 -0.000237345239461192
"125" -9.56847446900695e-05 -0.000153233579282481 -5.93929891240903e-05 -7.12173510368073e-05 -0.000259658203432338 -0.000130210639513591 0.000186121630130678 4.6873673980901e-05 -0.000266326896316217 -7.65266325446245e-05 -8.83455015464867e-05 -0.000194091061294329 -0.000188555109039158 0.000108035369797967 -0.000157754573445869 -0.000255512194100073
"126" -9.3310161242629e-05 -0.000149996328269163 -5.61886587892251e-05 -6.6977374672355e-05 -0.00025957653958439 -0.000126762072247182 0.000182164442831999 4.80183063970741e-05 -0.000266742352612613 -7.11079994569118e-05 -8.44860371967121e-05 -0.000196466490286635 -0.000190588837226459 0.000113711915978442 -0.00015442879485741 -0.000273491826692585
"127" -9.05753524983266e-05 -0.000146613312495278 -5.28756812802459e-05 -6.2648255252723e-05 -0.000259557813976925 -0.000123385889737551 0.000177959088550055 4.90439642722281e-05 -0.000266618265596033 -6.60053749423079e-05 -8.06052159061049e-05 -0.000198930576510126 -0.000192752627219091 0.000119349586885133 -0.000151045522484474 -0.000291127107297599
"128" -8.75098986916632e-05 -0.000143118955712795 -4.9482260749642e-05 -5.82509565918711e-05 -0.000259604907722716 -0.000120088595155919 0.000173541799037748 4.99402616300265e-05 -0.000266002872274815 -6.12708091164362e-05 -7.67452823609611e-05 -0.000201438267206797 -0.000194995337206541 0.00012490436743122 -0.000147581430183348 -0.000308259032614288
"129" -8.41515140074079e-05 -0.000139545980648361 -4.6022063853854e-05 -5.38014529056294e-05 -0.000259716740012042 -0.000116874513478956 0.000168953159900029 5.07111297033522e-05 -0.000264937331603446 -5.69536571892675e-05 -7.29448823740451e-05 -0.000203946734679618 -0.000197272408758643 0.000130346856149048 -0.000144005749147236 -0.000324724185700969
"130" -8.05310730108311e-05 -0.000135925742585171 -4.25232686479583e-05 -4.93215497366414e-05 -0.000259900764789468 -0.000113755006692409 0.000164230200366943 5.13477575022081e-05 -0.000263481590758133 -5.31010178435317e-05 -6.92403299670849e-05 -0.000206417148045245 -0.000199540810357952 0.000135627393042701 -0.000140299412571269 -0.000340375207314778
"131" -7.66814956208855e-05 -0.000132286929837882 -3.90011528486891e-05 -4.48279382496728e-05 -0.00026015120130438 -0.000110731996969448 0.000159430238530293 5.18552502361665e-05 -0.000261676941137713 -4.97497074093758e-05 -6.56669601689118e-05 -0.000208809317446707 -0.000201751172004318 0.000140726903017101 -0.000136434815202053 -0.000355052997578283
"132" -7.26428078117296e-05 -0.000128664409611255 -3.54800652875546e-05 -4.03370111598884e-05 -0.00026046902499971 -0.000107810309095393 0.000154582364975783 5.22312161288764e-05 -0.000259576850675471 -4.6940066847048e-05 -6.22592748804227e-05 -0.000211077657753609 -0.000203862166647132 0.000145603821068916 -0.000132387735804677 -0.000368603681069707
"133" -6.84472377442079e-05 -0.0001250855380543 -3.19746337524643e-05 -3.58700191213688e-05 -0.000260849626134793 -0.000104992829754832 0.000149746941796162 5.24774408729412e-05 -0.000257233581871236 -4.4695568348326e-05 -5.90457565806359e-05 -0.000213187522010741 -0.000205831780359892 0.000150236520815328 -0.000128133878609915 -0.000380889969562561
"134" -6.41258977474857e-05 -0.000121578014266335 -2.85063173062724e-05 -3.14403716542925e-05 -0.000261289795123221 -0.000102283720358886 0.000144963552660306 5.25969265407489e-05 -0.000254690476382126 -4.30408642223669e-05 -5.60557015494643e-05 -0.000215097937291669 -0.000207615583248735 0.000154607246410621 -0.000123647513004224 -0.000391769681564046
"135" -5.97198104744593e-05 -0.000118171252254084 -2.50887672617356e-05 -2.70671882041731e-05 -0.000261786425240768 -9.96852065743369e-05 0.000140276139695899 5.25934905469032e-05 -0.000251997178976844 -4.19920741682621e-05 -5.33102326304441e-05 -0.000216776511740747 -0.000209178024101717 0.000158692061430269 -0.000118907304630457 -0.000401117680137772
"136" -5.52647358776188e-05 -0.000114890053895727 -2.17403206051121e-05 -2.27674340677702e-05 -0.000262332986265498 -9.72019668416498e-05 0.000135733866371509 5.24687670344882e-05 -0.000249198439687039 -4.15581098282297e-05 -5.08318292531216e-05 -0.000218191689353512 -0.000210481840841852 0.000162482167741648 -0.000113891056453021 -0.000408821558951356
"137" -5.07913416749319e-05 -0.000111760556708435 -1.84742141665944e-05 -1.85534136483436e-05 -0.000262922915174153 -9.48368328456268e-05 0.000131380098755388 5.2231048858986e-05 -0.000246341072109683 -4.17410041801043e-05 -4.86381773047972e-05 -0.000219313067115752 -0.000211492487454267 0.000165966549744446 -0.000108577694790498 -0.000414778833306008
"138" -4.63333068449684e-05 -0.000108804779561022 -1.53012304597633e-05 -1.44448035371307e-05 -0.000263546535755541 -9.25869686377919e-05 0.000127254411956208 5.1886258393057e-05 -0.000243457544314796 -4.25368094800455e-05 -4.67375709440375e-05 -0.000220113504980337 -0.000212177680806942 0.000169141727416487 -0.000102949007253709 -0.000418894781727569
"139" -4.19205813920438e-05 -0.000106040685725985 -1.22342063908088e-05 -1.04538544526052e-05 -0.000264192262997553 -9.04568638479682e-05 0.000123397647768336 5.14401472353317e-05 -0.000240599359682428 -4.39364219280379e-05 -4.51464962188362e-05 -0.000220571808872962 -0.000212516173305446 0.00017200482169858 -9.69916374417955e-05 -0.000421105005444025
"140" -3.75799925469171e-05 -0.000103488463928857 -9.28091056622856e-06 -6.59009312820293e-06 -0.000264853542952967 -8.84455589406643e-05 0.000119849911100606 5.09004618099862e-05 -0.000237790724299752 -4.59196308117464e-05 -4.38655977212631e-05 -0.000220666109359321 -0.000212473428548988 0.000174563284668332 -9.06863672772441e-05 -0.000421340861252719
"141" -3.33407586887649e-05 -0.000101164396468155 -6.45328650240977e-06 -2.87140481293705e-06 -0.00026551816581933 -8.6556922483976e-05 0.000116636940353201 5.02747316496042e-05 -0.000235069588180831 -4.84651941514404e-05 -4.28971851245398e-05 -0.000220384535060793 -0.000212039591178717 0.000176823674778987 -8.40289916534375e-05 -0.000419571306823768
"142" -2.92253571615303e-05 -9.90821491829967e-05 -3.75169070002957e-06 6.93222439369523e-07 -0.000266172767409431 -8.47850021816749e-05 0.000113800898382498 4.95735041606363e-05 -0.000232463982504948 -5.15425831128361e-05 -4.22414289051977e-05 -0.000219713007603533 -0.000211191423799631 0.000178794381920275 -7.70057394222286e-05 -0.000415767669627217
"143" -2.52605812157091e-05 -9.72553696240878e-05 -1.18414820063317e-06 4.09078516390188e-06 -0.000266806316468456 -8.31375696230782e-05 0.00011135540013679 4.88040574724382e-05 -0.000230006064618509 -5.51146818246938e-05 -4.18909715474073e-05 -0.000218645882885598 -0.00020991515914934 0.000180495294345835 -6.96156087632017e-05 -0.000409930827196382
"144" -2.1465904210763e-05 -9.56912940117746e-05 1.243022773213e-06 7.31422950103381e-06 -0.000267408085790587 -8.16080112500648e-05 0.000109330972098505 4.7975175103745e-05 -0.000227713144320893 -5.91481555532745e-05 -4.18406659660504e-05 -0.000217179175028055 -0.000208205289192472 0.000181932975599256 -6.18534530194683e-05 -0.000402070401535889
"145" -1.78603290685267e-05 -9.44007808065186e-05 3.53315015139656e-06 1.0356358038949e-05 -0.000267959932266756 -8.01988921767296e-05 0.000107740411237585 4.70960606506446e-05 -0.000225611291458437 -6.35914738038658e-05 -4.20758010935566e-05 -0.000215311622514525 -0.000206049610979134 0.000183140379339846 -5.37234657332392e-05 -0.000392218652825139
"146" -1.44536026856765e-05 -9.3386256476623e-05 5.68267063137684e-06 1.32048656620293e-05 -0.000268450823507091 -7.89121969027894e-05 0.000106594692585472 4.61792786309859e-05 -0.000223716345090389 -6.83992297821263e-05 -4.25789917313714e-05 -0.000213047421494861 -0.000203451916757738 0.000184124516337883 -4.52270179605897e-05 -0.000380433303238627
"147" -1.12612235546336e-05 -9.26481165644074e-05 7.69286667358131e-06 1.58544788517837e-05 -0.000268864603834994 -7.77405547148573e-05 0.000105899631245568 4.52319818259586e-05 -0.000222043408452604 -7.35204183320587e-05 -4.33377951988482e-05 -0.000210395462675863 -0.000200410619640127 0.000184915116708079 -3.63767877420786e-05 -0.000366780970235276
"148" -8.29157046115616e-06 -9.21901089314654e-05 9.56827002820872e-06 1.8303239930399e-05 -0.000269189859140808 -7.66896251323027e-05 0.000105662173760568 4.42641340026147e-05 -0.000220608798001028 -7.8897752841095e-05 -4.43307881320261e-05 -0.000207367297178941 -0.000196929049429972 0.000185531935626513 -2.7179119444318e-05 -0.000351347535887836
"149" -5.55310463807107e-06 -9.20117852748077e-05 1.13055064898473e-05 2.05429511690471e-05 -0.00026941009549084 -7.5751816099587e-05 0.000105870080022462 4.32864293052088e-05 -0.000219419861421133 -8.44757884925097e-05 -4.55349231065299e-05 -0.000203978815315013 -0.000193016204952162 0.000186004966067052 -1.76519184324375e-05 -0.000334243047595424
"150" -3.04684809559153e-06 -9.21046722440494e-05 1.29141329071444e-05 2.25745830176389e-05 -0.000269511901198742 -7.49278994998331e-05 0.000106520182271505 4.23068193063881e-05 -0.00021848346005015 -9.01943564519054e-05 -4.6925425993343e-05 -0.000200246738073502 -0.00018868040146991 0.000186354089387392 -7.80699005823733e-06 -0.000315581665247202
"151" -7.81145784668042e-07 -9.24711624176097e-05 1.43909586468866e-05 2.43887032161011e-05 -0.000269486644500358 -7.42211432912129e-05 0.000107588474253567 4.13311199682425e-05 -0.000217806898362564 -9.59957553790281e-05 -4.84771473989203e-05 -0.000196195132620705 -0.000183942134568487 0.000186605620407522 2.32314905219159e-06 -0.000295507971770615
"152" 1.25404915680984e-06 -9.30975669664029e-05 1.57485841642753e-05 2.59895816520505e-05 -0.000269317185752955 -7.3628200377828e-05 0.000109055151098573 4.03712855981758e-05 -0.000217396468847279 -0.000101817848919885 -5.01650060294398e-05 -0.000191846494109248 -0.000178812017508149 0.000186777855316006 1.27225533752727e-05 -0.000274167252482202
"153" 3.05763063893063e-06 -9.39750340734189e-05 1.69887180660724e-05 2.73753601222484e-05 -0.000268991342587897 -7.31413364279996e-05 0.000110894855814037 3.94334030943208e-05 -0.000217245349324776 -0.00010760181444089 -5.19607701365432e-05 -0.000187227276182609 -0.000173309936596807 0.000186898547495366 2.33598403637095e-05 -0.000251723035928267
"154" 4.63218938768118e-06 -9.50981782208282e-05 1.81156338232705e-05 2.85473328127193e-05 -0.000268500279522488 -7.27659146182439e-05 0.000113067768153742 3.85216244117368e-05 -0.000217358124969838 -0.000113289382852641 -5.38327835942364e-05 -0.000182368576042673 -0.000167458046950988 0.000186988835553929 3.42073938511037e-05 -0.000228348960619883
"155" 5.98913921083421e-06 -9.64488555755839e-05 1.91360580525893e-05 2.9506370058894e-05 -0.00026783234566174 -7.24991575326923e-05 0.000115537924807271 3.76431812094935e-05 -0.00021773394717248 -0.000118823623640522 -5.5758671020858e-05 -0.000177295781475821 -0.000161278660670001 0.00018706722533509 4.52291014408191e-05 -0.0002042245398763
"156" 7.14478735641956e-06 -9.80137695408491e-05 2.00609951561036e-05 3.02595379331617e-05 -0.000266977840618249 -7.23333311694158e-05 0.000118264357120325 3.68068368445109e-05 -0.000218364302509938 -0.000124148436966589 -5.77020568768347e-05 -0.000172044779279656 -0.000154792261010504 0.000187146661129845 5.63920345815705e-05 -0.000179535284217129
"157" 8.09952236083605e-06 -9.9779834663008e-05 2.08896742647857e-05 3.0805670931932e-05 -0.000265931153656091 -7.22699558818315e-05 0.000121198604699903 3.60126176974736e-05 -0.000219242704998088 -0.000129212107766499 -5.96398034844973e-05 -0.000166646364036417 -0.000148028547857166 0.000187251646216024 6.76516720644876e-05 -0.000154481692769915
"158" 8.87506628780743e-06 -0.000101730915113032 2.16310652033548e-05 3.11528936479273e-05 -0.000264682145244572 -7.23072783690816e-05 0.000124280340750306 3.52659224787098e-05 -0.000220365297379248 -0.000133962827400526 -6.15391102450522e-05 -0.000161134768382787 -0.00014101267714294 0.000187387445013684 7.89715496572029e-05 -0.000129250501124047
"159" 9.48334578939272e-06 -0.000103852148423463 2.22905548892008e-05 3.13070467935889e-05 -0.000263227410293699 -7.24397373000786e-05 0.000127460359156456 3.45667290242591e-05 -0.000221720948150365 -0.000138357950506377 -6.33763649037828e-05 -0.000155541392698901 -0.000133770521325688 0.000187565450271369 9.03079547435324e-05 -0.000104041090298445
"160" 9.93659225912161e-06 -0.00010612388878768 2.28730946288321e-05 3.12727903077428e-05 -0.000261563821326351 -7.26702770120275e-05 0.000130672825525177 3.39175949149785e-05 -0.000223301689114401 -0.000142354809083374 -6.51237884415619e-05 -0.000149904695370514 -0.000126326174731214 0.000187790103976943 0.000101614503405323 -7.90484911272964e-05
"161" 1.02569809156891e-05 -0.000108527486579621 2.33835343896007e-05 3.10611034878042e-05 -0.000259688858448343 -7.29909608510728e-05 0.000133853397876738 3.33139315390748e-05 -0.000225092662427054 -0.000145912909290989 -6.67558330362658e-05 -0.000144251714076872 -0.000118710585706171 0.000188073437243803 0.000112847108985135 -5.44581938916086e-05
"162" 1.04637821015528e-05 -0.000111040645140956 2.38282372785612e-05 3.06805276956933e-05 -0.000257597634791956 -7.33973882573749e-05 0.000136944534840185 3.27651272442968e-05 -0.00022708372577 -0.00014900073960515 -6.82464147250329e-05 -0.000138613357823157 -0.000110945886003319 0.000188408955747554 0.000123956599056953 -3.04564163044952e-05
"163" 1.05751430939605e-05 -0.000113646852843682 2.42128628455127e-05 3.01392238465481e-05 -0.000255293745415864 -7.38882618438502e-05 0.000139872652238109 3.22618480800761e-05 -0.000229260045638399 -0.000151589388301703 -6.95757417764641e-05 -0.000133022760172455 -0.000103059585877103 0.000188801357138609 0.000134893988953913 -7.21358226086825e-06
"164" 1.0605125517917e-05 -0.000116322986803423 2.45393390041219e-05 2.94516266033684e-05 -0.000252779444668243 -7.44579703982894e-05 0.000142574489009058 3.1803525785538e-05 -0.000231604064940832 -0.000153655677777129 -7.07214449121978e-05 -0.000127507670337262 -9.50731111786796e-05 0.000189242791226109 0.000145616138283936 1.50989171758768e-05
"165" 1.05767925495725e-05 -0.000119052298996826 2.48103806319928e-05 2.86259227827844e-05 -0.000250060202392304 -7.51063927882543e-05 0.000144977219214057 3.13845964436598e-05 -0.000234101803245106 -0.000155180198684257 -7.16664802457027e-05 -0.000122094017387568 -8.70116016732397e-05 0.0001897277080291 0.000156068842232825 3.63367954311313e-05
"166" 1.05084908960401e-05 -0.000121807472518953 2.50330695882489e-05 2.7676141125656e-05 -0.000247133583497872 -7.58210215435245e-05 0.000147020252979358 3.10038491849521e-05 -0.00023673307325245 -0.000156150370201129 -7.2391012407121e-05 -0.000116804222155223 -7.88939306844891e-05 0.000190247949926774 0.000166205850557441 5.63544060830183e-05
"167" 1.04207030458168e-05 -0.000124574148977357 2.520704546566e-05 2.66162507530267e-05 -0.000244014811355095 -7.66040701896065e-05 0.000148636708321614 3.06526898551715e-05 -0.000239483363025521 -0.000156555664124491 -7.28823382803345e-05 -0.000111660617669363 -7.07400945873124e-05 0.000190783839264366 0.000175985200563445 7.50351577283428e-05
"168" 1.03323847392966e-05 -0.000127324876841021 2.53366288348005e-05 2.54595386006407e-05 -0.000240704529491446 -7.74450757027902e-05 0.000149764510112076 3.03282688990961e-05 -0.000242328881015253 -0.000156393722124569 -7.31227859772036e-05 -0.000106678409038008 -6.25657911333202e-05 0.000191332039358727 0.000185354343003364 9.22675006138371e-05
"169" 1.02519090234723e-05 -0.000130041144055539 2.54236425163077e-05 2.42235487902576e-05 -0.000237218730782161 -7.83396554322003e-05 0.0001503397946941 3.00214336694476e-05 -0.00024524790562615 -0.000155667508598387 -7.31083754749012e-05 -0.000101877658442865 -5.43882386513755e-05 0.000191871558488257 0.000194274386424095 0.00010796354633211
"170" 1.02047900316557e-05 -0.000132706701909179 2.54670193629326e-05 2.29152570390512e-05 -0.000233565575183839 -7.92856997428068e-05 0.000150309616658842 2.97211137297809e-05 -0.000248220863792794 -0.000154381372927334 -7.28242625594377e-05 -9.72673963956721e-05 -4.62176109529183e-05 0.000192386988277945 0.000202700537844967 0.000122055895995
"171" 1.02004553845731e-05 -0.000135292538577588 2.54736159147187e-05 2.15617526706263e-05 -0.000229755920286282 -8.02697588107244e-05 0.000149622789435641 2.94282364739632e-05 -0.000251220614516251 -0.000152543359280212 -7.2264133922939e-05 -9.2855011754041e-05 -3.80638135300426e-05 0.000192866596320473 0.000210594134644985 0.000134493236165009
"172" 1.02624496840321e-05 -0.000137780293347456 2.54432871302507e-05 2.01710642323729e-05 -0.000225802975425319 -8.12904585012298e-05 0.00014823290389303 2.91282778180756e-05 -0.000254228347841628 -0.000150172755426542 -7.14263440494335e-05 -8.86427093495617e-05 -2.99324042675508e-05 0.00019327751347156 0.000217921550168498 0.000145247083561258
"173" 1.03887640638272e-05 -0.000140152531596211 2.5373623783339e-05 1.8764303784267e-05 -0.000221722186975695 -8.23368766515472e-05 0.000146096109346754 2.88166366804957e-05 -0.000257210777926715 -0.000147286159645675 -7.03052627167375e-05 -8.46365814632804e-05 -2.18324513741463e-05 0.00019361284207423 0.000224645419158794 0.000154304826505854
"174" 1.0607879102241e-05 -0.000142384960797937 2.52700685356714e-05 1.73571176618464e-05 -0.00021752848832435 -8.34003532594891e-05 0.000143180085344032 2.84840847660617e-05 -0.000260151837089589 -0.000143907959866379 -6.89019079929712e-05 -8.08335983792879e-05 -1.37670480150914e-05 0.000193845334864931 0.000230739521114299 0.000161672526114868
"175" 1.09149182397431e-05 -0.000144460374000397 2.51321038879281e-05 1.59677045387857e-05 -0.000213236204680994 -8.4477502730007e-05 0.000139459326340745 2.8119727212594e-05 -0.00026301579268367 -0.000140061385026716 -6.721499377747e-05 -7.72228183561585e-05 -5.72819840187017e-06 0.000193965728946203 0.00023617935339424 0.00016738791608225
"176" 1.13265825530637e-05 -0.000146359429856655 2.49636130192606e-05 1.46137358742383e-05 -0.000208861018908003 -8.5552286772277e-05 0.000134914438829168 2.77202208611472e-05 -0.000265778097397364 -0.000135777496613883 -6.52533255849766e-05 -7.38010840509108e-05 2.28143622264062e-06 0.000193950289677292 0.000240942774355017 0.000171494217436537
"177" 1.18466102916583e-05 -0.000148064199003648 2.47638283427881e-05 1.33097699649346e-05 -0.000204424300184551 -8.66230771773063e-05 0.000129528266546239 2.72752305426883e-05 -0.000268412394613184 -0.00013109014518534 -6.30166330660607e-05 -7.05509030715581e-05 1.0268161852322e-05 0.000193782330952635 0.00024501773416974 0.000174061358805078
"178" 1.24750426127575e-05 -0.000149555347719182 2.45365147259757e-05 1.20778384993609e-05 -0.000199939287522226 -8.76787890967792e-05 0.000123294184194803 2.6779010606329e-05 -0.000270890967051521 -0.000126028050229086 -6.05181519804462e-05 -6.74562462087448e-05 1.82408286040815e-05 0.000193448353715186 0.000248389572252002 0.000175170869630625
"179" 1.32121200903357e-05 -0.000150822664929468 2.42774097984473e-05 1.09281118533582e-05 -0.000195427847286859 -8.87089983435238e-05 0.000116217788702655 2.6219579729903e-05 -0.00027318370633966 -0.00012063137938706 -5.7760832648254e-05 -6.45034815942484e-05 2.62079446746623e-05 0.000192934909610654 0.000251055977932506 0.000174922249848882
"180" 1.4073137436819e-05 -0.000151837879499932 2.40018866810085e-05 9.88484275681921e-06 -0.000190900391750539 -8.97011011893944e-05 0.000108316921328145 2.56025438712087e-05 -0.000275264366392049 -0.000114932968824022 -5.47574795686481e-05 -6.16621232921662e-05 3.41821155278408e-05 0.000192234283536472 0.000253015221882999 0.000173435002270744
"181" 1.50385953085042e-05 -0.000152600596475977 2.37008096909892e-05 8.96321399093856e-06 -0.000186380019118362 -9.06508712095314e-05 9.9605860084239e-05 2.49116665537787e-05 -0.000277104252896676 -0.000108973345787713 -5.15210858455617e-05 -5.89176101552813e-05 4.21800684679455e-05 0.000191340331513839 0.000254275310489194 0.00017083837786518
"182" 1.61145777456882e-05 -0.000153087350328819 2.33807338521552e-05 8.17577965788347e-06 -0.000181886291123968 -9.15466814257537e-05 9.01088245166975e-05 2.41504732150308e-05 -0.000278678227185662 -0.000102792089274988 -4.806689823878e-05 -5.6236735394338e-05 5.02113398733402e-05 0.000190239527173207 0.000254839858092954 0.000167263568699067
"183" 1.72982792031512e-05 -0.000153286469658027 2.30499034470655e-05 7.54245261366652e-06 -0.000177428058626424 -9.23733660402524e-05 7.98681771021293e-05 2.33170267936746e-05 -0.000279958232156546 -9.64242357288873e-05 -4.44041988134311e-05 -5.35944367560085e-05 5.82961063115967e-05 0.000188935525642689 0.000254733952780072 0.000162867702784831
"184" 1.85718312446109e-05 -0.000153194048716444 2.27053920365293e-05 7.07444949506288e-06 -0.000173030241169178 -9.31272623840133e-05 6.89199401148561e-05 2.2398524188063e-05 -0.000280927975260585 -8.99094113870071e-05 -4.05527640445655e-05 -5.09627160173441e-05 6.64512015102629e-05 0.000187432678156279 0.00025397157633 0.000157797623780683
"185" 1.9938142034426e-05 -0.000152792370960964 2.23581688130169e-05 6.78745976774721e-06 -0.000168702077675334 -9.37951606795737e-05 5.73211742737932e-05 2.1409058139462e-05 -0.000281555671445224 -8.32841069802228e-05 -3.65300164651796e-05 -4.83071571730347e-05 7.4693729785523e-05 0.000185735161647432 0.000252580672959382 0.000152224550529652
"186" 2.13789630773042e-05 -0.000152077058444616 2.20123402657204e-05 6.69546517581819e-06 -0.000164463026361666 -9.43681409574545e-05 4.51293251743013e-05 2.03420909192617e-05 -0.000281822412930476 -7.65855174437396e-05 -3.23522141752585e-05 -4.55992312843758e-05 8.30434590963376e-05 0.000183854538811086 0.000250595534145202 0.000146308944992815
"187" 2.28927596478313e-05 -0.000151036427859284 2.16741926049307e-05 6.8130778772121e-06 -0.000160322999630513 -9.48335145631899e-05 3.24041725155137e-05 1.92042083665704e-05 -0.000281717453221868 -6.98498783023766e-05 -2.80403622754704e-05 -4.28040366427989e-05 9.15214187481815e-05 0.000181795077447901 0.000248050164773454 0.000140218051272634
"188" 2.44543102417316e-05 -0.000149671714307118 2.13480119535727e-05 7.14595185324686e-06 -0.000156300604941327 -9.51865716320533e-05 1.92152235623739e-05 1.7994827718866e-05 -0.000281219088960105 -6.31065818845976e-05 -2.36136961880899e-05 -3.98956320481126e-05 0.000100141700851891 0.000179582451786799 0.000244983435703594 0.000134111441484786
"189" 2.60573597591248e-05 -0.000147975586627154 2.10413917792245e-05 7.70827002977921e-06 -0.000152406876423444 -9.5416942218689e-05 5.63745103132934e-06 1.67220258595214e-05 -0.000280318632559045 -5.63923281609185e-05 -1.90933838189662e-05 -3.68376501888563e-05 0.000108922017696672 0.000177228343088555 0.000241440182700843 0.000128156910577036
"190" 2.76812470224557e-05 -0.000145951153072761 2.075566782953e-05 8.50044056697279e-06 -0.000148651473063316 -9.55162789642689e-05 -8.25148684214745e-06 1.53900528257932e-05 -0.000279009419782176 -4.97322290771185e-05 -1.45004600960133e-05 -3.36053700970207e-05 0.000117880447737412 0.000174761275935031 0.000237464730186921 0.000122502674163869
"191" 2.93224911319124e-05 -0.000143591677065105 2.05126981819755e-05 9.54314696140476e-06 -0.000145042938575974 -9.54695372384284e-05 -2.23647040494349e-05 1.40125061439973e-05 -0.000277280058951289 -4.31541274068538e-05 -9.85411629774204e-06 -3.01635195760684e-05 0.000127037724652409 0.000172204853848779 0.000233112357340252 0.00011730907352779
"192" 3.09498859414312e-05 -0.000140906547296536 2.03067134960839e-05 1.08314060231131e-05 -0.00014159518737625 -9.52781527787235e-05 -3.6623879705233e-05 1.25930499250874e-05 -0.000275134385785884 -3.66846698236204e-05 -5.17838014272843e-06 -2.6489655561384e-05 0.000136398290701609 0.000169589988210654 0.000228431993808658 0.000112707002357181
"193" 3.25582757787662e-05 -0.000137898645845705 2.01536675459615e-05 1.23747500536331e-05 -0.000138310468457439 -9.49330073810174e-05 -5.09382817215439e-05 1.11424967687608e-05 -0.000272575927919755 -3.03417029987576e-05 -4.98444904544876e-07 -2.25585737641573e-05 0.000145979476174937 0.000166951909602156 0.000223478276868843 0.000108828999127961
"194" 3.41277802314463e-05 -0.000134569794646524 2.00612121305687e-05 1.4176597511233e-05 -0.000135196323665898 -9.4422828324923e-05 -6.52168579177251e-05 9.68125644863889e-06 -0.000269610126535137 -2.41482079817137e-05 4.1694983217465e-06 -1.83443477079637e-05 0.000155791844187626 0.000164316243767146 0.000218307642206569 0.000105792317556672
"195" 3.56394938860473e-05 -0.000130932707265505 2.00341314192751e-05 1.62324474868185e-05 -0.000132261557963543 -9.37446782014066e-05 -7.93724885472369e-05 8.21343640426315e-06 -0.000266252063161003 -1.81183795656449e-05 8.79701453952335e-06 -1.38259276068827e-05 0.000165841357834919 0.000161724056347537 0.000212977564442014 0.000103702628902653
"196" 3.70831725842334e-05 -0.000126996066185387 2.00847441707276e-05 1.85496777844313e-05 -0.000129503001412966 -9.28934147243682e-05 -9.33197874012334e-05 6.76123878422469e-06 -0.000262516364726295 -1.22667990544126e-05 1.33644026279926e-05 -8.98854090732083e-06 0.000176133776531536 0.000159214216335881 0.000207539286034764 0.00010264201626544
"197" 3.84405205000451e-05 -0.000122775007980586 2.02239469792695e-05 2.11208419632613e-05 -0.000126928165335821 -9.18653355302831e-05 -0.000106970946072218 5.33452354437505e-06 -0.000258422337201236 -6.60269079449209e-06 1.78525119074333e-05 -3.8176911336526e-06 0.000186668015075236 0.000156825049249286 0.000202051954932528 0.000102685361177292
"198" 3.96984115673696e-05 -0.000118284151192745 2.04550007913885e-05 2.39468570349567e-05 -0.00012453339136331 -9.06573757725887e-05 -0.000120235507541584 3.95145055110552e-06 -0.000254000585284979 -1.13728729802124e-06 2.22360868907681e-05 1.69859095381177e-06 0.000197444140028138 0.000154597017651944 0.000196569789909178 0.000103890056785653
"199" 4.08433985086133e-05 -0.000113537464348184 2.07857077264812e-05 2.70172640601626e-05 -0.000122323111388216 -8.92674926735804e-05 -0.000133039468469967 2.63053235842135e-06 -0.000249285436584116 4.12256310975224e-06 2.64932097298632e-05 7.56495899543729e-06 0.000208452302289291 0.000152561781225972 0.000191139837356107 0.000106280790857949
"200" 4.18547675063348e-05 -0.000108563271941726 2.12284648153769e-05 3.03253345172413e-05 -0.000120294518605277 -8.7696564457027e-05 -0.000145307434347318 1.38336535650247e-06 -0.000244308905967203 9.17410208306522e-06 3.06061560225863e-05 1.37853455949215e-05 0.000219690909235752 0.000150764154957219 0.00018581621578441 0.000109882370741798
"201" 4.27359288274767e-05 -0.000103372068612954 2.1789377042426e-05 3.38663823430415e-05 -0.00011844125788062 -8.59403868209413e-05 -0.000156954730621127 2.36424764180517e-07 -0.000239112577207887 1.40197637048487e-05 3.4552478985412e-05 2.03637089399925e-05 0.000231143339639616 0.000149245062346577 0.000180645437113288 0.000114693441065517
"202" 4.34672476398558e-05 -9.79944462213811e-05 2.24748295378538e-05 3.76272754909074e-05 -0.000116763296796242 -8.40011459030061e-05 -0.00016792433703228 -7.97022481887922e-07 -0.000233738462758232 1.86570853111733e-05 3.83157816296087e-05 2.72882980050222e-05 0.000242794029278333 0.000148043041729222 0.000175668680510759 0.000120692611954897
"203" 4.40405548423209e-05 -9.24537162793061e-05 2.32912945336782e-05 4.15958163637456e-05 -0.000115255369683331 -8.18841619947967e-05 -0.000178147529950534 -1.70271671793376e-06 -0.000228242830949072 2.30845552808492e-05 4.18774591340891e-05 3.45514555220609e-05 0.000254616497345085 0.000147181582631397 0.000170922022891472 0.000127834611557568
"204" 4.44571513807753e-05 -8.67753745760116e-05 2.42448140905673e-05 4.57581786283323e-05 -0.000113911402897496 -7.95893647970444e-05 -0.000187570264331271 -2.45754119913798e-06 -0.000222673792137137 2.7310778964444e-05 4.52220094246649e-05 4.21427833525512e-05 0.000266591658196358 0.000146701950490903 0.000166445480461508 0.000136064094988003
"205" 4.4705842432894e-05 -8.09914968972846e-05 2.53402541929851e-05 5.01021934233349e-05 -0.000112721617444637 -7.71204205217964e-05 -0.000196140297756166 -3.04575749618249e-06 -0.00021708847702533 3.13369322308015e-05 4.83325472088725e-05 5.00418056455107e-05 0.000278688048868818 0.000146633860826421 0.000162261527235992 0.000145300877129246
"206" 4.47891592124259e-05 -7.51292099212234e-05 2.65824155762287e-05 5.46076054874591e-05 -0.00011167746266584 -7.44846480812502e-05 -0.000203820273862164 -3.45131673196724e-06 -0.000211544713944071 3.51732706151226e-05 5.1193895921224e-05 5.82312644986844e-05 0.000290876282226557 0.000147003521813043 0.000158396077605858 0.000155454873822085
"207" 4.47060629259942e-05 -6.92222583833621e-05 2.7976445848873e-05 5.92588988582369e-05 -0.000110776056045378 -7.16861884183688e-05 -0.000210572786696184 -3.65699396977164e-06 -0.000206101748106121 3.88245438598033e-05 5.3797481345964e-05 6.6682529304329e-05 0.000303114555383173 0.000147832978731155 0.000154871649703061 0.000166414759581049
"208" 4.44566483011708e-05 -6.33029824516265e-05 2.95171264057245e-05 6.40350605046962e-05 -0.000110006506875553 -6.87379347033891e-05 -0.000216377335984424 -3.65185215549141e-06 -0.000200828523968932 4.2294981407747e-05 5.61299518405634e-05 7.53672366391602e-05 0.000315363959557899 0.000149134882526794 0.000151693183171208 0.000178047105414321
"209" 4.40482443580812e-05 -5.74041249923863e-05 3.12123465405339e-05 6.89134419400346e-05 -0.000109357673799762 -6.56447502366305e-05 -0.00022121297239178 -3.42350129750702e-06 -0.000195783933162834 4.55967817239355e-05 5.81821174954907e-05 8.42473962847134e-05 0.000327577858859584 0.000150934946875629 0.000148872535351052 0.000190217989432448
"210" 4.34881490377672e-05 -5.15575234022482e-05 3.30620834498644e-05 7.38799653073228e-05 -0.000108819393583104 -6.24160892000425e-05 -0.000225068603624337 -2.95774029429955e-06 -0.000191031307874325 4.87367438589741e-05 5.9949991127054e-05 9.3293134219813e-05 0.000339713969642495 0.000153232327427636 0.000146410712040891 0.000202777105184889
"211" 4.27804335850634e-05 -4.58034880154623e-05 3.50651273729736e-05 7.89083008118235e-05 -0.000108380311644992 -5.90626048963856e-05 -0.000227950382978486 -2.24337737647427e-06 -0.000186635762128315 5.17219778094153e-05 6.14275442824764e-05 0.000102461963816168 0.000351718493745726 0.00015604360831996 0.000144303218374361 0.000215556675948533
"212" 4.19403563946604e-05 -4.01697246077559e-05 3.72181793835628e-05 8.3972752714749e-05 -0.000108031925217133 -5.55974826657014e-05 -0.000229858415384121 -1.27673900909514e-06 -0.000182656611567697 5.45607618356361e-05 6.26089487264765e-05 0.000111710549276416 0.000363538268067525 0.00015935587588092 0.000142542234562121 0.000228389669693193
"213" 4.0977879972781e-05 -3.4696904465053e-05 3.95151466675102e-05 8.90497749478579e-05 -0.000107763753305599 -5.20326378269762e-05 -0.00023081795521129 -5.18720943158334e-08 -0.000179155188598509 5.72606745052136e-05 6.35017109527041e-05 0.000120990844793989 0.000375111347616847 0.000163175490032951 0.000141106057506207 0.000241091468730971
"214" 3.99097207859924e-05 -2.94162240167457e-05 4.19597507046146e-05 9.41217269561896e-05 -0.000107559438818751 -4.83790463040978e-05 -0.000230841932570173 1.43703207207571e-06 -0.000176184350955035 5.9828499173322e-05 6.41003199438059e-05 0.000130260256104562 0.000386392134381692 0.000167490600944195 0.000139985219375339 0.000253491065917078
"215" 3.87543201175925e-05 -2.43569807564637e-05 4.45398253701098e-05 9.91579483692774e-05 -0.000107413318585089 -4.46529234895562e-05 -0.000229974731721226 3.19095497418402e-06 -0.000173802086422539 6.22691597546477e-05 6.44106622335816e-05 0.000139467215045061 0.000397310194574194 0.000172275550494315 0.00013914843957224 0.000265395040349231
"216" 3.75294595792168e-05 -1.95578795195899e-05 4.72487131815085e-05 0.00010413757968213 -0.000107313221251134 -4.08678741919828e-05 -0.000228247027787382 5.2059259690019e-06 -0.000172051597815835 6.45921576210733e-05 6.44438255168759e-05 0.000148560026950038 0.000407809388104676 0.000177521375134878 0.000138568479746292 0.000276620740812466
"217" 3.62525737106008e-05 -1.50450206542834e-05 5.0084084077123e-05 0.000109030496922348 -0.000107247336986667 -3.70372722523441e-05 -0.000225714047466508 7.47821405742082e-06 -0.000170976549714726 6.68027002215814e-05 6.42047551416975e-05 0.000157485497942093 0.000417827283064933 0.000183201425033454 0.00013821238939901 0.000286989616059591
"218" 3.49483919840766e-05 -1.08470277074707e-05 5.30314981659251e-05 0.000113819887587394 -0.000107204860566672 -3.31747988846606e-05 -0.000222424933408624 1.00026393014736e-05 -0.000170610486641007 6.88992317170729e-05 6.37055609622936e-05 0.000166194800857437 0.000427304715918277 0.000189279416721516 0.000138047527850221 0.000296323214143721
"219" 3.36385548712936e-05 -6.99214169086589e-06 5.60821686481069e-05 0.000118476121478076 -0.000107174387453879 -2.92964321935005e-05 -0.000218438476382115 1.27696754202657e-05 -0.000170988370320992 7.08915077199071e-05 6.29643252174756e-05 0.000174633137913868 0.000436180336667308 0.000195726168574488 0.000138030101074072 0.000304456673915514
"220" 3.23441879126972e-05 -3.50441574237289e-06 5.9231586522744e-05 0.000122979819796237 -0.000107146938579561 -2.54200352913596e-05 -0.000213822614896767 1.5765314866883e-05 -0.000172121978018629 7.27804708715853e-05 6.19899044638319e-05 0.000182750470600972 0.000444394947748091 0.0002025073881703 0.000138125811990692 0.000311228167944332
"221" 3.10869430106101e-05 -4.0604513279298e-07 6.24563216851118e-05 0.000127303499340065 -0.000107116167112616 -2.15587145130616e-05 -0.000208650879373701 1.89705157997225e-05 -0.000174031412780918 7.45676359903525e-05 6.08087961330359e-05 0.000190494175075211 0.000451885448497046 0.0002095720260788 0.000138284198574534 0.000316481942103325
"222" 2.98999203562768e-05 2.28998616712451e-06 6.57544110098001e-05 0.000131431804916403 -0.000107063287394528 -1.77205758614961e-05 -0.000202987348102674 2.23793777655911e-05 -0.000176714103298746 7.62582811319524e-05 5.94397332338558e-05 0.000197817766762092 0.00045860421873774 0.000216881005207117 0.000138473451321768 0.000320100224310012
"223" 2.87978934318798e-05 4.56172283185584e-06 6.91087014329708e-05 0.000135340438446939 -0.000106993278897914 -1.39294892172934e-05 -0.00019691835657752 2.5959050963544e-05 -0.000180168532085816 7.78510086906396e-05 5.79044889662782e-05 0.000204672173422886 0.000464495064461567 0.000224381962141607 0.000138644338871018 0.000321952674746803
"224" 2.78023809039348e-05 6.39716526434189e-06 7.25005735454062e-05 0.000139009618655001 -0.000106886714696223 -1.01972606320414e-05 -0.000190518383862478 2.96933013333822e-05 -0.000184381091623503 7.93451429441858e-05 5.62280213245081e-05 0.00021101069524165 0.000469508364261248 0.000232021134259167 0.0001387578098847 0.000321941982098042
"225" 2.69476235293902e-05 7.79589992717851e-06 7.59229076889341e-05 0.00014242758085161 -0.000106739448352086 -6.52843361987273e-06 -0.000183862495224569 3.35598528995988e-05 -0.000189319100384516 8.07473207651846e-05 5.44403085872036e-05 0.000216798012342098 0.000473603312131 0.000239751474044255 0.000138772906301278 0.000319992281745091
"226" 2.62415200373897e-05 8.74242860460698e-06 7.93551162862297e-05 0.000145569830947009 -0.00010654856044614 -2.9461916084664e-06 -0.000177038062786778 3.75261398309538e-05 -0.000194949566552117 8.20520869148976e-05 5.25661346942075e-05 0.00022199221646181 0.000476733033833515 0.000247515368728843 0.000138654242480693 0.000316038692741981
"227" 2.57155611103011e-05 9.24512541112083e-06 8.27845444868425e-05 0.000148429307661765 -0.000106302460001229 5.47697107797344e-07 -0.000170121477433501 4.15675194491466e-05 -0.000201230856618216 8.32611135291909e-05 5.06404601763359e-05 0.000226558980502025 0.000478863738604624 0.000255249096936799 0.000138363892561145 0.000310042112405159
"228" 2.53784847043768e-05 9.30138997087058e-06 8.6193014969756e-05 0.000150989722684076 -0.000105997888434586 3.93512228938625e-06 -0.000163190523706502 4.56505385082933e-05 -0.000208101035059817 8.43776762424839e-05 4.86920285228863e-05 0.000230469899054214 0.000479968433772957 0.000262906799139747 0.000137872681437373 0.000301988820114068
"229" 2.52554287459118e-05 8.92544834328014e-06 8.95655900649352e-05 0.00015324088266443 -0.000105630071599172 7.21172813517852e-06 -0.000156322009867118 4.97465321068199e-05 -0.000215498734609168 8.53967171923615e-05 4.67550003804745e-05 0.000233698987392613 0.000480019865585059 0.000270422169747159 0.00013715537870354 0.000291883489810371
"230" 2.53618979452426e-05 8.12552822237481e-06 9.28855645321146e-05 0.000155177212976184 -0.000105193642959611 1.03710714155873e-05 -0.000149580468842779 5.38246913569705e-05 -0.000223343568616895 8.63256330689948e-05 4.48654334321313e-05 0.00023622821504786 0.000478996235099603 0.00027774331880579 0.000136181774248856 0.00027975131255994
"231" 2.57052994293564e-05 6.91753437781983e-06 9.61372648130757e-05 0.000156790537427193 -0.000104683229809195 1.34052621160101e-05 -0.000143040601296039 5.78518294422005e-05 -0.000231556830172757 8.71593378581355e-05 4.30513413026959e-05 0.000238039297557567 0.000476894221136934 0.000284811232979444 0.000134944686502671 0.000265656056633918
"232" 2.62939316364887e-05 5.31889755605315e-06 9.93012186712454e-05 0.000158076766599063 -0.000104101517854062 1.63062546701127e-05 -0.000136763158017162 6.17928085377638e-05 -0.000240043184224727 8.79028959585075e-05 4.13489972271938e-05 0.000239123106229822 0.000473701979616042 0.000291569525603188 0.000133424690554805 0.000249662264918264
"233" 2.7137792490054e-05 3.35850125026397e-06 0.000102363179449551 0.000159033952008203 -0.000103442882476488 1.90713452683105e-05 -0.000130802363704722 6.5613387812996e-05 -0.000248703276863896 8.85527137383703e-05 3.97948238457114e-05 0.000239475788913658 0.000469420760639331 0.000297966056128362 0.000131618064153447 0.000231869449655034
"234" 2.82374916715937e-05 1.06094883399831e-06 0.00010530783569496 0.000159663937937801 -0.000102705611846879 2.17012338060013e-05 -0.000125210625211703 6.92847950338688e-05 -0.000257430360235436 8.91154883018704e-05 3.84245344079444e-05 0.000239097867697197 0.00046405490272187 0.000303947756007965 0.000129519217748542 0.000212392782747965
"235" 2.95997345444585e-05 -1.54258716597136e-06 0.000108117771722117 0.000159967928894574 -0.000101888879032487 2.41944929733558e-05 -0.000120026875685214 7.27739861974747e-05 -0.000266108383899437 8.95930438825702e-05 3.72630346110959e-05 0.000237997056888939 0.000457625978545653 0.000309472264165732 0.000127138661850855 0.000191374857644372
"236" 3.12108719400883e-05 -4.42346067418256e-06 0.000110776296817745 0.000159949628788644 -0.000100995668571926 2.65467584698662e-05 -0.000115296193006249 7.604500027574e-05 -0.000274628275175125 8.9982490186504e-05 3.63451990856585e-05 0.000236178923922387 0.000450148001960938 0.000314487498433656 0.000124485808073675 0.000168959318037857
"237" 3.30743500110622e-05 -7.535652097379e-06 0.000113273275836539 0.000159621825516948 -0.000100021091143087 2.87657818116476e-05 -0.000111031194237913 7.90789426767191e-05 -0.000282864922552568 9.02944822296823e-05 3.57031204537919e-05 0.000233667725953296 0.000441653186589477 0.000318958444622468 0.000121576951590981 0.000145325382848555
"238" 3.51742675178973e-05 -1.08465199114499e-05 0.000115587765743468 0.000158989105618022 -9.8971849515332e-05 3.08485528534223e-05 -0.000107262149427537 8.18417372721028e-05 -0.000290692210569494 9.0526646292364e-05 3.5362960172528e-05 0.000230478457045636 0.000432169158145861 0.00032284181810825 0.000118434978015776 0.000120649083589931
"239" 3.74953119955349e-05 -1.4314952158334e-05 0.000117709720150711 0.000158063863366604 -9.78504842514876e-05 3.28043392303227e-05 -0.000104005814165826 8.43079979389395e-05 -0.000297995533322818 9.06818540574099e-05 3.53490869421065e-05 0.000226639243845343 0.000421738327620391 0.000326103680601058 0.000115085001776785 9.51250772964411e-05
"240" 4.00243785227877e-05 -1.78941366285939e-05 0.000119625020588398 0.000156858644549461 -9.66529997322562e-05 3.46350045402987e-05 -0.000101250963604447 8.64607724668875e-05 -0.000304646383002806 9.07674226990882e-05 3.56826775467589e-05 0.000222182457578617 0.000410405594694688 0.000328718329883671 0.000111563975418042 6.89613281168507e-05
"241" 4.27419324590102e-05 -2.15429366779482e-05 0.000121324125325073 0.000155390872579322 -9.53871589118693e-05 3.63470650010036e-05 -9.90095932006001e-05 8.82762758052262e-05 -0.000310525677153173 9.07845927856592e-05 3.63845402472181e-05 0.000217139634094323 0.000398215631588068 0.000330662212342208 0.000107908531529191 4.2361617808558e-05
"242" 4.56223367691998e-05 -2.52161887220299e-05 0.000122792678692625 0.000153672424281306 -9.40597879948403e-05 3.79458794480797e-05 -9.72592106629237e-05 8.97359574029905e-05 -0.000315517087253424 9.07395205336308e-05 3.74696844762162e-05 0.000211552828509473 0.000385223773265094 0.000331915419900843 0.000104158031612493 1.55469312379797e-05
"243" 4.863989163322e-05 -2.88675486918289e-05 0.000124018526342475 0.000151729766958478 -9.26688465979207e-05 3.94441889945272e-05 -9.59882826694422e-05 9.08322075789557e-05 -0.000319512471933374 9.06310207520047e-05 3.8947323794041e-05 0.000205458709480063 0.000371490634605871 0.000332466072103096 0.000100360916011273 -1.12703297241307e-05
"244" 5.176476079564e-05 -3.2451236419702e-05 0.000124994078660386 0.000149577731078502 -9.12233666267837e-05 4.08433689638448e-05 -9.51700797944378e-05 9.15534691546459e-05 -0.000322402370991787 9.04662818254022e-05 4.08297552948478e-05 0.000198907330786015 0.000357078681164433 0.000332306188389082 9.6563986084958e-05 -3.78680303682356e-05
"245" 5.4961165198333e-05 -3.59284667345216e-05 0.000125711770416445 0.000147240064751947 -8.97303541355107e-05 4.21549142900672e-05 -9.47727950509334e-05 9.18899897649363e-05 -0.000324094093852723 9.02488423146164e-05 4.31150700156582e-05 0.000191940827520707 0.000342051571862144 0.000331442025079749 9.28178769351561e-05 -6.40394418225053e-05
"246" 5.81947322173591e-05 -3.92531607155835e-05 0.00012615723219488 0.000144736877949052 -8.81945446251809e-05 4.33844057245935e-05 -9.4764355244291e-05 9.18420684360679e-05 -0.000324501696402971 8.99778225083409e-05 4.58002277574029e-05 0.000184604681436032 0.000326473891168477 0.000329870960921216 8.9170848983487e-05 -8.95773116865574e-05
"247" 6.14328903510157e-05 -4.23843354945996e-05 0.000126326760161539 0.000142090692583273 -8.66262265322794e-05 4.45403408798056e-05 -9.51024604822827e-05 9.14070836210825e-05 -0.000323548636799957 8.9655393543367e-05 4.88824905528742e-05 0.00017695543971239 0.000310421532836663 0.000327610291101968 8.56792044506096e-05 -0.000114275210133792
"248" 6.46366083720961e-05 -4.52850225667783e-05 0.000126214835558618 0.000139328720373397 -8.50294455429488e-05 4.56321640990676e-05 -9.57441922229249e-05 9.05944580911716e-05 -0.000321171779970069 8.92881430122274e-05 5.23450573708587e-05 0.000169037984176963 0.000293960681417584 0.000324681395634638 8.23953921831669e-05 -0.000137946808981974
"249" 6.77563156042497e-05 -4.79179498561242e-05 0.000125813913649791 0.000136473400291744 -8.3418532767602e-05 4.66654034642412e-05 -9.66444187303273e-05 8.94063525786601e-05 -0.00031732404583207 8.88746113159307e-05 5.61763040194999e-05 0.000160906878944867 0.00027716462965767 0.000321108363075755 7.93682243727568e-05 -0.000160407807176325
"250" 7.07626345357928e-05 -5.02511242065552e-05 0.000125122455483721 0.000133551255953599 -8.17967188936058e-05 4.76444178714716e-05 -9.77544175741922e-05 8.7862522770912e-05 -0.000311970300199474 8.84130354027032e-05 6.03470081181048e-05 0.000152608786509396 0.000260112328252181 0.000316924978072502 7.66527103128569e-05 -0.000181490151802868
"251" 7.36096467655425e-05 -5.22546103952333e-05 0.00012413544534145 0.000130589779406444 -8.01764186525677e-05 4.85767615382644e-05 -9.90201564406738e-05 8.59736560377655e-05 -0.000305089381215359 8.79067811903064e-05 6.48350501483939e-05 0.00014419979820504 0.000242874131767296 0.000312169008639363 7.42969517261818e-05 -0.000201041240364285
"252" 7.62560170709645e-05 -5.39002490771806e-05 0.00012285142328378 0.000127608648469772 -7.85686155721932e-05 4.94698136005386e-05 -0.0001003993591073 8.37591005333206e-05 -0.00029668434178316 8.73514286994991e-05 6.96078417181677e-05 0.000135722712699314 0.000225521969435997 0.000306885607034253 7.23468373792656e-05 -0.000218922827382311
"253" 7.86574206067492e-05 -5.51756514007059e-05 0.000121263993946687 0.000124635416121643 -7.69875469643804e-05 5.0318337483304e-05 -0.000101850426719316 8.12360300289641e-05 -0.000286767218833637 8.67487372103605e-05 7.46295520333538e-05 0.000127227744208435 0.00020812783967738 0.000301131827474042 7.08468459945221e-05 -0.000235014940400398
"254" 8.07802740818249e-05 -5.60543340151289e-05 0.000119379138714008 0.00012169792238296 -7.54374424666158e-05 5.11324663141226e-05 -0.00010331109436836 7.84360787936779e-05 -0.000275369982958904 8.60964314216827e-05 7.98610705791894e-05 0.000118759627915393 0.000190763588611671 0.000294964727074281 6.98308544826824e-05 -0.000249211064454441
"255" 8.25785796223908e-05 -5.65299124127301e-05 0.000117193411748174 0.000118813133790223 -7.39334974126337e-05 5.19079808053005e-05 -0.000104755982328833 7.53827551202429e-05 -0.000262543923840221 8.53894819228243e-05 8.52560514702354e-05 0.000110363185284984 0.000173500049952605 0.000288446350815377 6.93415437684533e-05 -0.000261429022053683
"256" 8.40205475826685e-05 -5.65958182988687e-05 0.000114708433222846 0.000116011188350306 -7.2491675255979e-05 5.26454193075489e-05 -0.000106135543716656 7.2104990750631e-05 -0.000248356542890989 8.46256188254361e-05 9.07695826920027e-05 0.00010207682340933 0.000156401069237024 0.000281637004842977 6.94009934544116e-05 -0.000271598302027662
"257" 8.5072966633301e-05 -5.62488938299732e-05 0.000111929092783487 0.000113307372178858 -7.11182152212712e-05 5.33431400437946e-05 -0.000107420506114099 6.86322595826639e-05 -0.000232895178751984 8.37976919323943e-05 9.63523148098064e-05 9.39397089733851e-05 0.000139531531759485 0.00027461303075438 7.00345857213052e-05 -0.000279675372034865
"258" 8.56959265094798e-05 -5.54936115036444e-05 0.000108855425128373 0.000110729075439221 -6.98273654039344e-05 5.39945168414763e-05 -0.000108583282227433 6.50007615955532e-05 -0.000216261778004108 8.29042759041779e-05 0.000101949538403557 8.5986190029978e-05 0.000122953156489094 0.000267454275602221 7.12653236301018e-05 -0.000285626819655727
"259" 8.58706350026267e-05 -5.43332133207021e-05 0.000105493963536514 0.000108293023147334 -6.86332073576018e-05 5.45946685263581e-05 -0.00010959345963566 6.1241708884417e-05 -0.000198573860911177 8.19405308118136e-05 0.000107511302992628 7.82452955150442e-05 0.000106721596959402 0.000260224540305598 7.30991207334938e-05 -0.000289448887756355
"260" 8.55657974876932e-05 -5.27883416661562e-05 0.000101852298508591 0.000106014629337886 -6.75469215694291e-05 5.51381229049979e-05 -0.000110445289461987 5.73892947075619e-05 -0.000179967372866496 8.08966030109695e-05 0.000112983310296974 7.07438447023412e-05 9.08848951199741e-05 0.000253006684036659 7.55387676432763e-05 -0.000291155665387271
"261" 8.47699794865281e-05 -5.0874923809898e-05 9.79350040293747e-05 0.000103914503739566 -6.65769804291098e-05 5.56115188541079e-05 -0.000111117284755953 5.34800707480286e-05 -0.000160597684600432 7.97685915535539e-05 0.000118308542767874 6.35060491520331e-05 7.55023780310722e-05 0.000245871116713724 7.85908714147111e-05 -0.000290769828183919
"262" 8.34539224932227e-05 -4.86168497194144e-05 9.37473648811215e-05 0.000102005743322729 -6.57424030931621e-05 5.60045579968082e-05 -0.00011162028331043 4.95444495394364e-05 -0.000140622269934301 7.85507388437887e-05 0.000123432408419101 5.65495030834933e-05 6.06055940672604e-05 0.000238896388936536 8.22374683064181e-05 -0.00028834891752849
"263" 8.16192862583629e-05 -4.60366852017243e-05 8.93007980269485e-05 0.000100301308067875 -6.50456780011984e-05 5.63110340040338e-05 -0.000111947414670229 4.56234566807417e-05 -0.000120224170664731 7.72305781132198e-05 0.000128298123313238 4.9890158597584e-05 4.62396405858453e-05 0.00023213900722056 8.64657220128603e-05 -0.000283960224286386
"264" 7.92469675958907e-05 -4.31763531446823e-05 8.46064520578183e-05 9.88137631095184e-05 -6.45026507493059e-05 5.65080883358488e-05 -0.00011211595924184 4.17436777020667e-05 -9.95800784054168e-05 7.5807612771922e-05 0.000132858735481077 4.35365677906147e-05 3.24354476645666e-05 0.000225681723068711 9.12497498552156e-05 -0.000277689407738633
"265" 7.63449456091837e-05 -4.00639211933559e-05 7.96746847256562e-05 9.75503321919773e-05 -6.41203036645744e-05 5.6588266271366e-05 -0.000112146290204178 3.79418868417157e-05 -7.88920112654538e-05 7.4269777081589e-05 0.00013705851092968 3.74936755714236e-05 1.92198154520166e-05 0.000219573193490237 9.65617872684928e-05 -0.000269639723178952
"266" 7.29199625933471e-05 -3.67426967253363e-05 7.45191462393189e-05 9.65243548838488e-05 -6.39037018521459e-05 5.65327297250799e-05 -0.000112061674363787 3.42497774613676e-05 -5.83629489425987e-05 7.261094813374e-05 0.000140852384493656 3.17668237575286e-05 6.61514895136167e-06 0.000213865984728543 0.000102357970563605 -0.000259932578678112
"267" 6.8973967743931e-05 -3.32548564739606e-05 6.91482887125641e-05 9.57309421495731e-05 -6.386852897301e-05 5.63220228669249e-05 -0.000111904929843606 3.06904237898461e-05 -3.81992759931813e-05 7.08227432561266e-05 0.000144191623245955 2.6348548068744e-05 -5.36822824280578e-06 0.000208608064251106 0.0001085936636148 -0.000248712933523497
"268" 6.45252389299113e-05 -2.96464132199378e-05 6.35806148051228e-05 9.51794826695604e-05 -6.40138276286424e-05 5.59438154983534e-05 -0.000111711965076072 2.72911406313024e-05 -1.86094555387978e-05 6.88971452150041e-05 0.000147034936859088 2.12364895047207e-05 -1.67201500692424e-05 0.000203833571894941 0.000115219684439003 -0.000236119306244476
"269" 5.9599410335799e-05 -2.59647410784891e-05 5.78328232306411e-05 9.4873833283026e-05 -6.43439175623925e-05 5.53781520541414e-05 -0.000111531270494653 2.40792322613269e-05 1.97317490086283e-07 6.68300769370547e-05 0.00014934709952714 1.64160993821476e-05 -2.74336194162304e-05 0.000199578391149732 0.000122174700698505 -0.000222320445877511
"270" 5.42157001895951e-05 -2.22623217726431e-05 5.19204059085983e-05 9.48115889484109e-05 -6.48617230247924e-05 5.46048251554064e-05 -0.000111414085761299 2.1070947448842e-05 1.80124434332212e-05 6.46139747286798e-05 0.000151087888336053 1.18746596557949e-05 -3.75164701360186e-05 0.000195857578124488 0.000129394895625077 -0.000207490445978207
"271" 4.84105375195474e-05 -1.85885076479781e-05 4.58619434976127e-05 9.49915117468462e-05 -6.55688441183877e-05 5.36102332995462e-05 -0.000111423681531365 1.82858810251677e-05 3.46278118290877e-05 6.22434635031575e-05 0.000152232956000335 7.59538634474777e-06 -4.69742163865873e-05 0.000192680102897724 0.000136811418516518 -0.000191817288267617
"272" 4.22147874844634e-05 -1.49950675637097e-05 3.96752861725964e-05 9.54080237878312e-05 -6.64656691146553e-05 5.23725350975852e-05 -0.000111628309453497 1.57370767144797e-05 4.98482956871087e-05 5.97143512080372e-05 0.000152757569375458 3.55262821637508e-06 -5.58300062033701e-05 0.000190044601675616 0.000144348432141933 -0.00017549530617883
"273" 3.56790945253712e-05 -1.15300339688639e-05 3.3381211231099e-05 9.60545684919501e-05 -6.7548231744175e-05 5.08775851872468e-05 -0.000112083465202515 1.34333028681996e-05 6.34822415831769e-05 5.70215839040459e-05 0.000152640138602749 -2.68939604688574e-07 -6.40979573634335e-05 0.000187941218248818 0.000151929922310816 -0.000158724083048727
"274" 2.88364263723717e-05 -8.2544952969584e-06 2.70024790950178e-05 9.692536303693e-05 -6.88121251161998e-05 4.91037444661812e-05 -0.000112875218266908 1.13786635054113e-05 7.53512647202901e-05 5.41653254606706e-05 0.000151869089561571 -3.90420672870127e-06 -7.18077106888591e-05 0.00018636004290995 0.000159472735387829 -0.000141707637441006
"275" 2.17535550857025e-05 -5.20631993612016e-06 2.05618157422489e-05 9.80143794663526e-05 -7.02481202943445e-05 4.70446252393658e-05 -0.000114058434481757 9.58005718014747e-06 8.52881429623922e-05 5.11480156483738e-05 0.000150434787341461 -7.37434780206844e-06 -7.89883992202507e-05 0.000185267078804273 0.000166896458489782 -0.000124652182696745
"276" 1.44768156138647e-05 -2.4380973789271e-06 1.40810817377345e-05 9.93128006150716e-05 -7.18432347012857e-05 4.4687513250373e-05 -0.000115710921234595 8.03675520964163e-06 9.31436565988893e-05 4.79687583704841e-05 0.000148337022406854 -1.0708650941207e-05 -8.56718383888917e-05 0.00018463235098991 0.000174121414173871 -0.00010775908697116
"277" 7.06149289896393e-06 7.12649491953653e-10 7.5836267205964e-06 0.000100803521573902 -7.35950898472866e-05 4.20130469837977e-05 -0.0001179096064578 6.73472403850113e-06 9.87824058133411e-05 4.46314790002152e-05 0.000145580620901981 -1.39390748792948e-05 -9.18987921745489e-05 0.000184414590748463 0.00018106267326957 -9.12380355736124e-05
"278" -4.33909151902952e-07 2.06800077538988e-06 1.09515422679328e-06 0.000102475492430827 -7.5486504800168e-05 3.90198665890153e-05 -0.000120723493672852 5.66877237377493e-06 0.000102087751482998 4.11468295149688e-05 0.000142175846610423 -1.70958011013117e-05 -9.77105515269846e-05 0.000184568632567101 0.000187642280114218 -7.52900736567635e-05
"279" -7.94447004897086e-06 3.72776425898604e-06 -5.35588167698131e-06 0.000104319935628581 -7.74985173330725e-05 3.5700319108137e-05 -0.000124217592048309 4.82304679881792e-06 0.000102956869280258 3.75188922720712e-05 0.000138135430669924 -2.02062032715515e-05 -0.000103141463967173 0.00018503845663034 0.000193785023283348 -6.00974067261316e-05
"280" -1.5406241892671e-05 4.94123345245824e-06 -1.1747150576907e-05 0.000106324348675295 -7.96135877373143e-05 3.20506305778548e-05 -0.000128450210191372 4.1821339648502e-06 0.000101322068002935 3.37653776778842e-05 0.000133485649691407 -2.32984449561896e-05 -0.000108238248715936 0.00018577785601521 0.000199422112800439 -4.5841926552691e-05
"281" -2.27561314249175e-05 5.67910974643303e-06 -1.80501153595402e-05 0.000108467106236074 -8.18179417745221e-05 2.80707147261439e-05 -0.00013348749185869 3.72118089901859e-06 9.71238087799233e-05 2.98958262109794e-05 0.000128253362672056 -2.64019738121214e-05 -0.000113042496739275 0.000186718446244006 0.00020448147402996 -3.26994540756009e-05
"282" -2.99340375476621e-05 5.91187439230966e-06 -2.4240742988149e-05 0.000110739192948525 -8.4083231284769e-05 2.37669493117982e-05 -0.000139378206444832 3.41700951803698e-06 9.03363347906621e-05 2.59317262614894e-05 0.000122474576469861 -2.95384990804034e-05 -0.000117592809059905 0.000187810147407175 0.000208916309718485 -2.08121488204794e-05
"283" -3.68689446770795e-05 5.61871806036087e-06 -3.02898719064518e-05 0.000113124615407053 -8.63869446381203e-05 1.91409933477999e-05 -0.000146162769805068 3.24133112050047e-06 8.09515351807442e-05 2.18946126673427e-05 0.000116192175541128 -3.27327104449414e-05 -0.000121929932379088 0.000188994757923952 0.000212670771956175 -1.03230586641339e-05
"284" -4.35110745943013e-05 4.78451604326693e-06 -3.61746464578027e-05 0.000115604783778492 -8.87071077979894e-05 1.42079599942823e-05 -0.000153875997132929 3.16197476443854e-06 6.89850282707076e-05 1.7808098820974e-05 0.000109448089298181 -3.5999360300346e-05 -0.000126087175301351 0.000190210252556986 0.000215710551689514 -1.34577849622506e-06
"285" -4.97856952290178e-05 3.39945846150349e-06 -4.18629781357688e-05 0.000118166412931698 -9.10128853833749e-05 8.97958370254793e-06 -0.00016254401826984 3.14682026041714e-06 5.44801195656731e-05 1.3700105879643e-05 0.000102298481288289 -3.9357021662908e-05 -0.000130095603575916 0.000191402110562583 0.000218001753577908 6.02120441729467e-06
"286" -5.56447866799835e-05 1.45965630195152e-06 -4.73346541488718e-05 0.000120793514293445 -9.32773881129041e-05 3.47798882450689e-06 -0.000172180916197123 3.15924394192422e-06 3.75069856278699e-05 9.60381521560511e-06 9.48010202033564e-05 -4.28182577616023e-05 -0.000133987129213509 0.0001925155405916 0.000219528084780962 1.17024618218768e-05
"287" -6.10347402646131e-05 -1.03649618751322e-06 -5.25630018705853e-05 0.000123468863375273 -9.54713779867378e-05 -2.27871587760789e-06 -0.000182793024639694 3.16320722921118e-06 1.81530536010363e-05 5.55102808885381e-06 8.70212383332579e-05 -4.63866794398875e-05 -0.000137786119825346 0.000193505649750524 0.000220282448195462 1.56418941645604e-05
"288" -6.59077752443101e-05 -4.08140988561458e-06 -5.75250741404776e-05 0.000126174354292472 -9.75654900175569e-05 -8.26395807639699e-06 -0.000194366404050953 3.12035026411665e-06 -3.46561613738824e-06 1.58244920857854e-06 7.90260227042073e-05 -5.00660943087618e-05 -0.000141509690857342 0.000194322950930009 0.000220272905199831 1.78125480901119e-05
"289" -7.02127546725732e-05 -7.65594045979794e-06 -6.21939876956089e-05 0.000128899218590076 -9.95271846565038e-05 -1.44427446445146e-05 -0.000206882812273031 2.99214463108001e-06 -2.7206938314462e-05 -2.26433687326866e-06 7.08868742670288e-05 -5.38535287600726e-05 -0.000145173536356091 0.000194927761043731 0.00021951546915106 1.82082251765297e-05
"290" -7.39122487065902e-05 -1.17450349404394e-05 -6.65515054938055e-05 0.000131623795777401 -0.00010132257180991 -2.07839342302449e-05 -0.000220302603621119 2.74222421956928e-06 -5.29098777674843e-05 -5.94012233223705e-06 6.2685240750686e-05 -5.77451104978644e-05 -0.000148783323677661 0.000195289849257285 0.000218040385615713 1.68442290300367e-05
"291" -7.69713945559841e-05 -1.63203450350091e-05 -7.05782945610476e-05 0.000134330596796028 -0.000102921043701609 -2.72520576320477e-05 -0.000234581680499431 2.32830640835713e-06 -8.03930138690706e-05 -9.40221025508799e-06 5.45031584188403e-05 -6.17292746402661e-05 -0.000152349041813573 0.000195379613006811 0.000215883634561808 1.37483360589245e-05
"292" -7.93594083739013e-05 -2.13489037408772e-05 -7.4250593687743e-05 0.000137010678466217 -0.000104282775420018 -3.37986055720398e-05 -0.000249655595948853 1.7233033380771e-06 -0.000109446415338375 -1.25968744516714e-05 4.6426021322028e-05 -6.57891772637241e-05 -0.000155869824027935 0.000195180119382171 0.000213096254084116 8.98544868844081e-06
"293" -8.10594835784632e-05 -2.6796178422785e-05 -7.75565147258576e-05 0.000139640125853343 -0.000105384561888135 -4.03917315293623e-05 -0.000265458962195162 8.79657758372137e-07 -0.000139850248656722 -1.5475240516878e-05 3.85407419280128e-05 -6.99078171246752e-05 -0.000159341052581236 0.000194671026400135 0.000209736128510389 2.62601143083835e-06
"294" -8.20585300571145e-05 -3.26179649358645e-05 -8.0477940573548e-05 0.000142205334769739 -0.000106186088703991 -4.69778913313292e-05 -0.000281901344594969 -2.2770303083294e-07 -0.000171361252280161 -1.79805985925731e-05 3.09397581806606e-05 -7.4061162878657e-05 -0.000162756654056626 0.000193849490900388 0.000205871752130714 -5.23882811001216e-06
"295" -8.23364099112065e-05 -3.87659444359925e-05 -8.29968612162592e-05 0.000144693309916233 -0.000106653169918859 -5.3503784928762e-05 -0.000298875591144337 -1.62577442880003e-06 -0.000203715830058817 -2.0055784502203e-05 2.37161507785859e-05 -7.82227487233692e-05 -0.000166107565517447 0.000192719747330084 0.000201573349085187 -1.44979310650412e-05
"296" -8.19065753647315e-05 -4.519263948475e-05 -8.51075319910438e-05 0.000147085927958166 -0.000106757130975787 -5.99310425035703e-05 -0.000316290486593575 -3.34911844594247e-06 -0.000236649697896328 -2.16485986950917e-05 1.69622439022941e-05 -8.23638066068511e-05 -0.000169384683823375 0.000191278545969275 0.000196917924208496 -2.50393033118516e-05
"297" -8.07668745852155e-05 -5.18356598506072e-05 -8.67985588946305e-05 0.000149366822124851 -0.000106461440571714 -6.61955146425423e-05 -0.000334010970666792 -5.41382980426206e-06 -0.000269873390919838 -2.26990297739998e-05 1.07716371796048e-05 -8.64541622841651e-05 -0.000172576021265774 0.000189539150425617 0.000191985659823753 -3.67396247804345e-05
"298" -7.89314739686023e-05 -5.8639693764141e-05 -8.80648118092899e-05 0.000151516946803319 -0.000105738440340569 -7.22496105366679e-05 -0.000351919203602208 -7.84037011838184e-06 -0.000303093247079347 -2.3149999397229e-05 5.23680663234268e-06 -9.04592695873633e-05 -0.000175672246976576 0.000187518191504889 0.00018685707992768 -4.94636365280202e-05
"299" -7.64262230721916e-05 -6.55447985113063e-05 -8.89014066463287e-05 0.000153524582932064 -0.000104552884148775 -7.80418603408786e-05 -0.000369873204489297 -1.064191465872e-05 -0.00033600780525594 -2.29496270574176e-05 4.45767079101678e-07 -9.43446514029993e-05 -0.000178657779830445 0.000185232770715474 0.000181617947845587 -6.30705571436215e-05
"300" -7.32775990102436e-05 -7.24818515271581e-05 -8.93014444090974e-05 0.000155372787010643 -0.000102881938765348 -8.35127650177076e-05 -0.000387730155762634 -1.38277981173269e-05 -0.000368312796721759 -2.20449677169088e-05 -3.51826593287503e-06 -9.80729786153679e-05 -0.00018152641459656 0.000182701889981027 0.000176347906759763 -7.74229166128614e-05
"301" -6.95213729018072e-05 -7.93891024576586e-05 -8.9273685944275e-05 0.000157041977579973 -0.000100698277694781 -8.86160060796251e-05 -0.000405341143977819 -1.74029793927904e-05 -0.00039969999821516 -2.03867383659018e-05 -6.57077301741048e-06 -0.000101611933675939 -0.000184268919590505 0.000179948934142044 0.000171120799213698 -9.23881958556957e-05
"302" -6.52080139477639e-05 -8.62013941546631e-05 -8.881840306199e-05 0.000158516218133071 -9.79788776890931e-05 -9.32978762296587e-05 -0.000422560822684562 -2.13646102324499e-05 -0.000429865954506481 -1.79347383993862e-05 -8.64166264710338e-06 -0.000104921195604724 -0.000186880956146348 0.000176991619374406 0.00016601398503222 -0.000107823841056334
"303" -6.03889883175857e-05 -9.28518351607421e-05 -8.79422579784755e-05 0.000159782899284803 -9.47060790713029e-05 -9.75099738902903e-05 -0.000439229092068876 -2.57045308304964e-05 -0.000458503258129156 -1.46498482655886e-05 -9.66627757048885e-06 -0.000107965058585452 -0.00018935142495396 0.000173853912560945 0.000161102127105463 -0.00012359276755784
"304" -5.51189633786697e-05 -9.92718737987331e-05 -8.66598053905052e-05 0.00016082089251982 -9.08607078679415e-05 -0.000101201914838459 -0.000455187411184421 -3.04076740272733e-05 -0.000485327123607006 -1.05037003973867e-05 -9.59181448817502e-06 -0.000110705478842995 -0.000191682046297041 0.000170547681260467 0.00015644517246866 -0.000139572532834677
"305" -4.94770235606605e-05 -0.000105401613031336 -8.49841646259155e-05 0.000161617819007848 -8.64357183361579e-05 -0.000104335184112463 -0.000470294945413477 -3.54600725243177e-05 -0.000510053807691065 -5.47982882797178e-06 -8.37394691531347e-06 -0.000113109354755657 -0.000193872442304317 0.000167078385606718 0.000152107121674894 -0.000155642911717642
"306" -4.35246131881847e-05 -0.00011117428684965 -8.29328417572106e-05 0.000162160023873199 -8.14191747543627e-05 -0.000106862169635092 -0.000484383597491213 -4.08297211859012e-05 -0.000532416784432621 4.34607315156986e-07 -5.98449092700855e-06 -0.000115135171568485 -0.000195917130294347 0.00016346192696114 0.000148145296469757 -0.000171677512843582
"307" -3.7356684481709e-05 -0.000116534192121194 -8.05313113101311e-05 0.000162428540734712 -7.58212755956527e-05 -0.000108754301194287 -0.00049732378361342 -4.64952445346039e-05 -0.000552166628693688 7.23324095787582e-06 -2.40396913606257e-06 -0.000116754473492959 -0.000197823466671446 0.000159689411058294 0.00014460873287825 -0.0001875706556909
"308" -3.10509230768198e-05 -0.000121426786496933 -7.78048604315661e-05 0.000162413523207159 -6.96390745494819e-05 -0.000109970166158167 -0.000508962363184436 -5.24125039690887e-05 -0.000569077537505108 1.49047424457399e-05 2.36191285503422e-06 -0.00011792700458786 -0.000199583037680901 0.000155754908090846 0.000141546692663231 -0.000203217310815568
"309" -2.47059619748825e-05 -0.000125794548081305 -7.47858554891176e-05 0.000162102782296328 -6.28859097772767e-05 -0.000110486467464648 -0.000519167623936736 -5.8542533052634e-05 -0.000582947095227609 2.34183623252756e-05 8.30287548113598e-06 -0.000118619647552393 -0.000201198610604225 0.000151645518200827 0.000139000542110704 -0.000218519006592807
"310" -1.84311624451683e-05 -0.000129599206040177 -7.15120552524323e-05 0.000161480251618987 -5.55886251484939e-05 -0.000110277964513062 -0.0005278191707484 -6.48445656989551e-05 -0.000593601393764043 3.2731260407304e-05 1.53766134348849e-05 -0.000118796992082237 -0.000202666122601194 0.000147331610623166 0.000137011972177214 -0.000233377782453451
"311" -1.23197484861216e-05 -0.000132789608495774 -6.80208849828965e-05 0.000160540508251146 -4.7766865658873e-05 -0.000109330237960825 -0.000534799294074707 -7.12607713962573e-05 -0.000600894775208951 4.27865936710633e-05 2.35436932284992e-05 -0.000118425225180921 -0.000203976769405572 0.000142790343552326 0.000135613258712202 -0.000247706266179912
"312" -6.48820853131824e-06 -0.000135338926571095 -6.43601814445973e-05 0.000159269363845001 -3.94629754242538e-05 -0.000107630259104014 -0.000540011316730605 -7.7743744376483e-05 -0.000604711801774078 5.3516044037665e-05 3.27334996582061e-05 -0.000117474775445436 -0.000205126265816021 0.000137994008967099 0.000134843449133757 -0.000261421663700258
"313" -1.04489136864034e-06 -0.000137211386512774 -6.05683082256468e-05 0.000157664265540788 -3.07092658505977e-05 -0.000105169406294357 -0.000543349423288034 -8.42285944563708e-05 -0.000604968947474098 6.48399461934387e-05 4.28665610979959e-05 -0.000115906644826289 -0.000206093359513044 0.000132915264313639 0.000134735481977838 -0.00027443526587429
"314" 3.90153032173087e-06 -0.000138384092710091 -5.67043056772207e-05 0.000155715915803095 -2.1563402325547e-05 -0.000101951852830353 -0.000544746732951159 -9.06602229946068e-05 -0.000601618277448768 7.66628098869184e-05 5.38506074647935e-05 -0.000113696118590537 -0.00020687027715165 0.00012752058103734 0.000135316992336611 -0.000286673697759878
"315" 8.23029169395094e-06 -0.000138842528569018 -5.2817105288022e-05 0.000153421590854281 -1.20745986199093e-05 -9.79755694475062e-05 -0.000544133361856615 -9.69711228710351e-05 -0.000594647864593837 8.888049989607e-05 6.55754418040089e-05 -0.000110806746107851 -0.000207428528428185 0.000121786635063145 0.000136622379003196 -0.000298058581808451
"316" 1.18419035180521e-05 -0.000138577949753067 -4.89659761739627e-05 0.000150770200291149 -2.30831190739343e-06 -9.32646596223878e-05 -0.000541466988223524 -0.000103101415897956 -0.000584077820430294 0.000101384509918185 7.79288423398255e-05 -0.000107216109562403 -0.000207748935498672 0.000115698670177638 0.000138669227015625 -0.000308526801798236
"317" 1.46210157277186e-05 -0.000137583072826952 -4.52024526122406e-05 0.000147765305674334 7.66949327423759e-06 -8.78278006413943e-05 -0.000536711080556924 -0.00010897847055222 -0.00056995784052065 0.000114059775313183 9.07857698598753e-05 -0.000102895566593269 -0.000207803148310827 0.000109255413175381 0.00014148665077947 -0.000318006113421406
"318" 1.64635527045001e-05 -0.000135872159495504 -4.1587802017645e-05 0.000144403590215553 1.77855519064817e-05 -8.16974356710586e-05 -0.000529852877470867 -0.000114544809257417 -0.000552373706108555 0.00012678670546129 0.000104018185334695 -9.78256289957984e-05 -0.000207559203816457 0.000102471344721852 0.000145097208193679 -0.000326431791553156
"319" 1.72839687794271e-05 -0.000133447672175849 -3.81805921907291e-05 0.000140680310979946 2.79658235558932e-05 -7.48980117763706e-05 -0.000520882942769271 -0.000119731567498068 -0.000531452600888722 0.000139442771230655 0.000117496731098421 -9.19849702321407e-05 -0.000206988611160578 9.53572024047335e-05 0.000149511859106659 -0.000333757443340657
"320" 1.69868225575391e-05 -0.000130333052377255 -3.50307792349695e-05 0.000136600816284494 3.81346349006023e-05 -6.74689513722256e-05 -0.000509826264889834 -0.000124471574184604 -0.000507332473802331 0.000151914219133086 0.000131087872468202 -8.53593028703932e-05 -0.000206058118231954 8.79662667540035e-05 0.000154743624151895 -0.000339923590990266
"321" 1.54945774432902e-05 -0.000126556843091682 -3.22030229086122e-05 0.000132154532276225 4.82035741542349e-05 -5.94601156523539e-05 -0.000496716059059785 -0.000128713587748826 -0.00048019180891026 0.000164083456924019 0.000144664412452995 -7.79439063971315e-05 -0.000204738804279834 8.03524691493332e-05 0.000160799297161318 -0.000344896257250385
"322" 1.27433419277167e-05 -0.000122146783745518 -2.97436638237591e-05 0.000127351086764648 5.80973914225938e-05 -5.09124268527461e-05 -0.000481600044245514 -0.000132389887066592 -0.000450231655567237 0.000175844173811056 0.000158109275596192 -6.97295836419012e-05 -0.000202998830182643 7.25966369413351e-05 0.000167674428785523 -0.00034864062317996
"323" 8.67251705019081e-06 -0.000117151945552899 -2.77068111204922e-05 0.000122183659455003 6.77327027090183e-05 -4.18874610170251e-05 -0.000464555635720042 -0.000135452827882263 -0.000417673529239779 0.000187090841461474 0.000171297137475606 -6.07248252123376e-05 -0.000200808856204211 6.47899168503146e-05 0.000175363519510113 -0.0003511296749604
"324" 3.24445207154982e-06 -0.000111607229465096 -2.613130377391e-05 0.00011665895501785 7.70282845293131e-05 -3.24385496292104e-05 -0.000445654775010869 -0.000137847647197062 -0.00038276172215516 0.000197736925012188 0.000184128792576226 -5.09352678798029e-05 -0.000198147184057013 5.70314513226043e-05 0.000183849698882197 -0.000352344832420667
"325" -3.57350470852296e-06 -0.000105569806122948 -2.50635730695159e-05 0.000110778132237098 8.5907754936574e-05 -2.2634913929246e-05 -0.000425003646202468 -0.000139529129911297 -0.000345756830996655 0.000207692889921469 0.000196496346670552 -4.03765910755692e-05 -0.000194990589631411 4.94397670341064e-05 0.000193108853355214 -0.000352282753237061
"326" -1.17927833496207e-05 -9.90904106245097e-05 -2.45445981377308e-05 0.000104543847504878 9.42926584569415e-05 -1.25398305182455e-05 -0.000402719800661161 -0.000140459405152513 -0.000306939797603122 0.00021688861625721 0.000208315023404719 -2.90715552390229e-05 -0.000191324270682846 4.21294343758932e-05 0.000203103863334491 -0.00035095441240864
"327" -2.14206676971656e-05 -9.22311199399774e-05 -2.46020644211741e-05 9.795432417786e-05 0.000102108555416247 -2.22709797246307e-06 -0.000378931360049202 -0.000140602580170024 -0.000266593013429527 0.000225257064128875 0.000219503300862497 -1.70496632802771e-05 -0.000187139706760857 3.52197385535837e-05 0.000213789078742104 -0.000348371732301479
"328" -3.24415922513061e-05 -8.50512360868555e-05 -2.52634440974856e-05 9.1024267250985e-05 0.000109294463655699 8.22895747578872e-06 -0.000353783575551009 -0.000139926887747476 -0.000225016767608583 0.000232751326502459 0.000229992927162427 -4.34849225865141e-06 -0.000182430040326569 2.88367461121516e-05 0.000225113518839322 -0.00034456310526779
"329" -4.48294076759528e-05 -7.76237619155088e-05 -2.6553310107742e-05 8.37487652450306e-05 0.000115776289572429 1.87517696032436e-05 -0.000327435521444375 -0.000138418731484998 -0.000182519263132372 0.000239322429485682 0.000239722159844228 8.98729144819339e-06 -0.000177199369945283 2.30812410860248e-05 0.000237012386356594 -0.000339572223295767
"330" -5.85468362756188e-05 -7.00103484613197e-05 -2.84853779894832e-05 7.61413205421866e-05 0.000121501047955919 2.92628325769732e-05 -0.000300051667945729 -0.000136056994035606 -0.000139401973533763 0.00024493988812109 0.000248648503938596 2.29117233749698e-05 -0.000171458402821216 1.80624218257729e-05 0.000249406587652585 -0.000333448581419433
"331" -7.35356756859899e-05 -6.22809426982684e-05 -3.10684768493263e-05 6.82088009144967e-05 0.000126414192616114 3.9685280187701e-05 -0.000271814526911414 -0.000132838293947313 -9.59754102338163e-05 0.000249579994556683 0.000256722250249804 3.73644424231954e-05 -0.000165220715414677 1.38529582807739e-05 0.000262217165960847 -0.00032625238928524
"332" -8.97296259354239e-05 -5.45027397369678e-05 -3.43075462198637e-05 5.99627986584452e-05 0.000130473682042553 4.99412608409354e-05 -0.000242910359160806 -0.000128761070203919 -5.254491242043e-05 0.000253226784630141 0.000263921323444346 5.22848998292334e-05 -0.000158513048101269 1.05362037556132e-05 0.000275347443302011 -0.000318064966484905
"333" -0.000107058460482629 -4.67533978212154e-05 -3.81983308084701e-05 5.14117642700692e-05 0.000133634737635326 5.99452514327481e-05 -0.000213537637960692 -0.000123837643019684 -9.40514524416819e-06 0.000255874673728538 0.00027022158730547 6.75996120153399e-05 -0.000151366419074118 8.16306734440487e-06 0.000288694781061111 -0.000308968392152322
"334" -0.00012541923653353 -3.90908738794999e-05 -4.27329082405732e-05 4.25750208842245e-05 0.0001358709327244 6.96318577975194e-05 -0.000183890364252377 -0.000118078012944047 3.31451245909435e-05 0.000257527269388923 0.00027560933551385 8.32384180972682e-05 -0.00014382081597455 6.75825026125174e-06 0.000302141711776851 -0.000299061558430845
"335" -0.000144727853552402 -3.15912290529009e-05 -4.78995485811045e-05 3.34623298954012e-05 0.000137153744508626 7.89165260189073e-05 -0.000154182241120614 -0.000111516148638661 7.48336938436754e-05 0.000258190315106077 0.000280081590799356 9.91159224763654e-05 -0.000135921668645411 6.34506127975492e-06 0.000315572030636399 -0.000288454306890822
"336" -0.00016486360596518 -2.43164773229132e-05 -5.36741513320551e-05 2.40929031434314e-05 0.000137471893188616 8.77352137687353e-05 -0.000124613893018897 -0.000104175938821227 0.000115392416546769 0.000257881044967254 0.000283635226646235 0.000115151157916597 -0.00012772213524256 6.91086586341297e-06 0.000328856946736235 -0.00027725399513849
"337" -0.000185706057389386 -1.73211412029461e-05 -6.00255779911486e-05 1.44928407792352e-05 0.000136820141909002 9.60193086764014e-05 -9.53921258142846e-05 -9.60955623460621e-05 0.00015457115762612 0.000256624191808492 0.000286289689713661 0.000131259470118891 -0.000119278300036913 8.43664531322443e-06 0.000341864526019478 -0.000265586976420697
"338" -0.000207136263667545 -1.06724407769693e-05 -6.69313850904222e-05 4.67643004285177e-06 0.000135201365149362 0.000103703965455917 -6.6722557732603e-05 -8.73316731507463e-05 0.0001921398990203 0.000254448314977213 0.000288054179481448 0.000147343977801714 -0.000110655746205781 1.08764955478108e-05 0.000354453431189896 -0.000253585096194766
"339" -0.000229016377640238 -4.42305637832178e-06 -7.43477124776328e-05 -5.33102684626581e-06 0.00013262641843307 0.000110736476601033 -3.88091486730238e-05 -7.79362253522976e-05 0.000227886172941036 0.000251385403259965 0.000288958981786961 0.000163312728060806 -0.000101917494731423 1.41753461034123e-05 0.000366486615684682 -0.000241379898618117
"340" -0.000251206378508587 1.38662955523214e-06 -8.22312332979846e-05 -1.54947761901625e-05 0.000129119042981771 0.000117064527338363 -1.18330323555806e-05 -6.79639575804941e-05 0.000261622115894991 0.00024748109933327 0.000289032937963297 0.00017907275790677 -9.31325485974403e-05 1.82657656522943e-05 0.000377825110420627 -0.000229101478816525
"341" -0.000273561381565248 6.70120691085988e-06 -9.05342145587677e-05 -2.5794202948423e-05 0.000124707314869912 0.000122645275039352 1.40086147020949e-05 -5.7495336497306e-05 0.000293181463659578 0.000242776182613565 0.000288311817808439 0.000194529424575656 -8.43685957110697e-05 2.30627012324786e-05 0.000388329883056097 -0.000216886088918984
"342" -0.000295940295017252 1.14899561976403e-05 -9.92051787040244e-05 -3.61967358006919e-05 0.000119433362711986 0.000127442714500892 3.85481930946154e-05 -4.65946103051941e-05 0.000322420795521041 0.000237322219746259 0.00028683947128043 0.000209588590366357 -7.56961847011416e-05 2.84727556900768e-05 0.000397868320231628 -0.000204862666716732
