"V1" "V2" "V4" "V5" "V7" "V8" "V10" "V11" "V13" "V14" "V15" "V17" "V18" "V20" "V21" "V23"
"1" -0.0005971003283384 -0.000456560186745912 -0.000418174503296075 -0.000256029510555207 -0.000328289167957513 -0.000348914930752105 -0.000704698981200202 -0.000301031846446033 -0.000459119163067077 -0.000425574613089403 -0.000501414914236113 -0.000460383210361133 -0.00049510403937911 -0.000577041283726746 -0.000120637830664538 -0.000425579271559538
"2" -0.000616533214324172 -0.000479521172736896 -0.000423722003740895 -0.000258258300713157 -0.000331363019885871 -0.000348325938183827 -0.000703717429765085 -0.000309621676295407 -0.000458591725544466 -0.000418313306271873 -0.00049462341513305 -0.000448162118595135 -0.000487486224653415 -0.000571862574024885 -0.000112271659445819 -0.000395995898041609
"3" -0.000637119880456565 -0.000502438067151289 -0.000428356953200307 -0.00025983799243934 -0.000333814969334256 -0.000347644768155898 -0.000701993819508259 -0.000318493808931037 -0.000457812869911241 -0.000411736373409967 -0.000488940605783801 -0.000436900733880431 -0.00048043611560957 -0.000567896310153436 -0.000105170765069993 -0.000368299962626224
"4" -0.000658618171482884 -0.000524983379558306 -0.000432047089471691 -0.000260727235014762 -0.00033564006272056 -0.00034687017260371 -0.000699524207512465 -0.000327523596062547 -0.000456722129233898 -0.000405878930907665 -0.000484377155904835 -0.000426668429130907 -0.000473955544385605 -0.000565161943788933 -9.9339797949064e-05 -0.000342729617648756
"5" -0.000680793139869112 -0.000546852328522256 -0.000434769916377795 -0.000260897434555344 -0.000336850129683456 -0.000346000998374042 -0.000696316898439407 -0.000336589154983338 -0.000455259033450229 -0.000400758583527648 -0.000480924512288806 -0.000417518524333761 -0.000468036640402227 -0.000563656704204022 -9.47690365785476e-05 -0.000319490874540556
"6" -0.000703420454943363 -0.000567766942813962 -0.000436518703461303 -0.000260331824108455 -0.00033745589426189 -0.000345033504017676 -0.000692377883017799 -0.000345581797166991 -0.000453371049797925 -0.000396388716453705 -0.000478561849776631 -0.00040948613204236 -0.000462669820620392 -0.000563354228902972 -9.14288998024395e-05 -0.000298765609660349
"7" -0.000726271391958554 -0.000587486670949931 -0.000437288668379058 -0.000259017233901686 -0.000337469807861597 -0.000343965258933263 -0.000687722142504704 -0.000354386711287444 -0.000451004420819924 -0.000392766608412087 -0.000477250528875503 -0.000402587239998547 -0.000457831805464132 -0.000564214385355203 -8.92793423414511e-05 -0.000280700100896391
"8" -0.000749140633442622 -0.000605800120092737 -0.000437092438699802 -0.000256956657796228 -0.000336909071973063 -0.000342788523335404 -0.000682368183839643 -0.000362910582494756 -0.000448113988513932 -0.000389886336549256 -0.000476948714865966 -0.000396820822675325 -0.000453503135448062 -0.000566169572352662 -8.82635495202745e-05 -0.000265415681141526
"9" -0.00077181837354451 -0.000622518945917391 -0.000435947382146843 -0.000254159699541892 -0.000335804714153189 -0.000341500035770624 -0.000676342015577675 -0.000371062178123507 -0.000444653871192303 -0.000387723570530863 -0.000477587575227019 -0.000392171653551585 -0.000449643826761407 -0.00056913533899076 -8.83112177939495e-05 -0.000252998298883848
"10" -0.000794121914414634 -0.000637500362318351 -0.000433881795886916 -0.000250644059041951 -0.0003341818976704 -0.000340094960579077 -0.000669669749226631 -0.00037876004521706 -0.000440592891658981 -0.000386248814092652 -0.000479100315275348 -0.000388601520685284 -0.000446225441149229 -0.000573015163106885 -8.93433533278414e-05 -0.000243501833669952
"11" -0.000815865288403419 -0.000650618322402723 -0.000430931717127402 -0.000246436801491797 -0.00033207713926314 -0.000338569668375897 -0.000662384740131242 -0.000385939389074021 -0.0004359029142335 -0.000385422017668178 -0.000481399348399236 -0.000386067019392926 -0.000443203902961956 -0.000577697581084048 -9.12696243095931e-05 -0.000236942851546673
"12" -0.000836890644889995 -0.000661787608413121 -0.000427142919041449 -0.000241575915069812 -0.000329532123611189 -0.000336922963430604 -0.000654521989656892 -0.000392541724633485 -0.000430562141642216 -0.000385197929470517 -0.000484396981398736 -0.000384502737514415 -0.000440542130985078 -0.000583056912263737 -9.39896516078326e-05 -0.000233312506405843
"13" -0.00085704301074985 -0.000670938298165048 -0.000422563300272969 -0.000236101028240432 -0.000326589467619652 -0.000335152150280028 -0.000646121706896642 -0.000398521750046953 -0.000424557030571922 -0.000385517924975603 -0.000487993198316161 -0.000383837690162948 -0.000438197967815021 -0.000588961776878866 -9.73979589872195e-05 -0.000232562533752107
"14" -0.000876194011996735 -0.000678042757750472 -0.00041725577243501 -0.000230061854773127 -0.000323298736304549 -0.00033325806752301 -0.000637226970524959 -0.000403850578825576 -0.000417887208081775 -0.000386321285246192 -0.000492086151837727 -0.000383982061234448 -0.000436123195210854 -0.000595268313554283 -0.00010138197838957 -0.000234615822298799
"15" -0.000894218171034628 -0.000683084824850741 -0.000411277181456014 -0.000223514703960843 -0.00031971617432787 -0.000331242402485138 -0.000627884725771934 -0.000408501154762944 -0.000410553142019255 -0.000387542766806002 -0.000496561642064437 -0.00038484182868231 -0.000434273829765487 -0.000601830630315856 -0.000105831210952928 -0.000239368213425201
"16" -0.000911015953997435 -0.000686086832580116 -0.000404701056398952 -0.000216517022021559 -0.00031589388769231 -0.00032911027594998 -0.000618144338816021 -0.00041246941773754 -0.000402569923261169 -0.000389106480075446 -0.000501313826895269 -0.000386311431794567 -0.000432611661373313 -0.00060850407481568 -0.000110623826821165 -0.000246683024109089
"17" -0.000926494588561431 -0.000687079868804157 -0.000397591702244573 -0.000209133088424615 -0.000311894574425264 -0.000326868729894244 -0.000608054013595805 -0.000415755734811481 -0.000393957141344178 -0.000390937084061762 -0.000506223861233573 -0.000388278405612765 -0.000431090459229069 -0.000615134785295601 -0.000115641024418888 -0.000256399114288538
"18" -0.000940581659682066 -0.000686124688972476 -0.000390028531892006 -0.000201426915637903 -0.000307775656047377 -0.000324522032249582 -0.000597666153399056 -0.000418376982605766 -0.000384741181068459 -0.000392954037000083 -0.000511178243901026 -0.000390624638992626 -0.00042967021884211 -0.000621574509437764 -0.000120766168443942 -0.000268333810194153
"19" -0.000953221875260702 -0.000683302234454086 -0.000382085902313983 -0.000193468277607775 -0.000303603157585037 -0.000322082784262749 -0.000587032890125668 -0.000420352764352638 -0.000374954834237776 -0.000395077870172283 -0.000516067702955348 -0.000393227214367116 -0.000428310941334229 -0.000627675472546441 -0.000125884085694326 -0.000282279298378136
"20" -0.000964366976889747 -0.000678711128138383 -0.00037383732909479 -0.000185322000161561 -0.000299436651941868 -0.000319558626291548 -0.000576202545478813 -0.000421716683735456 -0.000364637513197925 -0.000397224188111157 -0.000520776603435493 -0.000395957082652202 -0.000426975020528813 -0.000633301021880659 -0.000130877649113792 -0.00029801105576352
"21" -0.000973988452900025 -0.000672464784381769 -0.000365357151667888 -0.000177057508614565 -0.000295339637765798 -0.00031696188948878 -0.00056522711795926 -0.000422511967458635 -0.000353837823572029 -0.000399311448690722 -0.000525198410552222 -0.000398688562818745 -0.000425629352101255 -0.000638311775199527 -0.000135638292025378 -0.000315292024123664
"22" -0.000982076853059697 -0.000664693700704566 -0.000356721297972612 -0.000168742559796145 -0.000291369441844002 -0.000314306022342242 -0.000554156772120058 -0.000422786692200604 -0.000342603285458101 -0.000401255585688044 -0.00052923164753066 -0.000401287170815168 -0.000424235685048512 -0.000642582064795746 -0.000140061817482097 -0.000333865088744636
"23" -0.000988624117257148 -0.000655541538623314 -0.000348001894847368 -0.000160436442688834 -0.000287583220165981 -0.000311602746839917 -0.000543037862961316 -0.0004225949009372 -0.00033098322876491 -0.00040298034029583 -0.000532774677347165 -0.000403623519511929 -0.000422763050026241 -0.000645990911327759 -0.000144043946044234 -0.000353469573767755
"24" -0.000993639968909901 -0.000645165543664222 -0.00033926420887112 -0.000152204104413457 -0.00028403549318843 -0.00030886319469547 -0.000531908995014761 -0.00042199546611383 -0.000319031533441019 -0.000404402510809545 -0.00053573857555876 -0.000405568461792459 -0.00042118333150297 -0.000648429169519163 -0.000147493571147808 -0.000373834811767072
"25" -0.000997147995271831 -0.000633730715420718 -0.000330577666001357 -0.0001441015340801 -0.000280769088374293 -0.000306101040490072 -0.000520814728164316 -0.000421051596563021 -0.000306805184898782 -0.000405450518838718 -0.000538036816607199 -0.00040699366040953 -0.00041946596059659 -0.00064980146234792 -0.000150321778308035 -0.000394685186011148
"26" -0.000999177715810937 -0.000621408537293866 -0.000321998044928149 -0.000136179751687143 -0.000277833001791319 -0.000303327688734691 -0.00050978795613962 -0.000419829786360791 -0.000294356382343188 -0.000406053063314838 -0.00053959495811913 -0.00040777585034806 -0.000417587814818734 -0.000650015930921751 -0.000152449932674987 -0.000415745064933543
"27" -0.000999768870420599 -0.000608379581620711 -0.000313582144057482 -0.000128487440444335 -0.00027525730597699 -0.00030055256791587 -0.000498857995601642 -0.000418398158269631 -0.00028173995253965 -0.000406145436966269 -0.000540339627027654 -0.000407792969385164 -0.000415523562633782 -0.000648999372978021 -0.000153806500261186 -0.000436736699980092
"28" -0.000998976033557052 -0.000594829659571636 -0.000305382165236702 -0.000121064276589367 -0.000273073552213258 -0.000297785549616977 -0.000488054646414254 -0.00041682230172542 -0.000269005033897647 -0.000405665570015234 -0.000540212639380668 -0.000406929937353186 -0.000413246203814193 -0.000646689375797403 -0.000154325301071275 -0.000457386130842894
"29" -0.000996847431457118 -0.000580939232517472 -0.000297438011170942 -0.000113947586947251 -0.000271306913182823 -0.000295035788237 -0.000477390015869829 -0.000415166525552566 -0.000256198414159501 -0.000404557817824205 -0.000539162177754153 -0.000405078445843053 -0.000410736700723917 -0.000643034927597031 -0.000153951500466541 -0.000477427963203065
"30" -0.000993448094230355 -0.000566889594193108 -0.000289791049759334 -0.000107166160315538 -0.000269967031448145 -0.000292308400727678 -0.000466879698194273 -0.000413500117283917 -0.000243366246795316 -0.000402774683875992 -0.000537147527774458 -0.000402136035944277 -0.000407975424005829 -0.000638001062298908 -0.000152638445762376 -0.000496600238286499
"31" -0.000988838278310595 -0.000552858125814511 -0.000282475249619997 -0.000100742912311057 -0.000269065921932161 -0.000289610319337509 -0.000456535462685939 -0.000411881965220592 -0.000230547990188821 -0.000400272464664739 -0.000534134897103374 -0.000398009993161423 -0.000404943170065512 -0.000631563003528692 -0.000150350999696442 -0.000514647615837808
"32" -0.000983090453926864 -0.000539015515190769 -0.000275513506549326 -9.46958083696865e-05 -0.000268600228374032 -0.000286944872837475 -0.000446356011895949 -0.000410369507708361 -0.000217776720405614 -0.000397014442748917 -0.000530101441456042 -0.000392614335947146 -0.000401617271380892 -0.000623711728191627 -0.000147057955712904 -0.000531330223361937
"33" -0.000976273112816545 -0.000525521700819557 -0.000268931755692157 -8.90370208452774e-05 -0.000268565635115071 -0.000284315874933258 -0.000436334212362255 -0.000409017781566923 -0.000205089416971556 -0.000392975796008777 -0.000525033049650703 -0.000385876981710873 -0.000397984243168149 -0.000614449958810673 -0.000142739870943532 -0.000546418209632288
"34" -0.000968449409504833 -0.00051252360163895 -0.000262740036693743 -8.37709851308118e-05 -0.000268948706425801 -0.000281723793317426 -0.000426465269566415 -0.000407870703014879 -0.000192503287896382 -0.000388132000089863 -0.00051892648865533 -0.000377729897556521 -0.000394031086175398 -0.000603793410752641 -0.000137389026838189 -0.000559691158554454
"35" -0.000959690066368614 -0.000500153004812855 -0.000256953713784315 -7.88977464108932e-05 -0.000269724140410941 -0.000279171660671889 -0.000416733252110431 -0.000406980229541791 -0.000180043726308263 -0.000382470414492621 -0.000511785998758773 -0.000368126530257434 -0.000389741046042804 -0.000591775254836346 -0.000131004719985067 -0.000570950631778061
"36" -0.000950057121635985 -0.000488522254841234 -0.000251573026814251 -7.44155748934121e-05 -0.000270871619654781 -0.000276657110565111 -0.000407112234373813 -0.000406378296684915 -0.00016772529962534 -0.000375984261013599 -0.000503627601664848 -0.00035702571223053 -0.000385103304069003 -0.000578438477462353 -0.000123595230410127 -0.000580008883989782
"37" -0.0009396127977175 -0.000477732548579379 -0.000246600221988627 -7.03144771986128e-05 -0.000272355421628322 -0.000274183073525671 -0.000397583138615217 -0.000406097320201447 -0.000155558526582336 -0.000368673548694751 -0.000494475519778785 -0.000344400911484001 -0.000380109777083957 -0.000563836103451465 -0.000115183549859085 -0.000586697975083983
"38" -0.000928405609167746 -0.000467852707465386 -0.000242031148282279 -6.65807224032578e-05 -0.000274140754792176 -0.000271745165777931 -0.000388113803647421 -0.000406165429470987 -0.000143552533294027 -0.000360546151134627 -0.000484361430248229 -0.000330243579724428 -0.000374755716149782 -0.000548045200744366 -0.00010579462490446 -0.000590870952146339
"39" -0.000916491285176547 -0.000458937534322556 -0.00023785757119409 -6.32007461808739e-05 -0.000276186635799186 -0.000269346364778156 -0.000378673087804317 -0.000406604780513307 -0.000131708742168441 -0.000351619342060336 -0.00047332564296469 -0.000314553936556718 -0.000369032439492223 -0.000531139709156768 -9.54691590549615e-05 -0.000592390520615194
"40" -0.000903908997729365 -0.00045101727398749 -0.000234068761741187 -6.01563006324469e-05 -0.000278453928325416 -0.0002669851560847 -0.000369227972528924 -0.000407427053580408 -0.000120028076646946 -0.000341917845843582 -0.000461419189388754 -0.000297353216964646 -0.000362939652948037 -0.000513214117049334 -8.42516775995451e-05 -0.000591157007463739
"41" -0.000890699015675966 -0.000444103593612627 -0.000230647126136096 -5.74276777852659e-05 -0.000280889057347084 -0.000264661978692098 -0.000359742006870127 -0.000408639818685091 -0.000108507858460153 -0.000331466753347528 -0.000448698635784355 -0.000278673102105395 -0.00035648122558805 -0.000494373264025535 -7.22028397868413e-05 -0.000587075862110865
"42" -0.000876890163443273 -0.000438176765856162 -0.000227581079731644 -5.499200813189e-05 -0.000283447003346834 -0.000262375231986171 -0.000350173075016196 -0.000410249609908764 -9.71449086478596e-05 -0.000320305926371657 -0.0004352264246224 -0.000258560161147783 -0.00034966048936484 -0.000474729263891228 -5.93821862507881e-05 -0.000580084145585415
"43" -0.000862508614810646 -0.00043321078766228 -0.000224844220778779 -5.28288950434878e-05 -0.000286079758012461 -0.000260125854309319 -0.000340492065821837 -0.000412251720408877 -8.59318852744277e-05 -0.00030847911904132 -0.000421075926616785 -0.000237081627225563 -0.00034248589573981 -0.000454407625882553 -4.58683289758386e-05 -0.000570144650006858
"44" -0.000847565967016727 -0.000429145340721225 -0.000222417651890992 -5.09150265026234e-05 -0.000288728533540906 -0.000257914834346607 -0.000330649631685556 -0.000414637612491463 -7.48602240083088e-05 -0.000296033404674208 -0.000406323932225084 -0.000214313534518834 -0.000334966435091078 -0.000433535753642778 -3.17363783180334e-05 -0.000557239069177984
"45" -0.000832080075747355 -0.000425911187020551 -0.000220278130700458 -4.92274684030848e-05 -0.000291347943650802 -0.000255740804346883 -0.000320619497678665 -0.00041739626115758 -6.39225781867218e-05 -0.000283026153388027 -0.00039105407484864 -0.000190349302937234 -0.000327120091165953 -0.000412252838247638 -1.70768134163894e-05 -0.00054137894194988
"46" -0.000816059860960647 -0.000423429573974771 -0.000218398583527347 -4.77464749169795e-05 -0.000293878546887446 -0.000253604640303835 -0.000310360477664787 -0.000420509963608342 -5.31112712933586e-05 -0.00026951544837936 -0.000375352390112533 -0.000165289585617435 -0.00031895936863262 -0.000390696537986002 -1.98115667125911e-06 -0.000522601783228347
"47" -0.000799503093512083 -0.000421596606355738 -0.000216751470109027 -4.64502786112428e-05 -0.000296269145131467 -0.000251503942284263 -0.00029984299318833 -0.000423953974289013 -4.24188868712184e-05 -0.000255567426561082 -0.000359312731589511 -0.000139256873964885 -0.000310508077664413 -0.000369021559290422 1.34547197117698e-05 -0.000500967974607041
"48" -0.000782420365657944 -0.000420311145864387 -0.000215310552382591 -4.53188303155447e-05 -0.000298466882327956 -0.000249439416744422 -0.000289034429400058 -0.000427701171088603 -3.18320244204813e-05 -0.000241249835646268 -0.000343029416806998 -0.000112374791534348 -0.000301785495384475 -0.000347371914202956 2.91263700378313e-05 -0.000476569752158465
"49" -0.000764812786676256 -0.000419460835988781 -0.000214044661850117 -4.43362495267996e-05 -0.000300411518031538 -0.000247408432880653 -0.000277910500684841 -0.00043171975574655 -2.13450424774807e-05 -0.000226635643877838 -0.000326600760023262 -8.47843397577252e-05 -0.000292816139406782 -0.000325897660750637 4.4929885673599e-05 -0.000449522993662897
"50" -0.000746676701513638 -0.000418929393427075 -0.000212931626290126 -4.34849064924159e-05 -0.000302057572231763 -0.000245406771798075 -0.00026644445513385 -0.000435974129986495 -1.09492773726991e-05 -0.000211800307488898 -0.000310123593545344 -5.66281899681347e-05 -0.000283621594812616 -0.0003047479000885 6.07611458888893e-05 -0.000419971106595553
"51" -0.000728020397527568 -0.000418606293417371 -0.000211936100746738 -4.27524937642681e-05 -0.00030334670204498 -0.000243430310148241 -0.000254617274805463 -0.000440422298099621 -6.33891769892061e-07 -0.000196818497814715 -0.000293697623021605 -2.80577495834171e-05 -0.00027423024210623 -0.000284066213501507 7.65107745887608e-05 -0.00038808491638149
"52" -0.00070884983711835 -0.000418374062801819 -0.000211033158048736 -4.21272136856686e-05 -0.000304228015887288 -0.000241471966437344 -0.000242415822099498 -0.000445016641198919 9.60677034333463e-06 -0.000181768247956951 -0.000277422964574262 7.69959145959772e-07 -0.000264664092394966 -0.000263994851445394 9.20757972646814e-05 -0.000354058769370199
"53" -0.000689178811227734 -0.000418134776482848 -0.000210192184955246 -4.15998869375569e-05 -0.000304652353080739 -0.000239522052495788 -0.000229823621799258 -0.000449714381349518 1.97833335856403e-05 -0.000166724862123633 -0.000261394427559659 2.96978888300139e-05 -0.000254948764382887 -0.000244673131497089 0.00010734956299309 -0.000318111476134831
"54" -0.000669020737649824 -0.000417781763949078 -0.000209385999630561 -4.11644424946311e-05 -0.000304567625182079 -0.000237574410452123 -0.000216838611907286 -0.000454461515892471 2.99007360327887e-05 -0.000151767020874583 -0.000245704542636974 5.85660686573882e-05 -0.000245109061189598 -0.000226220923239314 0.000122235081874826 -0.000280481505934518
"55" -0.000648408525390657 -0.000417235043688882 -0.000208585469206118 -4.0815993343587e-05 -0.000303929034026345 -0.000235614191982125 -0.000203458045611419 -0.000459202117321944 3.99732535491927e-05 -0.000136969010573165 -0.000230444358911136 8.72174055760032e-05 -0.000235162585474691 -0.000208762977018794 0.000136633273983639 -0.000241432963962753
"56" -0.00062736169763783 -0.000416411269065892 -0.000207766648575919 -4.05535755325317e-05 -0.000302686411502088 -0.000233627485367306 -0.000189679063416187 -0.000463878610189417 5.00042508379807e-05 -0.000122402230371614 -0.000215698319169007 0.000115496848248804 -0.00022513080563186 -0.000192404102104022 0.000150453466695435 -0.000201242656133406
"57" -0.000605932740311542 -0.000415252391867312 -0.000206903723843119 -4.03764649749066e-05 -0.000300804725946407 -0.000231598954381621 -0.000175508890638883 -0.000468429368544867 6.0002939426199e-05 -0.000108134130366892 -0.000201546623542538 0.000143253416640463 -0.000215028889483858 -0.000177242836134628 0.000163612788019707 -0.000160200707662952
"58" -0.000584168175968463 -0.000413702505499241 -0.000205975172574808 -4.02886715159796e-05 -0.00029823857954438 -0.000229514125605899 -0.000160960475263281 -0.000472795863485226 6.99787212573869e-05 -9.42282420802148e-05 -0.000188063055520457 0.000170340196699482 -0.000204871053320593 -0.000163358544220523 0.000176031958105636 -0.000118614434787763
"59" -0.000562125056310748 -0.000411732905655983 -0.000204958055932238 -4.02933659350409e-05 -0.000294955193269347 -0.000227352322381398 -0.000146047801199914 -0.000476910621066915 7.99393978600596e-05 -8.07481094414022e-05 -0.000175307832141955 0.000196628008994468 -0.000194670354187599 -0.000150824810393588 0.000187642733115885 -7.67939715548598e-05
"60" -0.00053987367076787 -0.000409316280248104 -0.000203829763169499 -4.03991518675375e-05 -0.000290925020261732 -0.000225095050487285 -0.000130790170078703 -0.000480712459042693 8.98920836514217e-05 -6.77432767050297e-05 -0.000163342777788013 0.000221981630741775 -0.000184432163324087 -0.00013969995073087 0.000198383282126392 -3.50599309892646e-05
"61" -0.000517491436184644 -0.000406446972102774 -0.00020257546680729 -4.06118635359502e-05 -0.000286119620228537 -0.000222723220424453 -0.000115208504543531 -0.000484134099967018 9.98465124758345e-05 -5.52637518719029e-05 -0.000152213767238984 0.000246288778322949 -0.000174161609912031 -0.000130020273950364 0.000208206662514219 6.27468861815135e-06
"62" -0.000495069125060688 -0.000403136711768886 -0.000201177983687617 -4.09432608397287e-05 -0.000280517860004032 -0.000220215603115879 -9.9332624560305e-05 -0.000487111039460469 0.000109807419874772 -4.33509153249246e-05 -0.000141963392446921 0.000269441940134818 -0.000163860303819061 -0.000121813995134597 0.000217065878874839 4.68921407576658e-05
"63" -0.000472703041063107 -0.000399404136606119 -0.000199623586172418 -4.14023280949719e-05 -0.000274107553059747 -0.000217551234207893 -8.31881152505665e-05 -0.000489579884404378 0.000119782677088719 -3.20398616487413e-05 -0.000132617545524848 0.000291350015538718 -0.0001535270467407 -0.000115095224857589 0.000224933323696016 8.64875736134675e-05
"64" -0.000450487668792517 -0.000395278888632211 -0.000197898688852757 -4.19990814378832e-05 -0.000266874350726095 -0.00021470962958583 -6.68137993398138e-05 -0.000491477934735696 0.000129775409335761 -2.13568513282507e-05 -0.000124198409553272 0.000311931309385038 -0.000143157275446356 -0.000109860746617321 0.00023178252293927 0.000124763670966025
"65" -0.00042854134532247 -0.000390810008928036 -0.000195997476957258 -4.27471128893801e-05 -0.000258819297089784 -0.000211672347792505 -5.02468116191965e-05 -0.000492746577798934 0.000139789733521535 -1.13257901566835e-05 -0.000116719568117085 0.000331117584021194 -0.000132748755827982 -0.00010609683393562 0.000237607181485354 0.000161436971228817
"66" -0.000406976775925074 -0.00038605287895039 -0.000193908585850176 -4.36554664784637e-05 -0.000249944071116136 -0.000208420148021666 -3.35266286674554e-05 -0.000493322878049993 0.000149827911972968 -1.95860631920682e-06 -0.000110179626606213 0.000348858071770385 -0.000122291830753915 -0.000103772371837029 0.000242399567066594 0.000196248133253992
"67" -0.000385904138285589 -0.000381066646948693 -0.000191626093421314 -4.47340249513152e-05 -0.000240259583413926 -0.000204934983251543 -1.66962270530246e-05 -0.000493159259019901 0.000159893249394051 6.73804726730397e-06 -0.00010457249579732 0.000365114417315758 -0.000111779238478498 -0.000102844494267352 0.000246171377796584 0.000228954017023235
"68" -0.000365445855686268 -0.000375925471321531 -0.000189150293777263 -4.59931485914241e-05 -0.000229782078675128 -0.000201202864751932 1.96086795816486e-07 -0.000492198633238233 0.000169977810391979 1.47641563535386e-05 -9.98814531183402e-05 0.00037985741764555 -0.000101200566530682 -0.000103260700862332 0.000248935046215482 0.00025933917654711
"69" -0.000345719883334481 -0.000370710634836212 -0.000186474822747889 -4.74392448996173e-05 -0.000218532039555062 -0.000197205994515497 1.71038603569022e-05 -0.00049039810498821 0.000180085007598475 2.21226938562342e-05 -9.60826150527896e-05 0.000393081902572495 -9.05493980621265e-05 -0.000104956599772191 0.00025071878104213 0.000287214901887699
"70" -0.000326845622990818 -0.000365500670407484 -0.000183600779331149 -4.90773629721548e-05 -0.000206543212683853 -0.000192934146440463 3.39767346146555e-05 -0.000487715310247166 0.000190206979108845 2.88290150247872e-05 -9.31428883573246e-05 0.000404786627065093 -7.98147190436083e-05 -0.000107854405508744 0.000251557844923438 0.000312419363457619
"71" -0.000308929696667189 -0.000360377126657975 -0.000180528460703702 -5.09107327583638e-05 -0.000193846073652769 -0.00018837852450827 5.07641731979702e-05 -0.000484109000830999 0.000200333073290884 3.49017199367102e-05 -9.10197990934374e-05 0.00041498703479332 -6.89888001827133e-05 -0.00011187377432548 0.000251489648083221 0.000334825234875797
"72" -0.000292081159966098 -0.000355432271062687 -0.000177261091758455 -5.29397965340405e-05 -0.000180488262509042 -0.000183529230422784 6.74084890356539e-05 -0.000479550113068462 0.000210456105608367 4.03598501699247e-05 -8.96704617105363e-05 0.000423716476803105 -5.80637540599787e-05 -0.000116921227960712 0.00025056454573791 0.000354336518375226
"73" -0.000276401815207712 -0.000350750865086538 -0.000173799778720364 -5.51608946216865e-05 -0.0001665111424952 -0.000178378684186724 8.38613504721016e-05 -0.000474010164664233 0.000220563538602339 4.52356750429362e-05 -8.90372085415496e-05 0.000431009261384375 -4.70379245171725e-05 -0.00012290004452384 0.000248838309254837 0.000370888541719497
"74" -0.000261974017920215 -0.000346415995013848 -0.000170148160165219 -5.7566076015943e-05 -0.000151967742006876 -0.000172925643960809 0.000100061527223692 -0.000467465087612378 0.00023063980900632 4.95593131174701e-05 -8.90636698614656e-05 0.000436922391940298 -3.59040927605687e-05 -0.000129707315718642 0.000246370426525871 0.000384448171495862
"75" -0.000248881455468829 -0.000342512670753679 -0.000166312774156745 -6.01444869795972e-05 -0.000136918311359239 -0.000167167788612907 0.000115963099185851 -0.000459904687624702 0.000240675796259875 5.3364450462566e-05 -8.96838435051271e-05 0.000441517545317307 -2.4664838753918e-05 -0.000137238141650363 0.000243229607034788 0.000395016503717312
"76" -0.000237188781259809 -0.000339116860196944 -0.000162297550361786 -6.28819079440234e-05 -0.000121419516421407 -0.000161106426964177 0.000131508125277457 -0.000451313046947159 0.000250647959103005 5.66933442168943e-05 -9.08314584343667e-05 0.00044486504100602 -1.33210851994707e-05 -0.000145377942425828 0.000239484657640429 0.000402624264702164
"77" -0.000226943820115337 -0.000336301612747164 -0.000158107149959532 -6.57614386893539e-05 -0.000105533923142765 -0.000154742673178977 0.000146645401329612 -0.000441686129958725 0.000260540872575811 5.95826501931442e-05 -9.24358812055096e-05 0.000447051483161362 -1.87385794302645e-06 -0.000154020921498749 0.00023521323874216 0.000407331913256467
"78" -0.000218180357228329 -0.000334131902961933 -0.000153745358145897 -6.87567310425135e-05 -8.93266205830121e-05 -0.00014808286423622 0.000161321409950673 -0.000431026196452377 0.000270337297059506 6.20787620315228e-05 -9.44227257374326e-05 0.000448159924520211 9.66356542051675e-06 -0.000163053358971233 0.000230489445296533 0.000409225976969026
"79" -0.000210919829586565 -0.000332664162976394 -0.000149218846253623 -7.18405465478944e-05 -7.28709474645061e-05 -0.000141132944926049 0.000175489251517934 -0.000419334107330241 0.000280018320457074 6.42259671932896e-05 -9.67150287838182e-05 0.000448293838556972 2.12854143556216e-05 -0.000172359662938326 0.000225397730841646 0.000408427189795488
"80" -0.000205158376827695 -0.00033194739005671 -0.000144533986377554 -7.49852223985535e-05 -5.62319483201273e-05 -0.000133901400861194 0.000189099199831619 -0.000406621203031502 0.000289568480817524 6.60663462182325e-05 -9.92367755590998e-05 0.00044755162630443 3.29802865967949e-05 -0.000181829204982365 0.000220020079272894 0.000405068194626452
"81" -0.000200883274610324 -0.000332019237181232 -0.000139692899349712 -7.81516505290172e-05 -3.94759954568829e-05 -0.000126398026717451 0.000202107881335463 -0.000392907338068427 0.00029896569234966 6.76486090384135e-05 -0.000101912626267867 0.000446043144831541 4.47321539969251e-05 -0.00019135774479378 0.00021444024270135 0.000399315202565637
"82" -0.000198044487431189 -0.000332898004897209 -0.000134700908240281 -8.13063773287732e-05 -2.26812131470778e-05 -0.000118634711117781 0.000214477086132268 -0.000378210285641063 0.00030819684863964 6.90191391992395e-05 -0.000104658779674427 0.000443879971307694 5.65245865598227e-05 -0.000200835045752513 0.000208742136754623 0.000391348285938792
"83" -0.000196589723909953 -0.000334604252619938 -0.000129564281996068 -8.44035833278918e-05 -5.90823671741089e-06 -0.000110621141179193 0.000226166699990915 -0.000362548162249419 0.000317247323640299 7.02225400389874e-05 -0.000107401277361169 0.000441178287297357 6.83373957554741e-05 -0.000210156895736236 0.000203013601573572 0.000381363466479776
"84" -0.000196440079871048 -0.000337128639127168 -0.00012428876427951 -8.74019387077917e-05 1.07700082386592e-05 -0.000102373756446435 0.000237142261635092 -0.000345954249064585 0.000326104967984628 7.13020839534409e-05 -0.000110061548735277 0.000438056703307414 8.01514981680843e-05 -0.000219227832012781 0.000197339188166719 0.000369577600764943
"85" -0.000197494733441106 -0.000340457559647798 -0.00011888101374992 -9.02552075598769e-05 2.72910096539869e-05 -9.39073158791239e-05 0.00024737770937412 -0.000328455999508132 0.000334761615209122 7.23048594781612e-05 -0.000112562873092917 0.000434631185498993 9.19474339882492e-05 -0.000227951397228378 0.000191804199997468 0.00035621614971769
"86" -0.000199635345415705 -0.000344558554575129 -0.000113341898678613 -9.29164099099534e-05 4.35883158306703e-05 -8.52357449888255e-05 0.000256847425463598 -0.000310092003971774 0.000343210219194713 7.32733763330081e-05 -0.000114831751428693 0.000431022663214149 0.000103701073527261 -0.000236238536510277 0.000186490838507538 0.000341514360373578
"87" -0.00020272662835308 -0.000349383059911332 -0.00010768241739478 -9.53372186463365e-05 5.96001736650759e-05 -7.63766258737961e-05 0.00026553633295427 -0.000290893113260362 0.000351447621706145 7.42495099451335e-05 -0.000116794352791823 0.000427351881553232 0.000115389095039932 -0.000244002763212637 0.000181482176627854 0.000325718658993495
"88" -0.000206611517872279 -0.000354864605206954 -0.000101912742111059 -9.74722125273676e-05 7.52670945519129e-05 -6.73494866717852e-05 0.000273422626738704 -0.000270905808244954 0.00035947467511224 7.52729926940747e-05 -0.000118382121661341 0.000423732545015149 0.000126990234052735 -0.00025116802067813 0.000176859006985062 0.000309079356305217
"89" -0.00021111790385494 -0.00036091980247867 -9.60373907772391e-05 -9.92716550407089e-05 9.05327602284187e-05 -5.81688804986177e-05 0.000280502339636521 -0.000250167719316956 0.000367294302689288 7.6384697614608e-05 -0.000119523783443146 0.000420282531615419 0.000138481282690778 -0.000257658811161985 0.000172697906274813 0.000291854130906674
"90" -0.000216064427294405 -0.000367451881064753 -9.00716584450943e-05 -0.000100691410404027 0.000105345447361016 -4.8856338662564e-05 0.000286771272145544 -0.000228726140437797 0.000374914960012351 7.7621750265044e-05 -0.000120154400980384 0.000417109045693798 0.000149843017515164 -0.000263413693594227 0.000169073402276468 0.000274301647523296
"91" -0.000221252428667137 -0.000374345925852125 -8.40233288419832e-05 -0.000101688938524919 0.00011965278330914 -3.94323996767161e-05 0.000292227452357824 -0.000206629229262421 0.000382349582879219 7.90188785258434e-05 -0.000120211295429675 0.000414321665633808 0.000161052719488808 -0.00026836710475039 0.000166057397593385 0.000256678621493093
"92" -0.000226465966209802 -0.000381469754346874 -7.79121681116692e-05 -0.000102222101789842 0.000133411416461507 -2.99139213972805e-05 0.000296886997330647 -0.000183927171289273 0.00038961159326502 8.06124413115892e-05 -0.000119632102518227 0.000412020679618487 0.000172094603685874 -0.000272470175051667 0.000163717686015472 0.000239247277596638
"93" -0.000231491622026125 -0.000388686054822328 -7.1752983584451e-05 -0.000102257450488054 0.000146576680049645 -2.03257430765109e-05 0.000300752079700673 -0.000160670147842873 0.000396721633104641 8.24353266446859e-05 -0.000118363954737841 0.000410304724927402 0.000182949272134637 -0.00027567227940296 0.000162118236646656 0.00022225900491442
"94" -0.000236106467169627 -0.000395832262216712 -6.55661501548705e-05 -0.000101760524402568 0.000159105696319808 -1.06865527142488e-05 0.000303846777834502 -0.000136911027871669 0.000403701189264244 8.45161405804627e-05 -0.000116353048627365 0.000409260343899524 0.000193605590087475 -0.000277936098721979 0.000161317079748944 0.000205966583389247
"95" -0.000240080395069476 -0.000402745917003584 -5.93735030100321e-05 -0.00010070567001429 0.00017097062444824 -1.02126410636214e-06 0.000306185798394399 -0.000112710409029761 0.000410574058251784 8.6884401205668e-05 -0.000113548299293877 0.000408970690518656 0.000204047801056035 -0.00027922710853163 0.000161367430171319 0.000190615441260568
"96" -0.000243193311961091 -0.000409253958728716 -5.32039829318966e-05 -9.90703399329436e-05 0.000182132149328789 8.64969526470168e-06 0.000307801775850321 -8.81214680576001e-05 0.000417371722736766 8.95688555554548e-05 -0.000109906313039765 0.000409511073939063 0.000214269412775099 -0.000279518758545695 0.0001623195325818 0.000176439507967172
"97" -0.000245213961995121 -0.000415177011175301 -4.70788453668657e-05 -9.68399216191592e-05 0.000192566968222029 1.83031277797058e-05 0.000308723142895727 -6.32097705217583e-05 0.000424122840825951 9.25908626720268e-05 -0.000105384556024257 0.000410943573975206 0.00022425628088434 -0.000278794279325854 0.000164213657061605 0.000163665556684825
"98" -0.000245929398282253 -0.000420336135710171 -4.10342724601094e-05 -9.40041727140092e-05 0.000202254130354823 2.79170770546058e-05 0.000308982602974192 -3.80373830226026e-05 0.000430856871225154 9.59748884497281e-05 -9.99513709459282e-05 0.000413326202954984 0.000234007829280407 -0.000277036652717288 0.000167088238625654 0.000152509559855425
"99" -0.000245136587001433 -0.000424555430556526 -3.5103160706803e-05 -9.0561020947147e-05 0.000211168907996383 3.74681161089489e-05 0.000308611825254561 -1.2668585610127e-05 0.000437606195717774 9.97394692841239e-05 -9.35765907292946e-05 0.000416703055889184 0.000243518677442536 -0.000274243609939541 0.000170971683096102 0.000143165972203681
"100" -0.000242637480905353 -0.000427659196545929 -2.93149334196283e-05 -8.65148604551184e-05 0.000219303040416787 4.69361994912187e-05 0.000307654058474923 1.28300180233769e-05 0.00044440595612604 0.000103902001274698 -8.62352086744821e-05 0.000421112258451707 0.000252785386242517 -0.000270416062214442 0.000175885719451279 0.000135822834014392
"101" -0.000238250575389759 -0.000429484902768106 -2.37161316759707e-05 -8.18773685288611e-05 0.000226642403308891 5.62991292927284e-05 0.000306152037890746 3.83841212268799e-05 0.000451290081419056 0.000108478455968015 -7.79076622379149e-05 0.000426576081026604 0.000261809625062701 -0.000265562716160264 0.000181846577455161 0.00013064347040029
"102" -0.000231822471179864 -0.000429881373276908 -1.83350887263364e-05 -7.66647296541362e-05 0.000233187855229624 6.55352124324719e-05 0.000304143972687771 6.39245690260551e-05 0.000458288640446297 0.000113475666403322 -6.85860255601052e-05 0.000433110777271571 0.000270589793045069 -0.000259698643604507 0.000188860396727526 0.000127773574015142
"103" -0.000223213076852592 -0.000428716719921434 -1.32185568210551e-05 -7.09050163661927e-05 0.000238935468529723 7.46259887221887e-05 0.000301674826939649 8.93753955081524e-05 0.000465430627828642 0.000118906005890096 -5.82643501974991e-05 0.00044071835370475 0.000279127591106946 -0.000252846214972151 0.000196925611139471 0.000127338110760862
"104" -0.000212309437950044 -0.000425872112740459 -8.40687450626551e-06 -6.46279655995923e-05 0.000243896090232471 8.35552183012098e-05 0.000298786384063904 0.000114658741316635 0.000472747769262127 0.000124769389594582 -4.69465600988445e-05 0.000449388295397228 0.000287427253750874 -0.000245030899196698 0.000206032517910562 0.000129435569411463
"105" -0.000199027156415785 -0.000421256837598245 -3.94046262670185e-06 -5.78735262020534e-05 0.000248076426878061 9.2304728578916e-05 0.000295526868542806 0.00013969663692635 0.000480265100151489 0.000131068923868514 -3.46447099186276e-05 0.000459101613773899 0.000295490252622972 -0.000236290399210052 0.000216166577554767 0.000134144301763832
"106" -0.000183305806833128 -0.00041479958583451 1.41464151772771e-07 -5.06882452766008e-05 0.000251498329151064 0.000100860279631952 0.000291930752167672 0.000164411061950623 0.000488004517177854 0.000137800697837238 -2.13744038801244e-05 0.000469827023408549 0.000303321646691709 -0.000226666754151049 0.000227295512360918 0.000141512807695464
"107" -0.000165130114676207 -0.000406465342529024 3.79969281996186e-06 -4.31207467079018e-05 0.000254181275051989 0.000109211191540985 0.000288049307123286 0.000188715134784018 0.000495991678083953 0.000144960023976531 -7.1614382865825e-06 0.000481523228678815 0.000310918828305218 -0.000216201119705462 0.000239392669410229 0.000151559985936754
"108" -0.000144499235041981 -0.000396241927013405 6.99271111076228e-06 -3.5229973194355e-05 0.00025615406070866 0.000117343683340735 0.000283920663339618 0.00021253138920341 0.000504236858402551 0.000152538220630248 7.95659330266259e-06 0.000494137949130999 0.000318291801825045 -0.0002049451681255 0.000252410425465852 0.000164283710250332
"109" -0.000121452606573176 -0.000384149413961956 9.68222841470954e-06 -2.7078541364312e-05 0.000257446668651152 0.000125251523260133 0.000279585282883277 0.000235775645667148 0.000512758048308999 0.000160518767538054 2.39409029833412e-05 0.000507608139511716 0.00032543845508774 -0.000192957259443055 0.000266300808898107 0.000179644356061151
"110" -9.60648529500351e-05 -0.000370238782195893 1.18395914537395e-05 -1.87293158880041e-05 0.000258098535175327 0.000132929282546328 0.000275078388089333 0.000258365978087259 0.000521561850570583 0.000168887607287515 4.07443962959022e-05 0.000521861437950196 0.0003323608489477 -0.000180295461069687 0.000281003681834603 0.00019757758383713
"111" -6.84438589735269e-05 -0.000354591703912197 1.3427087533345e-05 -1.02567435561467e-05 0.000258150019301614 0.000140371408752695 0.000270441724650916 0.000280220036453483 0.000530652179140294 0.000177623690394434 5.83051884588485e-05 0.000536817958415179 0.000339062238981189 -0.000167023814107332 0.000296458671351524 0.000217984979076362
"112" -3.87310373366303e-05 -0.000337321205785344 1.441766481692e-05 -1.73363264217299e-06 0.000257646760751607 0.000147576534487203 0.00026570760726678 0.000301260777295698 0.000540029322449283 0.000186703978066802 7.65641736187627e-05 0.000552387177444454 0.000345541942204382 -0.000153208345142852 0.00031258796947003 0.000240745492181947
"113" -7.09568607000362e-06 -0.000318568537469246 1.47874204075525e-05 6.76394627376065e-06 0.000256638109801072 0.000154546924419349 0.000260907621694078 0.000321405182508962 0.000549689703983519 0.00019610732407047 9.54520480915778e-05 0.000568474220074358 0.000351798031690756 -0.000138917685390224 0.000329318233008343 0.00026569966431361
"114" 2.62623070466078e-05 -0.000298498236261283 1.45133568554986e-05 1.51567933261177e-05 0.000255173102902764 0.000161281677201468 0.000256080042401668 0.000340580415412728 0.000559627041185002 0.000205800660402612 0.000114891661916016 0.000584975806030303 0.000357831580180697 -0.000124224999659197 0.000346563853676769 0.000292668001118231
"115" 6.1102718498588e-05 -0.00027731179092237 1.35780315412736e-05 2.3362771422394e-05 0.00025330670521463 0.000167787775210723 0.000251249115856218 0.000358716633867136 0.000569827468564635 0.000215760244339704 0.00013480204922038 0.000601784814005975 0.000363639338484919 -0.00010920052508003 0.000364239124740999 0.000321435672906106
"116" 9.71754810956719e-05 -0.000255220870438656 1.19704886008852e-05 3.13044174907334e-05 0.000251092808517095 0.000174069657827638 0.000246447407295026 0.000375742531081939 0.000580276505768227 0.000225951018358193 0.000155099648465925 0.000618789850511436 0.000369215281707677 -9.39167262065892e-05 0.000382250683867503 0.000351767627528227
"117" 0.000134193230121335 -0.000232459495854231 9.68298123024147e-06 3.8899643390806e-05 0.000248587040625374 0.00018013531695318 0.000241698115954711 0.000391599875774553 0.000590948901841406 0.000236341269872972 0.000175696451821134 0.000635874029280458 0.000374558164733152 -7.84498111336574e-05 0.000400500453034457 0.000383403479538908
"118" 0.000171857712638377 -0.000209276093965574 6.71116552558141e-06 4.60685449813697e-05 0.000245841995633572 0.000185991933954971 0.000237028747391404 0.000406229375047316 0.000601825189855286 0.000246897340148488 0.000196496350490627 0.000652917832007162 0.000379667049688348 -6.2865678038899e-05 0.000418894532418021 0.00041606303816457
"119" 0.000209845038281413 -0.000185932705029827 3.06000155193728e-06 5.27346756966e-05 0.000242916260615763 0.000191646590771162 0.000232464925677003 0.00041957684696312 0.000612874070165675 0.000257585560684369 0.000217408234264764 0.000669805945614929 0.000384527093451077 -4.72415711087023e-05 0.0004373302188897 0.000449440920872599
"120" 0.000247817556965136 -0.000162702086933115 -1.26719032252707e-06 5.88213205784284e-05 0.000239860119916776 0.000197110018613105 0.000228027043942179 0.00043160144163256 0.000624065853543751 0.000268370092457543 0.000238336547065953 0.000686415315769682 0.000389136884956432 -3.16452288231488e-05 0.0004557065809888 0.00048322377574356
"121" 0.000285430782119921 -0.000139851798303177 -6.25635324803138e-06 6.42587680525223e-05 0.000236724598316313 0.000202389125598859 0.00022373893270733 0.000442258834472537 0.000635364607190642 0.000279218794770261 0.000259181794067687 0.000702627691603396 0.000393486762499887 -1.61426011590802e-05 0.000473924286669521 0.000517076447247719
"122" 0.000322328201046257 -0.000117657222429768 -1.18902094977743e-05 6.89778008682499e-05 0.000233551629876384 0.000207492859122323 0.000219619075483173 0.000451520292802877 0.000646729994810049 0.000290091441721498 0.000279850689053798 0.0007183242643431 0.000397564968407571 -8.00893582524524e-07 0.000491879546813719 0.000550663070279071
"123" 0.00035815456553835 -9.63898169265384e-05 -1.81442318170659e-05 7.29176011390654e-05 0.000230392149216636 0.00021243064169387 0.000215688446317494 0.000459358028340858 0.000658123228016302 0.000300958461776935 0.000300242218680667 0.000733388740065002 0.000401364384456679 1.43198336219493e-05 0.000509472959774696 0.000583632169947737
"124" 0.00039254921233378 -7.63083267461239e-05 -2.49962209437268e-05 7.60200486252497e-05 0.00022727796522942 0.000217204186427998 0.00021196134161427 0.000465751288303794 0.000669495902231995 0.000311781653801407 0.000320266081097567 0.000747707085530745 0.000404868578564655 2.91518638480955e-05 0.000526605024839253 0.000615636738446508
"125" 0.000425161217417061 -5.76673988470803e-05 -3.2410048522744e-05 7.82363958365961e-05 0.000224244680557065 0.000221821364352149 0.000208457999264204 0.000470692253853518 0.000680800129478007 0.000322527840505417 0.000339827616717607 0.000761173360505047 0.000408063128241049 4.36445433641649e-05 0.000543179982890024 0.000646330369968878
"126" 0.000455642002161923 -4.07010818567539e-05 -4.03506661644058e-05 7.95219673735029e-05 0.00022132122651677 0.000226281720737055 0.000205191644341078 0.000474170241600362 0.000691986426733475 0.000333163660874802 0.000358833742217294 0.000773677212094687 0.000410926758795854 5.77357878528956e-05 0.000559101855226628 0.000675370995047057
"127" 0.000483663437383847 -2.56280534617509e-05 -4.8776719903567e-05 7.98428275435211e-05 0.000218528005441666 0.000230587607311767 0.000202175885245216 0.000476189760169953 0.000702998247287333 0.000343654465913001 0.000377200484317735 0.000785120335499847 0.000413441716365142 7.13817287498227e-05 0.000574281211536743 0.000702425786488137
"128" 0.000508900763619487 -1.26496858900285e-05 -5.76423353789639e-05 7.9170710487222e-05 0.00021587978256888 0.000234736732638519 0.000199424058096238 0.000476756364662042 0.000713780256894791 0.000353967829635766 0.000394843878805387 0.000795406970651225 0.000415583723828447 8.45251775764746e-05 0.000588626191271626 0.000727173211251768
"129" 0.000531052671584687 -1.94851461523813e-06 -6.69044749526527e-05 7.74872356022931e-05 0.00021338999800084 0.00023872329829582 0.00019694566663623 0.00047588356034031 0.000724269453815009 0.000364074497108573 0.000411681351034011 0.000804446602886446 0.000417325717901596 9.71230580752863e-05 0.000602057151856992 0.000749317283787616
"130" 0.000549847031158484 6.32637324296531e-06 -7.65076067747868e-05 7.47819274975053e-05 0.000211056581151807 0.000242540738001973 0.000194748975396974 0.000473590854100503 0.000734403795044422 0.000373938103586568 0.000427636847900935 0.00081215598290546 0.000418635725382016 0.000109127798777931 0.000614488314110424 0.000768579051419231
"131" 0.000565024970815209 1.2042307074972e-05 -8.63933693701372e-05 7.10565142936402e-05 0.000208877710168835 0.000246176047674292 0.00019284151554241 0.000469896973480024 0.000744117712095703 0.000383529908446954 0.000442642245789266 0.000818457010846375 0.00041948040529629 0.000120496368304788 0.00062584542689097 0.000784700862459917
"132" 0.000576357491519663 1.50972348938868e-05 -9.6512151010432e-05 6.6319342375949e-05 0.000206839994533303 0.000249617392773474 0.000191227437056157 0.000464836374842642 0.000753343792393276 0.000392820019491689 0.000456628614046956 0.000823276929956974 0.000419824209529946 0.000131192813994419 0.000636055872518068 0.000797458747279122
"133" 0.000583650481557741 1.54167707005375e-05 -0.000106801968094177 6.05878838417408e-05 0.000204934912539207 0.000252847641864361 0.000189909011564505 0.000458437136621496 0.000762008279901151 0.000401775869502811 0.000469534255906069 0.000826556318825922 0.000419626974075362 0.000141172525698021 0.000645052988681812 0.000806657057274247
"134" 0.000586739836895916 1.29479820946193e-05 -0.000117197784089391 5.3891663511589e-05 0.000203137406409302 0.000255847209333713 0.000188890284331754 0.000450734884143079 0.000770046444717025 0.000410371301988549 0.000481305704886183 0.000828237149776519 0.000418843242255198 0.000150403046689642 0.00065277489141133 0.000812135284840705
"135" 0.000585490563264918 7.67269797559004e-06 -0.000127640132733221 4.62664066288253e-05 0.000201416709311188 0.000258592828709878 0.000188163837384282 0.000441774752792095 0.000777383244337164 0.000418576120230617 0.000491890010335231 0.000828272580492364 0.0004174284993755 0.000158847200023423 0.00065916364349761 0.000813769463210008
"136" 0.00057981215846322 -4.05595271091838e-07 -0.000138062413110433 3.77628271865307e-05 0.00019974600142369 0.000261062973885147 0.000187730944252316 0.000431597987230995 0.000783945087590277 0.000426363682003809 0.000501244565460875 0.000826622369083753 0.000415337513948444 0.00016646942312929 0.00066416846800952 0.00081146712143742
"137" 0.000569646619641525 -1.12493481504655e-05 -0.000148401523163885 2.84333083378323e-05 0.000198086812008697 0.000263228431725137 0.000187582436740991 0.000420250283115512 0.000789661609796053 0.000433706727632357 0.000509331856060267 0.00082325700182516 0.000412517312441234 0.00017324327314454 0.000667744754166742 0.000805182429064105
"138" 0.000554969865544693 -2.48066510325042e-05 -0.000158591990205595 1.83459412225211e-05 0.000196403617289811 0.000265065838668241 0.000187712812023538 0.000407784023897034 0.000794460885093875 0.000440577770322476 0.000516118747542364 0.000818154364696355 0.000408924643789771 0.000179132631664918 0.000669854616622322 0.000794902634406853
"139" 0.000535809809187184 -4.09900325217838e-05 -0.000168566893058467 7.57542277422437e-06 0.000194659125589939 0.000266544790444654 0.000188114838813946 0.000394251356388507 0.000798280414219897 0.000446958487234222 0.000521579590378512 0.000811308604347906 0.000404509237631619 0.000184114635514803 0.000670464844297209 0.000780654446303281
"140" 0.000512224497112061 -5.96976670070846e-05 -0.000178262758992314 -3.80028341137883e-06 0.000192809277158247 0.000267637741559298 0.000188778547652642 0.000379714288311921 0.000801050216674001 0.000452823802509489 0.000525700851668269 0.000802716990614333 0.000399229862057778 0.000188166973960554 0.000669555160478964 0.000762508746076248
"141" 0.000484320999722223 -8.07957099534163e-05 -0.000187612508015042 -1.56869647328557e-05 0.000190813524440777 0.000268320980240283 0.000189694000447061 0.000364230421959287 0.000802714250990291 0.000458157224932016 0.000528469851926953 0.000792395614124705 0.000393048733808971 0.000191261642508855 0.000667107430003731 0.000740568918425452
"142" 0.00045224124709808 -0.00010413880808885 -0.000196548889396508 -2.79890437190326e-05 0.000188635959127329 0.000268566158529739 0.000190851973111931 0.000347872393905932 0.000803222163466778 0.000462940014180761 0.000529883615844017 0.000780365582033963 0.000385933533969657 0.000193386680450933 0.000663116758372153 0.000714980709382825
"143" 0.000416177802858701 -0.000129556912637177 -0.000205014029856036 -4.06031904467507e-05 0.000186239164051588 0.000268353189652517 0.000192246823578732 0.000330705279423841 0.00080252487118301 0.000467163691258147 0.000529949454329429 0.000766668382396296 0.000377852751075133 0.000194525890473621 0.000657582122291603 0.000685921942214227
"144" 0.000376357828896353 -0.000156864257189607 -0.000212941937199877 -5.34180420185541e-05 0.000183598384854148 0.000267661697262254 0.000193865371570578 0.000312808570372287 0.000800589709795577 0.000470818572032386 0.000528682311765448 0.000751356474736989 0.000368797874115362 0.000194674092433723 0.000650521307585591 0.000653608496936987
"145" 0.000333050954385731 -0.000185861214618815 -0.000220271318118336 -6.63200188874682e-05 0.000180677644780351 0.000266478250363008 0.00019570472953796 0.000294264211653222 0.00079738886534136 0.000473898709323645 0.000526103034433582 0.000734496308398672 0.000358759545034216 0.00019382352347546 0.000641953299165748 0.000618285817332892
"146" 0.000286570379307152 -0.000216334545646432 -0.000226945165523384 -7.91885516933477e-05 0.000177467160521619 0.000264792378621569 0.000197763130098846 0.000275164390026495 0.000792910419570058 0.000476408096370106 0.00052224539695425 0.000716168681245233 0.000347748866082149 0.000191977505745615 0.000631915464619392 0.000580232987547705
"147" 0.000237266454862142 -0.000248061511977509 -0.000232900869649576 -9.18972845194157e-05 0.000173949310900291 0.00026260459415243 0.000200035487548966 0.000255601609380789 0.000787152956931395 0.000478352418751832 0.000517151439305889 0.000696474735482901 0.000335791112374628 0.000189150697972881 0.000620450477170544 0.000539753319227572
"148" 0.000185522955475049 -0.000280803853526298 -0.000238089048637704 -0.000104320558738858 0.000170124542967082 0.000259914370585375 0.000202526214880236 0.00023568004955443 0.000780128873806058 0.000479745010571429 0.00051086820309713 0.000675526916934058 0.000322926238988579 0.000185357911029659 0.000607618025763476 0.000497176425222715
"149" 0.00013176491883763 -0.00031432074401403 -0.000242453054887906 -0.000116329926398152 0.00016599881682916 0.000256736452422099 0.000205242507568418 0.00021551291309103 0.000771865081988725 0.000480605116692083 0.000503460633673494 0.000653456418380013 0.000309210408166793 0.000180622006922518 0.000593488027060005 0.000452854232794519
"150" 7.64487479131009e-05 -0.000348360852285585 -0.000245941819192193 -0.000127792603123714 0.000161587799270587 0.000253087624290567 0.000208198008205977 0.000195216418702798 0.000762409519182098 0.000480961458083263 0.000494994045084112 0.000630410216539119 0.000294718465946651 0.00017498178730792 0.000578139990770394 0.000407162798545943
"151" 2.00603692979701e-05 -0.000382676746034913 -0.000248513366808271 -0.00013857782895462 0.000156919514388122 0.000248999350248525 0.00021140516456187 0.000174919072462073 0.000751821630432336 0.000480845515224706 0.000485548790718498 0.000606552824392712 0.000279552227164271 0.000168482713222438 0.000561672980471528 0.000360486679191788
"152" -3.68893205216678e-05 -0.000417008142021907 -0.000250124362760517 -0.000148555298362146 0.000152034368476403 0.000244503978487462 0.000214885316471081 0.000154757025433193 0.000740177949451077 0.000480298833295762 0.000475213662771989 0.000582062722186023 0.000263821162632477 0.000161170420328648 0.000544191633583939 0.000313236438217067
"153" -9.38638838390273e-05 -0.000451098332333239 -0.000250732032635088 -0.000157596269329675 0.000146978960200976 0.000239650572311223 0.000218662003899163 0.000134873719395496 0.000727574333171722 0.000479373616014752 0.000464085618711132 0.000557137162536026 0.000247669195369828 0.000153116285439345 0.00052581473776493 0.000265823587447473
"154" -0.000150307222524212 -0.000484691592066922 -0.000250304838448366 -0.000165574581921596 0.000141810030433816 0.000234492828391649 0.000222767468502088 0.000115419285301639 0.000714123485163153 0.000478124540442035 0.000452265658021697 0.000531980769046123 0.00023124765027166 0.000144390765321993 0.000506676061404709 0.000218674846722571
"155" -0.000205650014104765 -0.000517522700502053 -0.000248814998623482 -0.000172368892270062 0.000136603602097531 0.000229091345093715 0.000227240485764053 9.65545693413103e-05 0.000699950046050522 0.000476617311052511 0.000439870215164817 0.000506821402193034 0.000214734916098327 0.000135075139301765 0.00048691526841615 0.000172222024087924
"156" -0.000259314510164542 -0.000549346740797319 -0.000246238969681863 -0.000177862293133792 0.000131434558422684 0.000223517624611134 0.000232115839329371 7.84377679108237e-05 0.000685199670045724 0.000474927050369338 0.000427015362887361 0.000481888767571266 0.000198324140895624 0.000125260798817304 0.000466683928839717 0.000126897851106321
"157" -0.000310718253101774 -0.000579907059595101 -0.000242558349131897 -0.000181948612623537 0.000126390967798947 0.000217849399954485 0.00023743799358829 6.12413954014381e-05 0.000670029805250209 0.000473128924362425 0.00041382913548949 0.000457431980903903 0.000182226701874294 0.000115051486414602 0.000446145206447308 8.31394669365433e-05
"158" -0.000359275375426726 -0.000608948236256162 -0.000237766911325662 -0.000184523910937272 0.000121563907639983 0.000212167789621401 0.000243255068543879 4.51334344077353e-05 0.000654610266367612 0.000471315646547717 0.000400441829085 0.00043369847810024 0.000166665421556667 0.000104554140740754 0.00042546135371549 4.13783314627569e-05
"159" -0.000404413090116901 -0.000636226998605795 -0.000231860000237965 -0.000185499128577639 0.00011705501802103 0.000206559524473906 0.000249613385322744 3.02874436630787e-05 0.000639122312974616 0.000469573594805217 0.000386983182826593 0.000410947223625948 0.000151877006588912 9.3884598001522e-05 0.000404811823246932 2.03981744579992e-06
"160" -0.000445561197727263 -0.000661498215977246 -0.000224844296705623 -0.000184792185122773 0.000112960823953995 0.000201117182135493 0.000256560592476167 1.68731345745437e-05 0.00062375164395221 0.000468005966943113 0.000373591633091015 0.000389434895916642 0.000138109197311459 8.31623368726277e-05 0.000384367942678132 -3.44597895858009e-05
"161" -0.000482184208796657 -0.000684526402076422 -0.000216737349007351 -0.000182339581913907 0.000109387209767067 0.000195929584618566 0.000264148092315491 5.05940050439922e-06 0.000608693247502252 0.00046670891728946 0.000360403868302666 0.000369419020979581 0.000125608380078103 7.25095803951594e-05 0.000364310111139527 -6.77138902325571e-05
"162" -0.000513757627669111 -0.000705076145329595 -0.000207557007681412 -0.000178085240423581 0.000106432642495959 0.000191087529255135 0.000272424411513998 -4.99667309759838e-06 0.000594139880162338 0.000465788562486081 0.000347553726163601 0.00035115215371843 0.000114624661400003 6.20511063109971e-05 0.000344814803956281 -9.73404021342164e-05
"163" -0.000539797946576245 -0.000722923550413076 -0.000197342210939891 -0.000171991542812616 0.000104188470213931 0.000186682049913391 0.000281429455486177 -1.31433432607346e-05 0.000580289670912971 0.000465350884989578 0.000335173051924974 0.000334879262459862 0.00010540911911862 5.19129596696329e-05 0.000326051351213359 -0.000122970975558208
"164" -0.000559854227433397 -0.000737845561249912 -0.00018613476722819 -0.000164036488176695 0.000102751828820108 0.00018279263667539 0.000291203574281584 -1.92414786832143e-05 0.000567327203258807 0.000465496297137929 0.000323387069802901 0.000320829022203127 9.81949917735677e-05 4.22096889768542e-05 0.000308190153961105 -0.000144264826214193
"165" -0.000573523713905439 -0.000749635059885169 -0.000173984543653055 -0.000154217423989394 0.000102201932709118 0.000179499300230523 0.000301780215663413 -2.31704552816143e-05 0.000555432624604644 0.000466331669383029 0.000312314392280051 0.000309216276025335 9.3211076306385e-05 3.30609709565273e-05 0.000291385290886209 -0.0001609112865037
"166" -0.000580448949611586 -0.000758088033396376 -0.000160954403221365 -0.000142545023113721 0.000102605527360532 0.000176870662365724 0.000313176194234151 -2.4824663396504e-05 0.000544774926686517 0.000467951554687335 0.000302069337893009 0.000300235605552778 9.06608083141615e-05 2.45705799319529e-05 0.000275778249290555 -0.000172635978952233
"167" -0.00058033556679257 -0.000763019795965812 -0.000147120316583904 -0.000129055722593384 0.000104020023943708 0.000174963024627722 0.000325405710835105 -2.41221332027838e-05 0.000535502158553514 0.00047044899250251 0.000292742744048226 0.000294057820636929 9.07272530432067e-05 1.68333254067919e-05 0.000261502536151438 -0.000179197202103247
"168" -0.000572943027199651 -0.00076425850180803 -0.000132558106111432 -0.000113797597470259 0.000106492670369127 0.000173826708905966 0.000338469303609994 -2.10042673095131e-05 0.000527749225602994 0.000473903222049366 0.000284424208761983 0.000290823300244612 9.3567626326536e-05 9.9306296824515e-06 0.00024866541170597 -0.000180398054509156
"169" -0.000558103729722095 -0.000761647258919262 -0.000117363657645581 -9.68470605180815e-05 0.000110049458475421 0.000173493768187172 0.00035235251051446 -1.54431401039563e-05 0.000521624938700124 0.000478391003070723 0.000277180469332236 0.000290640773485272 9.93021399363173e-05 3.92832048535001e-06 0.000237360967518611 -0.000176090525239637
"170" -0.000535711287078878 -0.000755054152749124 -0.000101630001094351 -7.82896419009516e-05 0.000114696722155943 0.000173983853083958 0.000367028698643347 -7.43630311884178e-06 0.00051720794451596 0.000483973286417197 0.000271065309552964 0.00029359123890995 0.000108023156992649 -1.12210833880135e-06 0.00022765624838312 -0.000166171214310458
"171" -0.000505741834239037 -0.000744370243184014 -8.54655438080236e-05 -5.82376382749269e-05 0.000120429753152387 0.000175303354495 0.000382449482706626 2.98952064616685e-06 0.000514562455361819 0.000490697309540633 0.000266110670105327 0.000299713269681651 0.000119775434448913 -5.19110370917834e-06 0.000219596867011422 -0.00015059427403648
"172" -0.000468243784477951 -0.000729511885404687 -6.89833232968769e-05 -3.68181745230546e-05 0.000127219138228347 0.00017744394881392 0.000398559331248881 1.57776652872155e-05 0.000513710908755557 0.000498597417991429 0.00026233485540292 0.000309014285385403 0.000134564610118481 -8.2659910649087e-06 0.000213205277351417 -0.000129364577397094
"173" -0.000423340332331578 -0.000710430121080403 -5.23036333450127e-05 -1.41758928325928e-05 0.000135024500687612 0.000180378242795378 0.000415282257328007 3.08367618311035e-05 0.000514656929216867 0.00050768958561313 0.000259728891822296 0.000321457522951159 0.000152358508932647 -1.03528097925609e-05 0.000208480698708502 -0.000102549498022964
"174" -0.00037123687859794 -0.000687108983359495 -3.55457502453039e-05 9.5297722023946e-06 0.00014378753321272 0.000184069813969616 0.000432520263342104 4.80479053516432e-05 0.000517367255311008 0.000517979473426097 0.000258271785490171 0.00033696899807111 0.000173076826877538 -1.14794873380626e-05 0.000205391567285665 -7.02707462879883e-05
"175" -0.000312211727706197 -0.000659568245681069 -1.88383912615203e-05 3.41235267409048e-05 0.000153426201898054 0.000188463834500568 0.000450173961059424 6.72642118454519e-05 0.000521786194686045 0.000529445125854103 0.00025791701069831 0.000355445165339352 0.000196596050575982 -1.16890525179743e-05 0.000203888920061609 -3.2706686068011e-05
"176" -0.000246624621466218 -0.000627869030219647 -2.30961093877986e-06 5.94193753524242e-05 0.000163854376769672 0.000193497510841975 0.000468121598249095 8.83107303392061e-05 0.000527830427601907 0.000542059943763583 0.000258605065144574 0.000376739241765492 0.000222754595925659 -1.10420973948277e-05 0.000203898523706086 9.90364338677347e-06
"177" -0.000174905149988542 -0.000592107155155415 1.39064885269141e-05 8.52200002552743e-05 0.000174964106799105 0.000199091860256817 0.000486231424047132 0.000110987661336486 0.000535390829767442 0.000555775041276006 0.000260257926246613 0.00040067462069055 0.000251348536910592 -9.61394897478724e-06 0.000205326105614298 5.72741538428499e-05
"178" -9.75467441817139e-05 -0.000552428999344916 2.96854805248505e-05 0.000111322521040237 0.000186646162324838 0.000205162871523499 0.000504359142656054 0.000135078404126328 0.000544337562717662 0.000570527246603915 0.000262777972837327 0.000427041990131313 0.00028214167053252 -7.49774702364197e-06 0.000208058053326336 0.000109053687813395
"179" -1.51126746479123e-05 -0.000509012244824636 4.48912229816368e-05 0.000137515395583086 0.000198769042590962 0.000211615202108005 0.000522359087616374 0.000160344789159282 0.000554519275781961 0.000586233192837543 0.000266060235907761 0.000455605194681429 0.000314864350062995 -4.78974323803656e-06 0.000211964349089223 0.000164850475530847
"180" 7.17751404607142e-05 -0.000462085576090452 5.93999284363994e-05 0.000163587006890175 0.000211205829330799 0.000218348664524568 0.000540070542619446 0.000186538326286365 0.000565776175607924 0.000602805145111622 0.000269984076243979 0.000486107453249855 0.000349211438930833 -1.59253473082876e-06 0.000216905115802904 0.000224226841680773
"181" 0.000162450172818297 -0.000411911498309309 7.30822181303347e-05 0.000189322723263709 0.000223817293117728 0.000225260276710553 0.000557338944858497 0.000213396036845531 0.000577927446543495 0.000620138495373897 0.000274421655823859 0.000518266081897636 0.000384863440550821 1.97444748050759e-06 0.000222727363910993 0.000286701923192941
"182" 0.000256201364862115 -0.000358790327110095 8.58198483612075e-05 0.000214510741579355 0.000236467758930782 0.000232240595824416 0.00057400570784976 0.000240652855077369 0.000590793286629482 0.000638115456734261 0.000279237115314139 0.000551790661400567 0.000421478096065275 5.79954534719318e-06 0.000229269714463472 0.000351760346871995
"183" 0.000352284240161577 -0.000303055808326364 9.74989868903204e-05 0.000238945967770439 0.000249009242484029 0.000239183972916321 0.000589910128538904 0.000268041183164971 0.000604179621361702 0.000656611265388354 0.000284294953312412 0.000586369867217641 0.000458696343338456 9.77344251841713e-06 0.000236371699509795 0.000418853676434195
"184" 0.000449930223451142 -0.000245072426003375 0.000108009903472343 0.000262425600948272 0.0002613080647662 0.000245981486382083 0.000604903683050044 0.000295296190518675 0.000617896738068117 0.000675495873459264 0.000289451420323712 0.000621688671654185 0.000496154471418616 1.37814075141595e-05 0.000243869092784285 0.000487414471332509
"185" 0.000548361541242168 -0.000185231326938587 0.000117253076414599 0.000284761549598816 0.000273227782311566 0.000252532906026032 0.000618836117474149 0.000322158991832565 0.000631758929653568 0.000694628629965645 0.000294572044711296 0.0006574304750216 0.000533481967790076 1.77227628032212e-05 0.000251595192357247 0.000556852104898702
"186" 0.000646785268092433 -0.000123941178120263 0.000125132777202693 0.000305773685184472 0.000284627557907241 0.000258734135528176 0.000631570445282319 0.000348375582653999 0.000645575683585717 0.000713867927915355 0.000299518090232972 0.000693272941431871 0.00057030881966616 2.14962384120799e-05 0.000259390899582621 0.000626565199949422
"187" 0.000744432619046642 -6.16278364698662e-05 0.00013156751414091 0.000325293427925893 0.000295384208229162 0.000264492155969261 0.000642975961345243 0.000373706585520483 0.000659170647137554 0.000733068130114047 0.000304161224804553 0.00072890229867239 0.000606269181237882 2.50148110974984e-05 0.000267106672936672 0.000695944414354567
"188" 0.000840530023682707 1.27240985870733e-06 0.000136480612063582 0.000343172575115891 0.000305375904907467 0.000269717688747203 0.0006529419787548 0.000397929120944717 0.000672378822155293 0.000752081280414887 0.00030837442925123 0.000764004591984897 0.000641009102521153 2.82009123265434e-05 0.00027459631054035 0.000764383277091986
"189" 0.000934346482449638 6.43169972552284e-05 0.000139815644399556 0.000359276892154884 0.000314493750544891 0.000274329216459606 0.000661361973909259 0.000420836383598379 0.00068503728567248 0.000770761160300323 0.000312048108778488 0.000798279742311031 0.000674182953157584 3.09863615258333e-05 0.000281720346851967 0.000831280081984411
"190" 0.00102517278496274 0.000127066201367245 0.000141514338572364 0.00037348805422072 0.000322624923470476 0.000278250692899938 0.000668143717017092 0.00044223978365259 0.000697000989434307 0.00078895962999301 0.000315073201383576 0.000831436920820668 0.000705459208975401 3.33175916586297e-05 0.000288359854954089 0.000896045323631006
"191" 0.00111235416465249 0.000189089576070019 0.000141546649166588 0.000385712248933702 0.000329682356531935 0.000281417518793246 0.000673220235991869 0.000461964711550609 0.000708138727236273 0.000806536801417486 0.000317358731289925 0.000863201637437695 0.000734533036549526 3.51508577089071e-05 0.000294398310430481 0.000958101623627064
"192" 0.00119527341463425 0.000249961998287789 0.000139880397336877 0.000395870910868488 0.000335572967730001 0.000283772747377818 0.000676526238527372 0.000479871007106241 0.000718332907156273 0.000823350881523383 0.000318823519293479 0.000893314691913609 0.000761116181419748 3.64544314224679e-05 0.00029973704011103 0.00101690514081049
"193" 0.00127338530971452 0.000309281696626171 0.000136505553318812 0.000403908511217003 0.000340226062361784 0.000285266258482316 0.000678020714827386 0.000495828748413534 0.000727475104937798 0.000839268402683056 0.000319397770964923 0.000921531555146462 0.000784947505633596 3.72120467533446e-05 0.000304291631355173 0.00107193250413981
"194" 0.00134619307325407 0.000366657158728329 0.000131426637176275 0.000409792271524318 0.000343578129066285 0.000285857737970271 0.000677678591266239 0.00050973565798499 0.000735479215282425 0.000854157836831773 0.000319028257037879 0.000947633841869628 0.000805784308447724 3.74120514176286e-05 0.000307985778205251 0.00112269433631907
"195" 0.00141327417706317 0.000421730486123882 0.00012465562749814 0.0004135078831187 0.000345570346174438 0.000285518671498046 0.000675485106473447 0.000521508840817909 0.000742272597627146 0.000867899952097415 0.000317674469463847 0.000971416157961751 0.000823418451385357 3.70655645138663e-05 0.000310762177389872 0.00116874569993746
"196" 0.00147427769775762 0.000474168764847895 0.000116221515022244 0.000415061107368048 0.00034616845280046 0.00028422237412527 0.000671443778508366 0.000531097818775935 0.000747794898111944 0.000880377884550111 0.000315302963935655 0.000992702244794686 0.000837669826975613 3.61759118201079e-05 0.000312573244849877 0.00120967947006895
"197" 0.0015289225592968 0.000523669140730707 0.000106172399781797 0.000414485195952047 0.000345338194708165 0.000281959568009278 0.000665575575135506 0.000538463515026213 0.000752001075235685 0.000891485994221657 0.00031190304862903 0.00101133556258129 0.000848391216845147 3.47752598528296e-05 0.000313383752227332 0.00124513403411089
"198" 0.00157699882215532 0.000569960085249708 9.45615611405889e-05 0.000411827077392004 0.000343059696711958 0.000278721918946808 0.000657909261295885 0.000543593151829098 0.000754861007931753 0.000901128383886828 0.000307472290162669 0.00102718250905264 0.000855460682445659 3.2888411474454e-05 0.000313175395637965 0.00127480433214317
"199" 0.00161837821279724 0.000612808936426296 8.14604341349003e-05 0.000407156838358107 0.000339323183574792 0.000274513396110716 0.000648497533377372 0.000546493493372318 0.000756360322586962 0.000909214793373036 0.00030201952108388 0.00104013622113275 0.000858789472038516 3.05562356749496e-05 0.000311937329976284 0.0012984295360805
"200" 0.00165299589718815 0.000652013612667751 6.69540610717343e-05 0.000400560320347324 0.000334137092270013 0.000269345966789493 0.000637394577947059 0.000547202702998293 0.000756492186451621 0.000915669385240386 0.00029556930226807 0.00105011460867492 0.000858322010826395 2.78176491282217e-05 0.000309672219912864 0.00131580753859677
"201" 0.00168086601192552 0.00068741446590592 5.11400750570079e-05 0.000392143718039772 0.00032751086545897 0.000263237540645311 0.000624675734782252 0.000545763418905727 0.00075527280870491 0.000920424621300038 0.000288154120554929 0.00105705697024356 0.000854040965151093 2.47253058230666e-05 0.000306392415604432 0.00132679482125644
"202" 0.0017020635978891 0.000718878126142238 3.41247182690714e-05 0.000382030223938244 0.000319468995174785 0.000256214541438143 0.000610428723755664 0.000542243035958745 0.00075271667364689 0.000923427615839736 0.000279820183637776 0.00106093184328202 0.000845947961956324 2.13257037584016e-05 0.000302120420615377 0.00133130351329884
"203" 0.00171673004477918 0.000746319462920602 1.60313164272204e-05 0.000370353431524513 0.000310051264706485 0.000248308878962571 0.000594742735955601 0.000536733238846234 0.000748863628477816 0.00092463333838451 0.000270621212034714 0.00106173348552094 0.000834088340038064 1.7678021635967e-05 0.000296888486550587 0.00132930325353653
"204" 0.00172506562412956 0.000769685082444134 -3.01086017787506e-06 0.000357263653221737 0.00029930260894768 0.000239560390643052 0.000577724149223597 0.000529335158497175 0.000743751314461459 0.000924011760124128 0.000260623397016545 0.00105947581562707 0.000818529823459441 1.38357736065081e-05 0.000290735532776625 0.00132082294166818
"205" 0.00172732944102992 0.000788954817996426 -2.28614279180487e-05 0.000342923295313285 0.000287278320995096 0.000230014578688491 0.000559487663823029 0.000520164711347408 0.000737439662050448 0.000921545365760769 0.00024989805005757 0.00105420106491236 0.000799378332669101 9.85293576556578e-06 0.000283709976683572 0.00130594737113377
"206" 0.00172382329712882 0.000804138863900282 -4.33739259838621e-05 0.000327502381929398 0.00027404479647762 0.000219723610027391 0.000540151957709759 0.000509357551856218 0.000729990801586395 0.000917230169518726 0.000238524416490759 0.00104597628552098 0.000776760821481156 5.78483878973969e-06 0.00027586538647845 0.00128481891739137
"207" 0.00171489521717976 0.000815285052400794 -6.43922946939874e-05 0.000311180668992178 0.000259676072442343 0.000208745275615827 0.000519849245520973 0.000497057119286193 0.000721476801895999 0.000911075943830764 0.000226591399307712 0.00103488932937983 0.00075084117857981 1.69236570674133e-06 0.000267264757033105 0.00125763490685265
"208" 0.00170093181708971 0.000822465200840793 -8.57573739454955e-05 0.000294146190160324 0.000244258328055907 0.000197139880058179 0.000498710044074319 0.000483421953521786 0.000711979950763609 0.000903098566392502 0.000214189404525506 0.00102104834191612 0.000721798134456699 -2.37701583749494e-06 0.000257970112191067 0.00122463792933812
"209" 0.00168234581303824 0.000825782962668583 -0.000107300654864048 0.000276585221035638 0.000227884806440828 0.000184977675434601 0.000476877939688763 0.000468616893960733 0.000701588300222986 0.000893335948420199 0.000201415439471027 0.0010045893451758 0.00068984340478792 -6.37147844193984e-06 0.000248054784169556 0.00118612334924831
"210" 0.00165958073811867 0.00082536633454605 -0.000128854463965627 0.000258694913448043 0.000210654361684 0.00017232743703302 0.000454492754377119 0.000452816507976902 0.000690395711017559 0.000881837078203869 0.000188370849019971 0.000985658725292147 0.000655211824859155 -1.02411923796334e-05 0.000237592706949588 0.00114243231115182
"211" 0.00163309715378454 0.000821363343527517 -0.000150254232173939 0.000240666955473028 0.000192678493217896 0.000159264122004401 0.000431706353070804 0.000436204680511247 0.000678505068246429 0.000868658563750977 0.000175161480802613 0.000964428221507334 0.000618151654079076 -1.39426551032527e-05 0.000226661136360113 0.00109393914924639
"212" 0.00160336486757824 0.000813944806038106 -0.000171323138178085 0.000222696491365102 0.00017406357716456 0.00014586807402325 0.000408665705629399 0.000418967555653207 0.000666024340702095 0.000853874637723932 0.00016188797303781 0.000941083798664117 0.000578937705921315 -1.74320619432113e-05 0.000215338702014466 0.00104106239576851
"213" 0.00157086284300109 0.000803295402665873 -0.000191896136016743 0.000204973706764491 0.000154935096229082 0.000132218807311151 0.000385522754566703 0.000401300316409895 0.000653060070054522 0.000837569050395033 0.000148662457129805 0.000915827352118174 0.000537853298532705 -2.06760326467136e-05 0.000203709389082863 0.000984248798687374
"214" 0.00153606936535668 0.00078961967131073 -0.000211809071325019 0.000187683896499678 0.000135416768606942 0.000118399017549595 0.00036242758629828 0.000383390771617239 0.000639731907058927 0.000819838607237078 0.000135588802138919 0.000888870073933651 0.000495200073181314 -2.3635120327039e-05 0.000191855466048903 0.000923972747140917
"215" 0.001499455277618 0.000773124899624652 -0.000230899763524988 0.0001710087494942 0.00011563304104433 0.000104494868997359 0.000339531698435089 0.000365438452879329 0.000626151054075895 0.00080078828189653 0.000122770258719369 0.000860438793309191 0.000451286776334956 -2.62867008178031e-05 0.000179860485854093 0.00086072968219754
"216" 0.0014614923463625 0.000754045654705882 -0.000249012030409124 0.000155120071287943 9.57172187315693e-05 9.05913118587801e-05 0.000316984036001639 0.000347638344876001 0.000612442546539777 0.000780536935072854 0.000110315755720079 0.000830768302058607 0.000406432755997518 -2.85989211985847e-05 0.000167808211866802 0.000795035966616852
"217" 0.00142262165861618 0.00073260062358265 -0.000265999237442746 0.000140182011521566 7.57983111924722e-05 7.67746765337237e-05 0.00029492872738994 0.00033017584392469 0.000598719728576606 0.000759206193626191 9.83179304594656e-05 0.000800096341842981 0.000360955036075121 -3.05526055430309e-05 0.000155778703377061 0.00072741676928762
"218" 0.00138327673000488 0.000709030265911431 -0.000281723187991273 0.000126349347759938 5.60137767714101e-05 6.31317126791309e-05 0.000273512362713787 0.0003132416861369 0.000585106376578281 0.000736931101316866 8.68798184691471e-05 0.000768671031786341 0.000315181939785946 -3.213280921091e-05 0.000143856068956181 0.000658407317809698
"219" 0.00134386649435553 0.000683570752672234 -0.000296055792831403 0.000113760677492192 3.64937761322201e-05 4.97467177579062e-05 0.000252870142763611 0.000297019886890626 0.000571719529362569 0.000713849707412019 7.60885689564025e-05 0.000736736433149435 0.000269438628461366 -3.33250854031331e-05 0.000132115750197811 0.000588536294994893
"220" 0.00130476276156891 0.000656460617958239 -0.000308880060180292 0.000102547758126699 1.73691591391183e-05 3.67019449104075e-05 0.000233137727101348 0.000281683499596084 0.00055867323442095 0.000690108260262587 6.60341171941558e-05 0.000704545334284044 0.000224035793795914 -3.41233913184786e-05 0.000120635806389893 0.000518340680099892
"221" 0.00126630882579267 0.000627934849299438 -0.000320087962811039 9.28219190952258e-05 -1.23506364379166e-06 2.4078495405454e-05 0.000214435981455743 0.000267392492288894 0.000546079131777474 0.000665857911452354 5.67923094256303e-05 0.000672336335340802 0.000179290150571637 -3.45238624517579e-05 0.000109485668740954 0.000448341448721915
"222" 0.00122882483437235 0.000598220859013613 -0.000329595042136333 8.46841280382471e-05 -1.91960381646119e-05 1.19512512198396e-05 0.000196883389154242 0.000254307245791162 0.000534042164842113 0.000641247354107162 4.8435162256938e-05 0.000640351180410878 0.000135500897211442 -3.45273968911315e-05 9.87321552371051e-05 0.000379048848537769
"223" 0.00119257813157512 0.00056754937552645 -0.000337319706861175 7.82184800863477e-05 -3.6390116762356e-05 3.95452692786529e-07 0.000180588614631672 0.000242565526432405 0.000522664776084059 0.000616432226671231 4.10286900278304e-05 0.000608822778106236 9.29558774966821e-05 -3.41424524851169e-05 8.84386047000355e-05 0.000310959533542181
"224" 0.0011578089301956 0.000536139956133933 -0.000343205348465072 7.34872335665807e-05 -5.27164811121788e-05 -1.05218143892226e-05 0.000165649482405199 0.000232301036644137 0.000512038255324653 0.000591568400790972 3.46240008583967e-05 0.000577971127179193 5.19290841278284e-05 -3.33752039700478e-05 7.86589923231488e-05 0.000244539981444623
"225" 0.00112469855875894 0.000504197549909786 -0.000347207107194623 7.05422694720526e-05 -6.80633857554219e-05 -2.07378587689318e-05 0.000152153819013175 0.000223618180679932 0.000502245131222626 0.000566808596834888 2.92680289028011e-05 0.00054800603542008 1.26728387676033e-05 -3.22477108826932e-05 6.94468879181882e-05 0.000180240221703506
"226" 0.00109340833906132 0.000471929599425779 -0.000349295156500499 6.9412189815689e-05 -8.23408385993438e-05 -3.01981254334878e-05 0.000140179619631075 0.000216621087090642 0.000493360150245432 0.000542302916526068 2.49932779585694e-05 0.000519124399461993 -2.4574550105338e-05 -3.07752858696382e-05 6.08382457582991e-05 0.000118477296832456
"227" 0.00106403096286563 0.000439522933063187 -0.000349461802549367 7.01122171570487e-05 -9.54642603468104e-05 -3.8850679003302e-05 0.000129787666118159 0.000211385880571739 0.00048544569874566 0.000518198084226008 2.18264325698122e-05 0.000491507052019079 -5.96081324561811e-05 -2.89852568948077e-05 5.28725595565766e-05 5.96327733525938e-05
"228" 0.00103663756039562 0.000407164780873415 -0.000347713851770272 7.26348973544356e-05 -0.000107359635433171 -4.66551473634609e-05 0.000121028123168633 0.000207969208706453 0.000478553530226091 0.000494636966742259 1.97780004057887e-05 0.000465314712431997 -9.22341044565222e-05 -2.69089512731218e-05 4.55757358747441e-05 4.05593596282656e-06
"229" 0.00101123443390161 0.000375016360679086 -0.000344078834406993 7.69585490205524e-05 -0.00011796485093992 -5.35770056332279e-05 0.000113937403534468 0.000206417243269286 0.000472720251917869 0.000471755301081973 1.88485310557729e-05 0.000440689172912735 -0.000122296587492624 -2.45796640302493e-05 3.89655412971733e-05 -4.79456864865506e-05
"230" 0.000987790070661616 0.00034323976565336 -0.000338594107039895 8.30364612040714e-05 -0.000127233697088788 -5.95908162553381e-05 0.00010853656714696 0.000206740138352956 0.000467971946226249 0.000449678240263772 1.90305841907673e-05 0.000417753035422019 -0.000149661523797932 -2.20407065174506e-05 3.30495331755084e-05 -9.61018184266477e-05
"231" 0.000966239272989493 0.000311985466461923 -0.000331324189826136 9.08142451796494e-05 -0.00013512550475318 -6.46779199860772e-05 0.000104836243453388 0.00020894575278754 0.00046432127073587 0.000428529669070719 2.03025890133914e-05 0.000396603373521671 -0.000174221003011897 -1.93351635048255e-05 2.7831645879964e-05 -0.000140188744495987
"232" 0.000946459223548127 0.000281387816867464 -0.000322342823029908 0.000100212129818417 -0.000141623996214816 -6.88301880455269e-05 0.000102827324708941 0.000213008992978121 0.000461760997920756 0.00040841605108759 2.26292381259362e-05 0.000377316139551766 -0.000195902349330108 -1.65081689954327e-05 2.33033761770597e-05 -0.000180026317497862
"233" 0.000928296507668647 0.000251572576683817 -0.000311743190014866 0.000111138960854366 -0.000146714363949724 -7.20490892293273e-05 0.000102488463298755 0.00021888162610729 0.000460274461727144 0.000389437426645272 2.5966792685145e-05 0.000359943601154814 -0.000214659648586587 -1.36164480000166e-05 1.94452207923935e-05 -0.000215475343270515
"234" 0.000911553275137921 0.000222654750251616 -0.000299629772659951 0.000123484557340053 -0.00015040363107099 -7.434145432476e-05 0.000103785053996769 0.000226502898590619 0.000459830942459573 0.000371682683833262 3.02652175088959e-05 0.000344514297707325 -0.000230473388403648 -1.07149746085885e-05 1.62352671330556e-05 -0.000246447782141724
"235" 0.000896007586854222 0.000194746124515874 -0.000286126328952118 0.000137128111931713 -0.000152708462246128 -7.57275726424536e-05 0.000106660390113269 0.000235788950196131 0.000460380770056208 0.000355230675634336 3.54566968693336e-05 0.000331031437279858 -0.000243360960953228 -7.86433826284304e-06 1.36386486858184e-05 -0.000272903233341087
"236" 0.000881401433710172 0.000167943159624899 -0.000271365265419493 0.000151936533710281 -0.000153660515481988 -7.62310129897777e-05 0.000111056229126015 0.000246630345051401 0.000461865472972395 0.00034014433865399 4.14689994557213e-05 0.000319473211949954 -0.000253363085752548 -5.12828523403257e-06 1.16136943730652e-05 -0.000294839398844834
"237" 0.000867445527096499 0.000142335753256264 -0.000255492364086433 0.000167760473817732 -0.000153300638066032 -7.58853405959131e-05 0.000116893852777338 0.000258908945836257 0.000464210687706512 0.000326476547463366 4.82207143773104e-05 0.000309794572799693 -0.000260549616784576 -2.56988087358025e-06 1.01131849795067e-05 -0.000312304567643914
"238" 0.000853841866095923 0.000118011411427538 -0.000238659175549933 0.000184446184166616 -0.000151690818025017 -7.47336239748712e-05 0.000124083233027943 0.0002724785799236 0.000467335137252493 0.000314267136206455 5.56228389593027e-05 0.000301932048258458 -0.000265013554597377 -2.53310457280044e-07 9.08384123019975e-06 -0.000325387818427193
"239" 0.000840273360244368 9.50501150828299e-05 -0.000221030660650982 0.000201830541411413 -0.000148890748944807 -7.28203022810229e-05 0.000132521564154953 0.000287185406418511 0.000471141061567157 0.000303547782740092 6.35846832928175e-05 0.000295797030159471 -0.000266874196384973 1.75156502603094e-06 8.46878588276034e-06 -0.000334220854083196
"240" 0.000826404276858831 7.35229987392325e-05 -0.00020277315761742 0.000219745147991234 -0.000144978761016078 -7.02007345595824e-05 0.000142105503352272 0.000302862404755703 0.000475527528203197 0.000294333919516085 7.20054952787863e-05 0.000291282840982106 -0.000266279166590674 3.38003997403514e-06 8.20150094477207e-06 -0.000338967789176717
"241" 0.000811912793208607 5.35041588703016e-05 -0.00018405984423019 0.000238017061218651 -0.000140042578329015 -6.69328810939841e-05 0.00015271457228947 0.00031931979166476 0.000480383041698998 0.000286627683728035 8.07827346667354e-05 0.00028826216564165 -0.000263384175407752 4.57066350531033e-06 8.22184472381478e-06 -0.000339839288094738
"242" 0.000796471114160757 3.50547395142178e-05 -0.000165064394408892 0.00025647481089534 -0.000134173946929644 -6.30789387562059e-05 0.0001642240798165 0.000336375443013801 0.00048559241636699 0.000280423347807164 8.98157866587811e-05 0.000286599089721164 -0.000258374318955989 5.259306973371e-06 8.45902006308889e-06 -0.000337066573063697
"243" 0.00077976726965954 1.82460152367087e-05 -0.000145957565231256 0.00027494409553169 -0.000127468751827296 -5.87019705967803e-05 0.000176503153955001 0.000353825423773794 0.000491036706084075 0.000275704349729951 9.90000077632991e-05 0.00028613641667515 -0.000251440576397503 5.39021239006186e-06 8.85002028609062e-06 -0.000330918278537194
"244" 0.000761504618226769 3.13219448365556e-06 -0.000126912301053175 0.000293258648347944 -0.000120030728692735 -5.38707653277942e-05 0.00018942309688726 0.000371470944718244 0.000496600575274243 0.000272445197332537 0.000108233872130332 0.000286713302202567 -0.000242788398528505 4.90860136491059e-06 9.32745708389321e-06 -0.000321683380460274
"245" 0.000741413057383476 -1.02238693626782e-05 -0.000108094010366254 0.000311251646790183 -0.000111962970868001 -4.86541989539585e-05 0.000202847595313825 0.000389101409681172 0.000502156997582033 0.000270607737850764 0.000117419563713211 0.000288155212311198 -0.000232635652685137 3.76551462962906e-06 9.82943174855964e-06 -0.000309670365407036
"246" 0.00071925860977646 -2.17695760036865e-05 -8.96631086749459e-05 0.00032877037306062 -0.000103374524767808 -4.31173159355877e-05 0.000216645177797772 0.00040652295220755 0.000507596386035073 0.000270147637350479 0.000126463525422729 0.000290286293243529 -0.000221196258468735 1.92116874841721e-06 1.02965570364952e-05 -0.000295205731935276
"247" 0.000694839640354358 -3.14555763281156e-05 -7.17709837802835e-05 0.000345666716905508 -9.43712440032607e-05 -3.73282998904495e-05 0.000230684827614821 0.000423531647287405 0.000512807176842471 0.000271016099966644 0.000135274425937854 0.000292926710221065 -0.000208696476804538 -6.57157699791677e-07 1.06736869018196e-05 -0.000278628610550676
"248" 0.000668003700129816 -3.92325291288524e-05 -5.45538086778315e-05 0.000361809064054873 -8.5051284552265e-05 -3.1349019473622e-05 0.000244834466846537 0.000439932846973737 0.000517686608216996 0.000273150208753283 0.000143773319642555 0.000295898129648617 -0.000195353756997665 -3.99488354809584e-06 1.091461811888e-05 -0.000260282004980616
"249" 0.000638644861374678 -4.50571654476496e-05 -3.8138473677566e-05 0.000377077635336665 -7.55212367916452e-05 -2.52429790307398e-05 0.000258977253331408 0.00045554971183765 0.000522137755226414 0.000276492860486363 0.000151886985507849 0.000299026890278073 -0.000181387643858228 -8.10874267742782e-06 1.09776662204939e-05 -0.000240509591797465
"250" 0.000606711622259417 -4.88971002984175e-05 -2.26399410137618e-05 0.000391366747723901 -6.58684670891904e-05 -1.90618627313925e-05 0.00027299780819271 0.00047020781956776 0.000526079167785509 0.000280969329458302 0.000159552793494739 0.000302142982056018 -0.00016700731963141 -1.30025552636742e-05 1.08330444478052e-05 -0.000219657796431352
"251" 0.000572210561702242 -5.07211975320255e-05 -8.14864234444603e-06 0.000404590806611255 -5.61880279222181e-05 -1.28584235193727e-05 0.000286788353585774 0.000483754123201169 0.000529438433162796 0.000286512309058778 0.000166716989495903 0.000305087207073056 -0.000152410382961007 -1.86706317615089e-05 1.04520621980107e-05 -0.000198058877415401
"252" 0.000535203497376763 -5.05117209035319e-05 5.25244563594477e-06 0.000416681169246159 -4.65500146782126e-05 -6.67905946346197e-06 0.000300258744162203 0.000496045033506131 0.000532154643562156 0.000293049340853495 0.000173336807630933 0.000307713573188317 -0.000137784743709094 -2.50992339637899e-05 9.82621637404809e-06 -0.000176041784499595
"253" 0.000495807953166074 -4.82617058847919e-05 1.75098001994841e-05 0.000427589737961808 -3.70321811107231e-05 -5.60126046081746e-07 0.000313323696083594 0.000506966273484076 0.000534184158643157 0.000300499317134852 0.00017938292697884 0.000309884561142806 -0.000123305326180178 -3.22640480918297e-05 8.94657684821545e-06 -0.000153911114122064
"254" 0.000454209708615208 -4.39723859235962e-05 2.85812157236792e-05 0.000437285859519381 -2.76904735239905e-05 5.46593992493212e-06 0.000325908152869641 0.000516412265099851 0.000535500565143066 0.000308788223199775 0.000184838163406959 0.000311486130646866 -0.000109123332565827 -4.01227709642934e-05 7.8225676469021e-06 -0.000131960162994611
"255" 0.000410639181684709 -3.76578551923551e-05 3.84462429674958e-05 0.000445762210031084 -1.85727914607514e-05 1.13746779103591e-05 0.000337961302521959 0.000524311130298746 0.000536085507368546 0.000317840733615096 0.000189690923743598 0.000312415031498691 -9.53771101582624e-05 -4.86314496717182e-05 6.46559014555337e-06 -0.000110459874023682
"256" 0.000365392491288512 -2.93435593127154e-05 4.71122502294337e-05 0.000453033718961826 -9.71879691180366e-06 1.71514622502923e-05 0.000349432115632083 0.000530603988890907 0.000535937287667047 0.000327578002456342 0.000193953781948574 0.00031259156817624 -8.21885426940781e-05 -5.773256265877e-05 4.90095894411322e-06 -8.96507756820976e-05
"257" 0.000318799629536991 -1.90840652484677e-05 5.46003970164762e-05 0.000459132987434597 -1.15493418433945e-06 2.27855677561381e-05 0.000360295158554671 0.000535264355457409 0.000535076828601534 0.000337926335839277 0.000197636772391158 0.000311955802444077 -6.96493909308488e-05 -6.73559659156384e-05 3.16288564254393e-06 -6.97532546318741e-05
"258" 0.000271249648839532 -6.93020145178762e-06 6.09555182435763e-05 0.00046411359323819 7.10604244665368e-06 2.82745871966039e-05 0.000370530933904109 0.00053828234542979 0.000533527863296629 0.000348811532255132 0.000200768895504351 0.000310467273445303 -5.7840478655395e-05 -7.74283879170181e-05 1.29213513114943e-06 -5.09576611625787e-05
"259" 0.000223162369596182 7.04520213828813e-06 6.62437201520927e-05 0.000468051183985424 1.50631467814853e-05 3.3625726968055e-05 0.000380140992190147 0.000539678012238461 0.000531332308274266 0.000360166122516774 0.000203391499452982 0.000308105749194828 -4.68110187938216e-05 -8.78688552649582e-05 -6.60557021586166e-07 -3.34173820549403e-05
"260" 0.000174986718653067 2.27477865095285e-05 7.05503128921181e-05 0.00047103638915861 2.27297448126629e-05 3.88524681834477e-05 0.000389138143606168 0.000539497538971613 0.000528547344119983 0.000371916036293753 0.000205545770362079 0.000304874147052342 -3.66015129064832e-05 -9.85873842277205e-05 -2.64230190361298e-06 -1.72624909829991e-05
"261" 0.000127207910626591 4.0083033497027e-05 7.39779558231843e-05 0.000473180092576758 3.0119653336588e-05 4.39704495211029e-05 0.000397551021639884 0.000537801768360963 0.000525236751865667 0.000383997995408951 0.000207292714191327 0.000300794667596309 -2.72225220076965e-05 -0.000109489945040892 -4.59144973727319e-06 -2.5892186473658e-06
"262" 8.03166289715756e-05 5.89337464285445e-05 7.66494745974627e-05 0.000474609027261536 3.72688757786644e-05 4.90065315584196e-05 0.000405410552395555 0.000534680605401999 0.000521468110370323 0.000396352586589094 0.000208688792481184 0.00029591274137395 -1.86677182997747e-05 -0.00012047870040897 -6.44416421828879e-06 1.05439901528667e-05
"263" 3.48209268076449e-05 7.91679663506703e-05 7.87037601504383e-05 0.000475461546543369 4.42227057268414e-05 5.39886826459825e-05 0.000412776154196144 0.000530244748781651 0.000517331953808627 0.000408915227545865 0.000209807936353981 0.000290290855903204 -1.09137055957586e-05 -0.000131459906982928 -8.13020475809816e-06 2.21063268266873e-05
"264" -8.76456720107772e-06 0.000100655566023507 8.02946804231834e-05 0.000475890543697221 5.10252824553033e-05 5.89507432222704e-05 0.00041970717636907 0.000524624085281896 0.000512907021200313 0.000421632299057327 0.000210719295885589 0.000284006845015485 -3.92265942798324e-06 -0.000142330619780511 -9.58680929720525e-06 3.20951999720904e-05
"265" -4.99365689163522e-05 0.000123251121030437 8.15865526268633e-05 0.000476057660587159 5.77361637217721e-05 6.39291864333595e-05 0.000426270820263145 0.000517961879795052 0.000508282792774036 0.00043445302338199 0.000211497057897983 0.000277158736764041 2.36195849551189e-06 -0.000152994050125073 -1.07417063966757e-05 4.05415948670175e-05
"266" -8.81878713864156e-05 0.000146808463724161 8.27556118032158e-05 0.000476134201556838 6.44189950233862e-05 6.89627621384512e-05 0.000432552484935957 0.000510422990307086 0.000503551351765669 0.00044732751056135 0.000212220755789031 0.000269856142671919 8.00777407268134e-06 -0.000163361653899776 -1.15333736323699e-05 4.75048432846876e-05
"267" -0.000123042359551084 0.000171173370321386 8.39898014163784e-05 0.000476293255581219 7.11444943982291e-05 7.40924028472299e-05 0.000438632668969955 0.000502183061840841 0.00049880531980414 0.000460208549363155 0.000212967484180715 0.000262223300391519 1.30914264460751e-05 -0.000173337032225769 -1.1895097172981e-05 5.3068717810879e-05
"268" -0.00015403012833763 0.000196198300134703 8.54744143998106e-05 0.000476716489070632 7.79868232859122e-05 7.93587317512379e-05 0.00044460738637685 0.000493424713597139 0.000494126685234277 0.000473055189632033 0.000213810878382995 0.000254393683255268 1.76989426788612e-05 -0.000182840919891962 -1.17687551435834e-05 5.73475307520735e-05
"269" -0.000180709016625363 0.000221730979181574 8.7411149675251e-05 0.000477581479924357 8.50161591739756e-05 8.47998936542093e-05 0.000450573706517708 0.000484346043288743 0.000489606927944972 0.000485828319508744 0.000214827554280446 0.000246511760498428 2.19244376127571e-05 -0.000191794441615534 -1.11019335309177e-05 6.04729655212941e-05
"270" -0.000202669305993804 0.000247632912162269 8.99885959802686e-05 0.000479066697410255 9.2312488208948e-05 9.04572083900282e-05 0.000456626355305851 0.000475148387224929 0.00048532307785299 0.000498493649511634 0.000216086318261396 0.00023872316858964 2.58628949537064e-05 -0.000200130009707326 -9.8460890049591e-06 6.2597997830163e-05
"271" -0.000219530535407835 0.000273763600072452 9.34007501259975e-05 0.00048134695936749 9.99478808026289e-05 9.63642738059598e-05 0.000462865487701763 0.000466036667931493 0.000481348369967865 0.000511017076199221 0.000217652910099296 0.000231183183610258 2.96188208934737e-05 -0.00020778640528087 -7.96208920236763e-06 6.3898377205818e-05
"272" -0.000230948634945565 0.000299996630191922 9.78430956911485e-05 0.000484589070809432 0.000107999885493482 0.000102557895702227 0.000469391293253977 0.00045721788075836 0.000477748833957223 0.000523368732367561 0.000219589788789669 0.000224050878740258 3.32888560034226e-05 -0.00021471242597831 -5.41295064365365e-06 6.45581274386563e-05
"273" -0.000236613163328929 0.000326215478528869 0.000103494491503449 0.000488953915849036 0.000116539363335367 0.000109065588313665 0.000476303040141124 0.00044889969891708 0.000474585594971094 0.000535526370069203 0.000221951434034628 0.000217477910343054 3.69752600728621e-05 -0.000220861989427234 -2.1769712196341e-06 6.47823784645404e-05
"274" -0.000236253461538047 0.000352322037238678 0.000110529138285467 0.000494588745007418 0.000125629410277872 0.000115917329489837 0.000483696068474154 0.000441284595924373 0.000471908313379702 0.00054746515192312 0.000224782548685891 0.000211622870793745 4.07729746144051e-05 -0.000226210107818281 1.7630429587977e-06 6.47789001773178e-05
"275" -0.000229647743968561 0.00037821515345391 0.000119108619307441 0.000501633566249605 0.000135333307553297 0.000123133538022206 0.000491657037381406 0.000434574150592944 0.000469758459336743 0.000559163898451484 0.000228126664343917 0.000206641624460282 4.47810003452085e-05 -0.000230725370287754 6.41963232245649e-06 6.47692374025352e-05
"276" -0.000216602808921107 0.000403827873308704 0.000129378098200055 0.000510209055493691 0.000145707168415068 0.000130730455715634 0.00050027217827324 0.00042895997140489 0.000468169684584912 0.000570609954432876 0.000232018259174558 0.000202680024174514 4.90843218020911e-05 -0.000234400133533732 1.17927411048063e-05 6.49785419003194e-05
"277" -0.000196978243522986 0.00042909546150062 0.000141472438293491 0.000520424876841401 0.000156798745879979 0.000138722210161057 0.000509621309150003 0.000424630944971911 0.000467170965343131 0.000581783271709263 0.000236481686095621 0.000199885940132378 5.37732466502354e-05 -0.000237224148104681 1.78773161323241e-05 6.56298175743376e-05
"278" -0.000170678185369675 0.000453964819478471 0.000155502718086074 0.000532369721190071 0.00016864660020511 0.000147116626347952 0.000519774483378513 0.000421760304271009 0.000466777277916544 0.000592679504262515 0.000241538712752174 0.000198393740709461 5.89217491066034e-05 -0.000239201142241463 2.46589932737688e-05 6.6947459875033e-05
"279" -0.000137651513749007 0.000478406098180925 0.000171558239023154 0.000546117979478731 0.00018128524740195 0.000155916068708014 0.000530800262239964 0.000420514299689281 0.000467003676569879 0.000603287758525287 0.000247197724774394 0.000198334663842822 6.46090664014918e-05 -0.000240342640237458 3.21206702453348e-05 6.91530157548072e-05
"280" -9.78966634389737e-05 0.000502389413999528 0.000189710050673654 0.000561722382362317 0.000194739138345335 0.000165118089062715 0.000542743875005094 0.000421044443252598 0.00046785719263891 0.000613601337181241 0.00025346795379403 0.000199829056149401 7.08960044426283e-05 -0.000240661928950674 4.02387289164249e-05 7.24582041884261e-05
"281" -5.14570304750495e-05 0.000525909798905169 0.000209998763508713 0.000579214686282089 0.000209019763665147 0.000174717323922417 0.000555654920982619 0.000423492664079043 0.000469331176639373 0.000623617152226723 0.000260344309778958 0.000202988555128406 7.78491186256056e-05 -0.000240179063736984 4.89849053315384e-05 7.70650109107935e-05
"282" 1.5641836694844e-06 0.000548962595815275 0.000232452058665172 0.000598608003224242 0.000224131441522945 0.000184699623465691 0.000569559754227335 0.000427982551407077 0.000471424296034942 0.000633335158290763 0.000267818257979047 0.000207910499796468 8.55169265157597e-05 -0.000238925635975584 5.8321442236562e-05 8.31636029355326e-05
"283" 6.10208712290271e-05 0.000571557537943624 0.000257056574325527 0.000619893657479742 0.000240072543338188 0.000195052842209141 0.000584485259197532 0.000434624357019267 0.000474122859330038 0.000642753204431868 0.000275879326392428 0.000214683943187646 9.39478111989775e-05 -0.000236928776130518 6.82123691090845e-05 9.09215993381443e-05
"284" 0.000126698812470732 0.000593704414513282 0.000283780238541227 0.000643037267020669 0.00025681971417846 0.000205751127205224 0.000600432245118002 0.000443501124761273 0.000477415827268436 0.000651874756996636 0.000284499162012879 0.000223378215148981 0.000103181368653291 -0.000234224301769398 7.86155590070261e-05 0.000100488414760197
"285" 0.000198332077484565 0.000615426452788574 0.000312559636056527 0.000667989315527714 0.000274349918032759 0.000216771557130052 0.000617397764662624 0.000454691684766316 0.000481278136064237 0.000660702968320287 0.000293658372064677 0.000234053575944472 0.000113244406725794 -0.000230847226675718 8.94878145642264e-05 0.000111988944335289
"286" 0.000275584591440401 0.000636739393646559 0.000343304371189934 0.000694669702361223 0.000292621551688479 0.000228085928921687 0.000635354865734155 0.000468242767420749 0.00048568895828955 0.000669239651703104 0.000303318864074345 0.000246748657735278 0.000124165135097973 -0.000226838646197595 0.000100783162824862 0.000125523413949812
"287" 0.000358065423869406 0.00065767262649996 0.000375890559001144 0.000722982158088518 0.000311586400619753 0.000239657567791711 0.000654266487531594 0.000484183214094189 0.000490621641677594 0.000677485212389095 0.000313449139348101 0.000261489109981859 0.000135953349045747 -0.000222242177228655 0.000112451258619686 0.00014115972920524
"288" 0.000445301177543191 0.000678244964540798 0.000410172737290594 0.000752804882432151 0.000331178153891496 0.000251446927192582 0.000674078657016287 0.000502517148781606 0.000496038777595962 0.00068544201873193 0.000323999560276258 0.000278274423721721 0.000148612279200947 -0.000217101541193349 0.000124440322476455 0.000158932398658079
"289" 0.000536752732944258 0.000698484073768314 0.000445971501147789 0.000783993588476487 0.000351324118278434 0.000263414287890197 0.000694714099105194 0.000523222889614637 0.000501907505032972 0.00069310796332175 0.000334925238385408 0.000297090594354606 0.00016213596228095 -0.000211461428067802 0.00013669554498476 0.000178843478240412
"290" 0.000631804253574302 0.00071840977992153 0.000483077689288035 0.000816385344153481 0.00037193461391616 0.000275505913747859 0.000716082208903782 0.000546251183836196 0.000508179882242633 0.000700482587994183 0.000346170369097535 0.000317890650339491 0.000176502891680426 -0.000205375548298329 0.000149160312317145 0.000200857021609464
"291" 0.00072975774741859 0.000738037692960051 0.000521262841184571 0.000849790325328733 0.000392903530020921 0.000287670208526595 0.000738067674751109 0.000571524069481501 0.00051480755086718 0.00070755866084108 0.000357676120315343 0.000340610876090509 0.000191680301709615 -0.00019889151145908 0.000161776597367042 0.000224902701575367
"292" 0.000829835719833691 0.000757378072423827 0.000560265768369881 0.000884005446503093 0.000414120349015131 0.000299849547015967 0.000760538287625353 0.00059893764166381 0.000521731702386875 0.000714325268179254 0.000369373498417162 0.000365161375294356 0.000207621082121621 -0.000192068724163864 0.000174478381109608 0.000250863871608202
"293" 0.000931183441422848 0.000776443251703862 0.000599802105459073 0.000918801118179662 0.000435452182305812 0.000311974782207305 0.000783335209730826 0.000628343400933018 0.000528885890314615 0.000720766446183726 0.000381190366867124 0.000391416365048896 0.000224260311835317 -0.000184961772701917 0.000187196307651518 0.000278590047073088
"294" 0.00103286913068891 0.00079523738756241 0.000639561865437132 0.000953936075993563 0.000456756779302142 0.000323977033454961 0.00080628576788987 0.000659572898764816 0.000536195159886693 0.000726864965319412 0.000393052779120482 0.000419230805571802 0.000241518712547784 -0.000177634454454107 0.000199861742907307 0.000307892899669728
"295" 0.00113388011716124 0.000813761493947111 0.000679225472075831 0.000989145230961701 0.00047787713625816 0.000335775993387489 0.000829185080638152 0.00069241306216259 0.000543573829688871 0.000732593351032944 0.000404868842448975 0.000448424008614585 0.000259293323804414 -0.000170154915435094 0.000212395730030759 0.000338543609409844
"296" 0.00123313794529386 0.00083201199422571 0.00071844176607782 0.0010241540916808 0.000498642044361253 0.000347289907129409 0.000851818318179651 0.000726624006383924 0.000550924095260418 0.000737922483343976 0.000416553708285059 0.000478788765387612 0.000277473086599822 -0.000162595175218868 0.000224719760856258 0.000370280307252574
"297" 0.00132951273803147 0.00084998997187144 0.000756854824633897 0.00105867218600929 0.000518864280294446 0.000358427930180734 0.000873944499017537 0.000761924866555298 0.000558142934183642 0.000742813374604978 0.000428005021469771 0.000510085231718243 0.000295915190983478 -0.000155028966223264 0.000236743899315127 0.000402811056995501
"298" 0.00142182321645899 0.00086768537384962 0.000794091124338798 0.0010923991677587 0.000538351202696145 0.000369092602672826 0.000895296181842942 0.000797999765570539 0.000565111846450224 0.000747224843865731 0.000439121979754003 0.000542047488320697 0.000314463953880472 -0.000147542039951668 0.000248377780184399 0.000435808068894138
"299" 0.00150886330740217 0.000885095670553028 0.000829773585448631 0.00112502515605155 0.000556898574401404 0.000379179640069711 0.00091559568082204 0.000834505144857894 0.000571708199761518 0.00075111109269517 0.000449799403141676 0.000574380403370719 0.000332952785286202 -0.00014021698754215 0.000259523695762208 0.000468919620741337
"300" 0.00158942083372388 0.000902220115361736 0.000863513293122155 0.00115623604091534 0.00057428200186201 0.00038858465578986 0.000934552173767156 0.000871057178615903 0.000577791711972231 0.000754416133990329 0.00045992271893221 0.000606763921241962 0.000351183463355576 -0.000133147131926411 0.000270082806137212 0.000501781302204976
"301" 0.00166228950015899 0.000919055986526957 0.000894932916006589 0.001185716029765 0.000590280683508185 0.000397193363578954 0.000951850137803955 0.000907250581499011 0.0005832263209983 0.00075708427939925 0.00046937644391338 0.000638853619297727 0.000368957842714301 -0.000126420641085965 0.000279950308183728 0.000534001665407246
"302" 0.00172631930442105 0.000935606397227654 0.00092364944123809 0.00121314854818552 0.000604669340294674 0.000404891793177705 0.000967176265693701 0.000942650150502515 0.00058786047069872 0.000759053282037772 0.00047805032171676 0.00067029082426119 0.000386054806469637 -0.000120135793351945 0.00028902334520409 0.00056518722715719
"303" 0.00178041509091979 0.000951878811941382 0.000949294509249368 0.00123822484592301 0.000617211674348604 0.000411561785301365 0.000980203878228942 0.000976800991981815 0.000591544348754095 0.000760263114175332 0.000485824331538874 0.000700697408387601 0.000402254385920773 -0.000114385000835298 0.000297195523940749 0.000594934148251331
"304" 0.00182359178706024 0.000967890252083208 0.000971510085548258 0.00126064343238871 0.000627680704265097 0.000417087585769937 0.000990609438314725 0.00100922732142206 0.000594128796962817 0.000760649185391597 0.000492586331743639 0.000729687475248948 0.000417322821043424 -0.000109270100851069 0.00030436140766031 0.000622839763698935
"305" 0.00185498905289728 0.000983661574899521 0.000989960674485249 0.0012801151870204 0.000635845621078663 0.000421353660974033 0.000998066987887887 0.00103944962614607 0.000595466944745884 0.000760150195621402 0.000498232567202515 0.000756873722827768 0.000431032181589557 -0.000104874438825375 0.00031042620622415 0.000648508261903616
"306" 0.0018738904064574 0.000999214931591435 0.00100433000400585 0.00129636855299247 0.000641487313632001 0.00042424760719037 0.00100225933674454 0.00106697776963501 0.000595416336470992 0.000758704318003245 0.000502657185534979 0.000781867091390559 0.000443155489801921 -0.000101286639897814 0.000315287155683427 0.000671555613692679
"307" 0.00187977530718989 0.00101458404623579 0.00101433720558737 0.00130915488319925 0.00064439441856137 0.000425664829347062 0.00100289343941991 0.0010913306353489 0.000593847163683069 0.000756256707798771 0.000505772024867044 0.000804288367547097 0.00045348421655306 -9.85897592818003e-05 0.000318867777348057 0.000691619392613423
"308" 0.0018723068588419 0.00102980113715165 0.00101972271176669 0.0013182460336818 0.000644372263638195 0.000425504575597038 0.000999676244433261 0.00111202980008616 0.000590640832866837 0.000752755024338462 0.000507493947871202 0.000823775436650007 0.000461817987467123 -9.68444682645699e-05 0.000321087018232099 0.000708352325919015
"309" 0.00185137609919044 0.00104490540819772 0.00102027404896731 0.00132344668887631 0.000641242430945811 0.000423681176124754 0.000992351296351667 0.00112861640360569 0.000585694443974314 0.000748157490122597 0.000507756374773123 0.000839985369329501 0.000467973797680694 -9.61150907020097e-05 0.000321884017761435 0.000721439620001408
"310" 0.00181708285680592 0.00105994007043564 0.0010158098529331 0.0013245878008921 0.000634846707155351 0.000420115623535417 0.000980688540627715 0.00114065611197656 0.000578929209693664 0.00074242713370413 0.000506512772075798 0.00085260213990804 0.00047180128430543 -9.64421052955668e-05 0.00032121143740985 0.000730605376936461
"311" 0.00176975190416094 0.00107493894342908 0.0010062026578798 0.00132154106123417 0.000625058123007094 0.000414749009220407 0.000964495292517208 0.00114774993987639 0.000570283599067216 0.000735541004304125 0.000503726862476541 0.000861348369652699 0.000473176296022344 -9.78505378919818e-05 0.000319037162565524 0.000735600732977549
"312" 0.00170992742782885 0.0010899405015279 0.000991360837613361 0.00131420997348794 0.000611766544146599 0.000407532752538062 0.000943607524779362 0.00114953433504832 0.000559726036725542 0.00072748513108227 0.000499385460875064 0.000865983894613312 0.000472009197493758 -0.000100346207628907 0.000315351930787118 0.00073622659149767
"313" 0.00163834398880055 0.00110497681066161 0.00097124138110903 0.00130254072113636 0.000594901216742322 0.000398437897004612 0.000917913452218726 0.00114569260929574 0.000547246026494247 0.000718259874935335 0.000493493762220616 0.000866312743742294 0.000468247032463038 -0.000103924139124977 0.000310161969062544 0.000732325974774728
"314" 0.00155592738850154 0.0011200704854043 0.000945858191435609 0.00128651812384482 0.000574416983679013 0.000387453866830938 0.000887338800748077 0.00113596168645985 0.000532867467177281 0.000707879421198716 0.000486083167172106 0.000862190410367199 0.000461875250244009 -0.00010854981115366 0.000303497772875944 0.000723792918933049
"315" 0.00146375230582377 0.00113523548763315 0.000915263235064278 0.00126616706832565 0.000550304039544478 0.000374591172374665 0.000851864895010285 0.00112013411063131 0.000516638644569976 0.00069636983672437 0.000477200179345502 0.000853522675586123 0.000452925013785302 -0.000114172296836359 0.000295409385804693 0.000710571210604692
"316" 0.00136301819118508 0.00115047355925089 0.000879565251811178 0.00124155309812699 0.000522596631386685 0.00035987430325165 0.000811520227553996 0.0010980672185726 0.000498634931039899 0.000683771796934841 0.000466914878514705 0.000840272470341193 0.000441461766134338 -0.000120717062663131 0.00028596814344636 0.000692653863008637
"317" 0.00125502358388348 0.00116577460818453 0.000838921666249806 0.0012127872606669 0.000491352083000309 0.00034335792627934 0.000766377067687617 0.00106968386713033 0.000478964426774117 0.000670146396913602 0.000455319606822951 0.000822462809418698 0.00042760425089341 -0.000128090183528401 0.000275269374354366 0.000670092653248231
"318" 0.00114112865154496 0.00118111559130039 0.000793531330771339 0.0011800140881235 0.000456671384516085 0.000325108886065822 0.00071657233245755 0.00103497274563077 0.000457760327135628 0.00065555991221537 0.000442522272249517 0.000800168378656221 0.000411496357154246 -0.000136179017574197 0.000263424142769155 0.000642985931851846
"319" 0.00102272100342384 0.00119645852439308 0.000743641932684159 0.00114341937474921 0.000418689426708635 0.00030521869935669 0.000662285455276391 0.000993990599778221 0.000435176275156455 0.000640099368889142 0.000428655416424014 0.000773521211785927 0.000393333851641925 -0.000144849115923066 0.0002505680121684 0.00061148860407963
"320" 0.00090118521803014 0.00121174828653466 0.000689541282825595 0.00110322326901689 0.000377579214226943 0.00028379554818358 0.000603741251443949 0.000946865850953612 0.000411396819307101 0.000623862605935395 0.000413862437753948 0.00074271376030207 0.000373341258694306 -0.000153957392545033 0.000236847526816946 0.000575806772317124
"321" 0.000777887402779809 0.00122691536414778 0.000631557355962471 0.00105968060716707 0.000333544130138469 0.00026096598848784 0.000541222919557903 0.000893795349842092 0.000386613548799019 0.000606957023869544 0.00039830087254666 0.000707983989226514 0.000351780508153007 -0.000163336675760168 0.000222430081220176 0.00053619531601669
"322" 0.000654137295335802 0.00124188494585513 0.000570055397044653 0.00101307327645384 0.000286816347216826 0.000236874028256544 0.000475048187657969 0.000835032691774507 0.000361044256021664 0.000589506799167978 0.000382143691992686 0.000669623423992488 0.000328928725866499 -0.000172814817892156 0.000207490401851877 0.000492951857208771
"323" 0.000531176075671389 0.00125655937278193 0.00050543384983088 0.000963713747033694 0.000237665118093777 0.000211676504924428 0.000405574052709768 0.000770903089253704 0.000334908953064167 0.000571634116250969 0.000365566042277815 0.000627965475344764 0.000305100957860858 -0.000182210313120312 0.000192216386801364 0.000446422708447134
"324" 0.000410164499209553 0.00127083605122202 0.000438108187944024 0.000911933366923468 0.000186380356853726 0.000185544923835757 0.000333203242232345 0.00070178519670297 0.00030844221431372 0.0005534800999558 0.000348753931354746 0.000583385237875623 0.000280612405116004 -0.00019133334527566 0.000176797776406496 0.000396986390087981
"325" 0.000292154788547043 0.00128460721384695 0.000368531515628688 0.000858082280620783 0.000133274867480139 0.000158661645701086 0.000258357094302358 0.000628100873786503 0.000281876257938443 0.000535181871087831 0.000331894378198377 0.000536286458138393 0.000255799941185376 -0.00020000227542697 0.00016143231495075 0.000345060504136267
"326" 0.000178114282413343 0.00129775682895957 0.000297168554317158 0.000802529402038478 7.86833794315691e-05 0.00013121540290555 0.000181496217756347 0.000550331234808831 0.000255446562760575 0.000516883764335363 0.000315169036788151 0.000487103293449203 0.000230998479290998 -0.00020802410076985 0.000146313366650773 0.000291088933155002
"327" 6.88896585802165e-05 0.00131016511868436 0.000224498738175111 0.000745648886898994 2.2961443425424e-05 0.000103402279055321 0.000103092525246586 0.000468982806698698 0.000229380614562616 0.000498731444967406 0.000298763263590858 0.000436290279895598 0.000206543791294626 -0.000215217325968371 0.000131632207494606 0.000235541963657284
"328" -3.47727707382837e-05 0.00132171835914902 0.000151014558834612 0.0006878261423514 -3.3531008625702e-05 7.54209228437379e-05 2.36338739295399e-05 0.000384603062365729 0.000203895622971582 0.000480867285884491 0.000282848682027764 0.000384317402842424 0.000182764722615041 -0.000221413031053118 0.000117575672107494 0.000178904686382705
"329" -0.000132233547354022 0.00133229581792097 7.72127293459786e-05 0.000629447374134129 -9.04206311134559e-05 4.74697248253549e-05 -5.63716210713806e-05 0.000297753716123852 0.000179192683180692 0.000463429467499305 0.000267591467202064 0.000331658794232095 0.000159969194588779 -0.000226448789365114 0.000104313146664531 0.000121682441195036
"330" -0.000222956392998329 0.00134178931625981 3.59269533234073e-06 0.000570897922186285 -0.000147328472613378 1.97493752414305e-05 -0.000136421193862185 0.000209023841486986 0.000155463074954309 0.000446558319936594 0.000253141628029647 0.000278794052158817 0.000138457541622895 -0.000230178835917454 9.20080464260023e-05 6.43809745482012e-05
"331" -0.000306495745806598 0.00135009857888405 -6.93498686470294e-05 0.000512555999331487 -0.000203870692703605 -7.54799957166262e-06 -0.000216004077956561 0.000119005037189326 0.000132878927382832 0.000430380877813083 0.000239637580245584 0.000226194456852963 0.000118500525071729 -0.000232479517634202 8.08096173069436e-05 7.5133216308195e-06
"332" -0.000382496978817918 0.00135713356805224 -0.000141128380980078 0.000454796038445241 -0.000259675658150822 -3.42322261609383e-05 -0.000294619526890209 2.82946273726227e-05 0.000111581701031745 0.000415016943006327 0.000227202580253072 0.000174327877077227 0.000100342806008445 -0.000233237048533946 7.08431023938033e-05 -4.84094891527921e-05
"333" -0.00045068116102781 0.00136281142727942 -0.000211259424217935 0.000397979000776468 -0.000314366767637629 -6.0123536688913e-05 -0.000371766483848613 -6.25129072318189e-05 9.17024228213692e-05 0.000400581163747759 0.000215942510647928 0.000123640904419138 8.42033643963947e-05 -0.000232365038013599 6.22233497420228e-05 -0.000102888336581022
"334" -0.000510844802672744 0.00136707383531713 -0.000279278167078004 0.000342451093604461 -0.000367584142119684 -8.50489625994693e-05 -0.000446968716752333 -0.00015282604610577 7.33425214645043e-05 0.000387173406885819 0.000205940475320986 7.45690465915968e-05 7.02644334368766e-05 -0.000229800101614216 5.50415842986545e-05 -0.00015542563198077
"335" -0.000562851393808694 0.00136987025083009 -0.000344731531722382 0.000288545255677076 -0.00041896500114207 -0.000108846204998215 -0.000519752168877592 -0.000242074125299191 5.6579301766173e-05 0.000374886963884477 0.00019726713505815 2.75218526830603e-05 5.86839706467176e-05 -0.000225494695551311 4.93685826946893e-05 -0.000205548620452301
"336" -0.000606611509021955 0.0013711698347395 -0.000407195290949591 0.000236573821135485 -0.000468176668011612 -0.000131366414013004 -0.000589665848588459 -0.000329694528174233 4.14704626889768e-05 0.000363804681272345 0.000189975855646612 -1.71130972903718e-05 4.95798661076964e-05 -0.000219430743487338 4.52592901928106e-05 -0.000252796320666232
"337" -0.000642087567312618 0.00137096160761325 -0.000466258625169254 0.00018682860106049 -0.00051489099315169 -0.000152470592132403 -0.000656276654729947 -0.000415147771210899 2.80530300632453e-05 0.000353997062082062 0.000184098946846985 -5.89772211658619e-05 4.30451566818075e-05 -0.000211604976121338 4.27494835121597e-05 -0.000296733958924709
"338" -0.0006692826622729 0.00136924558770969 -0.000521541126180006 0.000139584835416066 -0.000558802264131709 -0.000172032627187546 -0.000719176854767524 -0.000497919467717651 1.63416404786726e-05 0.000345520341531202 0.000179653289624235 -9.77341040723981e-05 3.91403718208849e-05 -0.000202040012262162 4.18517246439798e-05 -0.000336955645901482
"339" -0.000688241580466049 0.00136604025817414 -0.000572685454688116 9.50887908896364e-05 -0.000599619165248495 -0.000189938747716608 -0.000777980915783166 -0.000577512986529201 6.33401427436703e-06 0.000338424237363194 0.000176638762109479 -0.000133081634477235 3.78975978576989e-05 -0.000190771259218247 4.25673100184713e-05 -0.000373075706617388
"340" -0.000699020611819176 0.00136138583597336 -0.000619365771018857 5.35673655767662e-05 -0.000637075253938923 -0.000206092084779412 -0.000832317278377696 -0.000653460529206044 -1.99135337883863e-06 0.000332747084770856 0.000175050724477349 -0.000164745533792724 3.93248437223885e-05 -0.000177856297736387 4.48807674042945e-05 -0.000404754764083662
"341" -0.000701713218813514 0.00135533020602128 -0.000661287160176322 1.52245602749598e-05 -0.000670922334132504 -0.000220399982066574 -0.000881854618215496 -0.000725321854507714 -8.66419478859574e-06 0.000328514962521042 0.000174858410939284 -0.00019248108741826 4.34022542321656e-05 -0.000163367750202224 4.87614191133368e-05 -0.000431681106325029
"342" -0.00069642712181493 0.00134793528297327 -0.000698182442813364 -1.97613851987104e-05 -0.00070093546269079 -0.000232792976793651 -0.000926281976414962 -0.000792685711289767 -1.37305608448419e-05 0.000325748957000677 0.000176032352556571 -0.000216074879026457 5.00935885162032e-05 -0.000147392266161688 5.41637249708704e-05 -0.00045358948343597
"343" -0.000683291481861453 0.00133927498850191 -0.000729821482462666 -5.12383192450024e-05 -0.000726913951400426 -0.00024320617437589 -0.00096531017744307 -0.000855167287895561 -1.72419891193356e-05 0.000324451439802928 0.00017852461221852 -0.000235342045879106 5.93434289321597e-05 -0.000130025948785531 6.10377502190271e-05 -0.000470255815889496
"344" -0.000662444640155676 0.00132942373121438 -0.000756007112044211 -7.90759331744018e-05 -0.000748678302145246 -0.000251589035821574 -0.00099868820152201 -0.000912410754479084 -1.92606925682435e-05 0.000324621200053765 0.000182285061863494 -0.000250134979912561 7.10791692815171e-05 -0.000111376385298686 6.93164936153384e-05 -0.000481504155011734
"345" -0.000634046297056379 0.00131846597610632 -0.000776580010268925 -0.000103172415215994 -0.00076608150667971 -0.000257902847247987 -0.00102618712229885 -0.000964095353885576 -1.98570036796709e-05 0.000326247954059283 0.000187254835282879 -0.000260330803375595 8.52170218430023e-05 -9.15582322153894e-05 7.89288519536535e-05 -0.000487211351998714
"346" -0.000598257666766666 0.00130648364988616 -0.000791411414461563 -0.00012344840915353 -0.00077899606032458 -0.000262124199717928 -0.00104761223090114 -0.00100992876849011 -1.91020867496639e-05 0.000329306958511354 0.000193368583450753 -0.000265848489386216 0.000101654172562231 -7.06985847622957e-05 8.97923745109507e-05 -0.000487305780239068
"347" -0.00055526899721361 0.00129355562917628 -0.000800413997563736 -0.000139850283387569 -0.000787320865874076 -0.000264236738032509 -0.00106280322664248 -0.00104965432344897 -1.70750339562633e-05 0.000333768666043877 0.000200556129027292 -0.000266633422876644 0.00012028176269077 -4.8924109253297e-05 0.000101820782541081 -0.000481777602559123
