"V1" "V2" "V4" "V5" "V7" "V8" "V10" "V11" "V13" "V14" "V15" "V17" "V18" "V20" "V21" "V23"
"1" 0.000585987249671518 -0.000138166819511715 5.04082683685475e-05 -0.000527102309088065 -0.000325251532251223 -0.000373579991093027 -0.000259811638801862 -0.000371263231996903 -8.44602540829722e-05 -0.000395426806251913 -0.000439939985752898 -0.000283355319992554 -0.000293802466334664 -0.000764049411581985 -0.000489679402180496 -0.00017295819752291
"2" 0.000594368032613129 -0.000132402480690385 6.95791513412594e-05 -0.000513700967584465 -0.000297990985919614 -0.000368794407388322 -0.000229485098356412 -0.000380782514618405 2.04329084808727e-05 -0.000398559431046656 -0.000445196827172123 -0.000276431693378468 -0.000295281873609484 -0.000780971696511486 -0.000507330312245707 -0.000174192112986438
"3" 0.000602118448546771 -0.000124756858406233 8.92237386288176e-05 -0.000498829098143379 -0.000270670448780947 -0.000362592081482059 -0.000199690578466437 -0.000389132668771654 0.000128219763673271 -0.000399549040811709 -0.000448384059462057 -0.000267726432162698 -0.000294115488213232 -0.000795700261555522 -0.000522768233493841 -0.000174081108709875
"4" 0.000609128390302525 -0.000115265075915543 0.000109229813315758 -0.000482541769818025 -0.000243437223254463 -0.000355006809241628 -0.000170603562010914 -0.000396331330887608 0.000238815405608159 -0.000398385659891568 -0.000449400318877687 -0.000257221741959566 -0.000290270221449215 -0.000808035611812124 -0.000535822149981468 -0.000172561729541129
"5" 0.000615291407126946 -0.000103973286028369 0.000129468858551206 -0.000464895299555099 -0.000216434729067933 -0.000346080429181701 -0.000142395561376742 -0.000402411220883873 0.000352149027217298 -0.000395081869513286 -0.000448166710574043 -0.00024490590150837 -0.000283746332506435 -0.000817809972549237 -0.000546346081894502 -0.000169591381886176
"6" 0.000620506051003543 -9.09381970067717e-05 0.000149822683878997 -0.000445955400903065 -0.000189790178908612 -0.000335866300627833 -0.000115217398429202 -0.00040740830022798 0.000468153785461695 -0.00038966710589385 -0.000444614122249879 -0.000230783756621992 -0.000274547582596475 -0.000824862169751221 -0.000554209339451114 -0.000165135578190043
"7" 0.000624671832863881 -7.62318124097395e-05 0.00017016245678795 -0.000425796556642915 -0.000163637539175379 -0.000324425951799371 -8.92243295948527e-05 -0.000411359833141321 0.000586761657319109 -0.000382185428666796 -0.000438694700868246 -0.000214878171706823 -0.00026270281192516 -0.000829049433705598 -0.000559301730592917 -0.0001591673883482
"8" 0.000627708197344768 -5.99302398231123e-05 0.000190367893706391 -0.000404500643068412 -0.000138095113884378 -0.000311827482291063 -6.4541351163426e-05 -0.000414314397970427 0.000707917848691184 -0.000372696869854258 -0.000430379605046481 -0.000197220462693517 -0.000248262976053787 -0.000830245937453522 -0.000561534325902186 -0.000151677231922249
"9" 0.00062953863550254 -4.21221737501265e-05 0.000210313626475909 -0.000382154044209406 -0.000113271464342927 -0.000298151852418584 -4.12866618584474e-05 -0.000416316359504126 0.000831566638957052 -0.00036127398582123 -0.000419661710367351 -0.000177853466445681 -0.00023128968379501 -0.000828355237269266 -0.000560843126416241 -0.000142667260710229
"10" 0.000630092523655547 -2.29071745265108e-05 0.000229879298218707 -0.000358849097582942 -8.92672120329305e-05 -0.000283477504667898 -1.95627813802919e-05 -0.000417418013807089 0.000957653299657535 -0.000348014092687381 -0.000406552753161265 -0.000156838496497981 -0.00021186970412004 -0.000823293913873451 -0.000557179172889466 -0.000132150920226739
"11" 0.00062931364879638 -2.38817963776979e-06 0.000248947417838299 -0.000334685326121032 -6.61746095096658e-05 -0.000267896990509589 5.44985836394022e-07 -0.000417674654372064 0.00108613577035304 -0.000333016510431626 -0.000391079587727918 -0.000134249094572173 -0.000190103584500411 -0.00081500957019267 -0.000550528124185075 -0.000120154377578572
"12" 0.000627162008013399 1.93140836830329e-05 0.000267401568673284 -0.000309770196842312 -4.40710070089426e-05 -0.000251504091070425 1.89719808528876e-05 -0.00041713545050603 0.00121694976922608 -0.000316403663389116 -0.000373295688251271 -0.000110167186631034 -0.000166106488450413 -0.000803459201441177 -0.000540887141465113 -0.000106714530561961
"13" 0.000623597721351597 4.20803912002459e-05 0.000285141069397597 -0.000284209536889935 -2.30168285211701e-05 -0.00023439539305425 3.56696369493613e-05 -0.000415854849512334 0.00135004736936862 -0.000298304330034574 -0.000353270675773316 -8.46965945073862e-05 -0.00014000599454167 -0.000788635913147612 -0.000528279257233207 -9.18819780891613e-05
"14" 0.000618608491576133 6.57821253739827e-05 0.000302058319178369 -0.000258116674593214 -3.07418979186072e-06 -0.000216670658136549 5.0606871415203e-05 -0.000413890719388739 0.00148535777264516 -0.000278861802324924 -0.000331101312083906 -5.79396770518311e-05 -0.000111956586917994 -0.00077055593855071 -0.000512763209796703 -7.57198660335092e-05
"15" 0.000612182684472549 9.02789785770088e-05 0.000318061569599208 -0.000231611175972139 1.5722874861622e-05 -0.000198430904866408 6.37747581103854e-05 -0.000411289955675448 0.00162280274275868 -0.000258230920638654 -0.000306887280510523 -3.00226215094683e-05 -8.2108187344005e-05 -0.00074925000375951 -0.000494396854839489 -5.82965286137028e-05
"16" 0.000604325429260626 0.000115433761768282 0.000333058000639613 -0.000204811534690226 3.3345599776624e-05 -0.000179781639309885 7.51776726628893e-05 -0.000408105138349701 0.00176227664517924 -0.000236572770142365 -0.000280765242552886 -1.07785127133975e-06 -5.06338388971838e-05 -0.000724780098793456 -0.000473281061956756 -3.96942150938407e-05
"17" 0.000595060808505146 0.000141099455354954 0.000346974472322433 -0.000177840613634415 4.97778358475836e-05 -0.000160816247369563 8.48462561415236e-05 -0.000404385303836913 0.00190365750629006 -0.000214056976023237 -0.000252880599465896 2.87531257301538e-05 -1.77183376849756e-05 -0.000697234208775165 -0.000449528031498128 -2.00069101871515e-05
"18" 0.000584417115039728 0.000167121534643399 0.000359740245287179 -0.000150821382576951 6.50204236877681e-05 -0.000141644037835774 9.28190195241019e-05 -0.000400176355013473 0.00204677968532949 -0.000190861770253279 -0.000223388747335376 5.93235561202585e-05 1.6454477559396e-05 -0.000666712850201048 -0.000423268699800158 6.6609086436833e-07
"19" 0.00057244000045228 0.000193349109208086 0.000371289994290527 -0.000123878932529104 7.90822842696367e-05 -0.00012235596758847 9.91595254632657e-05 -0.000395518581026562 0.00219144191233646 -0.000167167728909547 -0.000192469273286898 9.04715854506676e-05 5.16872794218011e-05 -0.000633346556936695 -0.000394659933548815 2.22164383515322e-05
"20" 0.000559185582081811 0.00021962355446882 0.000381580597808669 -9.71389220080387e-05 9.19847276206791e-05 -0.000103045786101758 0.000103942973104151 -0.000390451072373174 0.0023373885056393 -0.000143160146780131 -0.000160314860563148 0.000122032823302124 8.77723511576356e-05 -0.000597282630712835 -0.000363870049674178 4.45276358787656e-05
"21" 0.000544728456498321 0.00024578512355878 0.000390565665510501 -7.07262814718331e-05 0.000103768693989897 -8.38063773436876e-05 0.000107262443739761 -0.000385010914368714 0.00248429828796089 -0.000119023258756183 -0.000127119200737412 0.000153839930274072 0.000124513966033578 -0.000558691819746852 -0.000331082736926894 6.74816314497446e-05
"22" 0.000529148576381689 0.000271675674037411 0.000398220354914578 -4.47615331435877e-05 0.000114473676416576 -6.47205331316943e-05 0.000109219211490419 -0.000379225900770143 0.00263178378129931 -9.49445034085671e-05 -9.30980872861223e-05 0.000185717879693943 0.000161699309350741 -0.000517757792270903 -0.000296500910160662 9.09488370764957e-05
"23" 0.000512537657001478 0.000297135882995805 0.000404527462741443 -1.93673926384859e-05 0.000124162591632513 -4.58688330778884e-05 0.00010993249344551 -0.000373124217045066 0.0027793725345137 -7.11043630927925e-05 -5.84656555430312e-05 0.000217492597231384 0.00019911975171623 -0.000474683373600898 -0.000260337839591836 0.000114801971465019
"24" 0.000494997868391397 0.000322000980563492 0.00040947672529563 5.33840277351828e-06 0.000132896061281247 -2.73219997091759e-05 0.00010952699741456 -0.000366729713665586 0.00292649001892544 -4.76860152719696e-05 -2.34437028970014e-05 0.000248982741992503 0.000236567659301238 -0.000429686957118492 -0.000222813399841455 0.00013890918830941
"25" 0.000476644078733508 0.000346120555924291 0.000413072191849162 2.9241437983323e-05 0.000140750498479328 -9.15011495353411e-06 0.000108137521674495 -0.000360063539145853 0.00307247426718665 -2.48636478680796e-05 1.17365338074129e-05 0.000280014599831982 0.000273842976014766 -0.000382998965907839 -0.000184163404863297 0.000163129542612281
"26" 0.000457594942985109 0.000369337634300565 0.000415333519291473 5.22324918605202e-05 0.000147809687102466 8.58497448140406e-06 0.000105909010993779 -0.000353139482374916 0.00321653390063555 -2.80446869855015e-06 4.68506839292508e-05 0.000310411790631167 0.000310739288065188 -0.000334864222595164 -0.000144629403725701 0.000187331501906825
"27" 0.000437979903562091 0.000391502533087119 0.000416281855420935 7.42076955044819e-05 0.000154165512543309 2.5831715492675e-05 0.000102991761404228 -0.000345972327005808 0.00335776186599651 1.83333520214535e-05 8.16733051114515e-05 0.000340005959807845 0.000347067016751104 -0.000285534749753205 -0.000104453846430989 0.000211380077271686
"28" 0.000417933154006882 0.000412470090131133 0.000415953383791045 9.50715707393633e-05 0.000159904978432738 4.25424893165166e-05 9.95332418173748e-05 -0.000338570775795587 0.00349511917303751 3.83997060822821e-05 0.000115971811594193 0.000368626600871355 0.000382632254307176 -0.000235268666731481 -6.38894128353934e-05 0.000235135795730038
"29" 0.000397593424291191 0.000432098802430842 0.000414395647972218 0.000114726478637499 0.000165133222012218 5.86741417210592e-05 9.56895795741345e-05 -0.000330938549173998 0.00362743311094571 5.72575501366423e-05 0.000149540510593738 0.000396114884659176 0.000417261334205741 -0.000184327360661425 -2.3174931075699e-05 0.000258472901523939
"30" 0.000377101817591544 0.000450261497298869 0.000411663177575507 0.000133092534772815 0.000169948021300727 7.41939361732586e-05 9.16138913701102e-05 -0.000323088684357182 0.00375341739648648 7.47793465718446e-05 0.00018215738388977 0.000422318511540541 0.00045078016013216 -0.000132983115978206 1.74306684862792e-05 0.000281256771512398
"31" 0.000356608490477001 0.000466837907342973 0.0004078139984261 0.00015009568728226 0.000174457391245628 8.90715411249406e-05 8.74581336071945e-05 -0.000315017605374966 0.0038716564691795 9.08552643362689e-05 0.000213618950257411 0.000447090714288653 0.000483026222497033 -8.1509492264378e-05 5.76815817850103e-05 0.000303359788811513
"32" 0.00033625466467972 0.000481714265449666 0.000402925794616552 0.000165669554529401 0.000178760193876652 0.000103286844432126 8.33709649985841e-05 -0.000306733451865866 0.00398063853294445 0.000105387696786397 0.00024373458975644 0.000470300069667567 0.000513845805623628 -3.01703740585092e-05 9.73318417896541e-05 0.000324662279117041
"33" 0.000316183112867124 0.000494788257469971 0.000397069340441844 0.000179753224961187 0.000182959548455309 0.000116823216287522 7.94999512013547e-05 -0.000298236810616509 0.00407876731421094 0.000118296791957338 0.000272320927975796 0.000491821951897282 0.00054310442256256 2.07694076859849e-05 0.000136152141010769 0.0003450477857191
"34" 0.000296544995509341 0.000505975027577736 0.000390328817987275 0.000192300980026827 0.000187156998182181 0.000129670472799419 7.59772939367144e-05 -0.000289527298963103 0.00416442265213438 0.000129514733233324 0.000299208641253632 0.000511545011857706 0.000570671579994889 7.1042294384572e-05 0.000173907644472574 0.000364401152510138
"35" 0.000277471534044064 0.000515196860925705 0.000382795025971513 0.000203274313143488 0.000191446745985454 0.000141821643392453 7.29391484821093e-05 -0.00028060982057411 0.00423599666406875 0.000138991966241501 0.000324247823871711 0.000529372889695087 0.000596435421471194 0.000120402414042671 0.000210378204899581 0.000382622535345753
"36" 0.000259103617429835 0.000522397477873059 0.000374557040386004 0.000212649019066334 0.000195924573021122 0.000153276411705176 7.05024037986092e-05 -0.000271485105933201 0.00429197214088852 0.000146698455362858 0.000347299239590216 0.000545220077435842 0.000620288215090284 0.000168597654247096 0.000245355915958054 0.000399614182205204
"37" 0.000241564012982948 0.000527530501466344 0.000365705722026012 0.000220406744804678 0.000200669643080428 0.000164038291847764 6.87764795063357e-05 -0.000262160300227556 0.00433099400224391 0.000152617212942136 0.000368240690857932 0.000559016783610122 0.000642142457909658 0.000215394155104442 0.00027864229350167 0.000415283970656301
"38" 0.00022497579311005 0.000530563328044372 0.000356337858546183 0.00022653967062336 0.000205757060751322 0.000174112320099574 6.78629555235084e-05 -0.0002526375558243 0.00435199473114192 0.000156745681562818 0.000386965072686959 0.000570705315539166 0.00066192414691395 0.000260570939962482 0.000310055406136087 0.000429555053301052
"39" 0.000209449116088308 0.000531489439930278 0.000346548466466456 0.000231055706899862 0.000211263681457851 0.00018350865017539 6.7846220375358e-05 -0.000242928409875931 0.00435428526121685 0.000159107191972094 0.000403394266763209 0.000580249012995726 0.00067956644407452 0.000303923779859675 0.000339426206086296 0.00044235207945206
"40" 0.000195083065041008 0.000530312626290866 0.000336435475388797 0.000233968097913829 0.000217243094492925 0.000192241605921293 6.87975976988067e-05 -0.000233042470453182 0.00433769887742144 0.000159727364656171 0.000417456571600336 0.000587619110785437 0.000695014733052622 0.000345254002783953 0.000366598719251297 0.000453608328901797
"41" 0.00018196969345961 0.000527050714962531 0.000326082781361859 0.000235301998326368 0.000223742301071626 0.000200326136794998 7.07730231055333e-05 -0.000222990958529457 0.00430269881441898 0.000158656127845226 0.000429105009397949 0.000592804536107513 0.000708237451771436 0.000384393295698377 0.000391443339527734 0.000463276593033034
"42" 0.00017018258148711 0.000521746989613509 0.000315587590675621 0.000235090445933613 0.0002308025911606 0.000207779502149184 7.38189553898813e-05 -0.000212789235917481 0.00425050116841951 0.000155956443415669 0.000438308848005649 0.000595810961028175 0.000719209165184598 0.000421185589658316 0.000413844733846079 0.000471309451373552
"43" 0.000159785384411641 0.000514453279276254 0.000305029764245214 0.000233382039307864 0.000238447562920218 0.000214623032099542 7.79617939077232e-05 -0.000202459166895147 0.00418316100386711 0.000151702663400122 0.000445056538665539 0.000596656914077206 0.000727911800593027 0.00045549376409512 0.000433700673849019 0.000477673740330348
"44" 0.000150823299902657 0.000505243682062628 0.000294490178455433 0.000230224494140781 0.000246685980823325 0.000220872245096392 8.32111206000069e-05 -0.000192019365003267 0.00410358809255034 0.000145979783258269 0.00044935648107765 0.000595371313861801 0.000734347804810271 0.000487202680793016 0.000450934554969482 0.00048234610337902
"45" 0.000143336684280883 0.000494205849964274 0.000284042685390035 0.000225683086976271 0.000255520314148074 0.00022655495729737 8.95622358341321e-05 -0.000181496872173977 0.00401552067816166 0.000138887234858089 0.000451234888188394 0.000592003102916335 0.000738524005390259 0.000516222321483637 0.000465489028425047 0.000485312089569844
"46" 0.00013733448658053 0.000481438218016147 0.000273757580322885 0.000219820558618493 0.000264937015803592 0.00023168892999012 9.6995436379884e-05 -0.000170917959053415 0.00392337783011604 0.0001305334051678 0.000450733955466895 0.000586609100083143 0.000740467037561856 0.000542484668458867 0.000477331512551809 0.000486572652662858
"47" 0.000132826652846329 0.000467056526507153 0.000263692941168749 0.000212714086856825 0.000274910134801584 0.000236298739676247 0.000105473614089798 -0.000160314810184607 0.00383205190952029 0.000121032857436117 0.000447911751535968 0.000579257518252859 0.00074020540727833 0.000565938880796712 0.000486444503174678 0.00048613215623953
"48" 0.00012978864153357 0.000451187234684771 0.00025389743374557 0.000204441834035954 0.00028539360168474 0.000240404407726286 0.000114940778037026 -0.000149723491554559 0.00374656030971046 0.000110511235083585 0.000442848450234177 0.000570027911729576 0.000737784191621742 0.000586565507657595 0.000492836360247464 0.000484015748853874
"49" 0.000128199502152274 0.000433963879635588 0.000244420552754556 0.000195087557872368 0.000296346067814103 0.000244028807913045 0.000125332885651611 -0.000139181586212559 0.00367168322513416 9.90981247943218e-05 0.000435632937901304 0.000559013985982113 0.0007332580010062 0.00060436276511793 0.000496534013260141 0.000480247906550505
"50" 0.000128005951892029 0.000415533876045804 0.000235295364136735 0.000184738889674372 0.000307696515160964 0.000247193315912792 0.000136565477411469 -0.000128725507021658 0.00361152361156003 8.6927908004319e-05 0.000426369136067624 0.00054631075866057 0.000726684249686324 0.000619351523291546 0.000497583629172465 0.000474869919193969
"51" 0.000129150825809047 0.000396049107331738 0.00022655045240336 0.000173484303297192 0.00031937097255075 0.000249915088167108 0.000148540739210999 -0.000118406031736238 0.00356915419724811 7.41329944504285e-05 0.000415176069448353 0.000532025454615925 0.000718134689444172 0.000631576641445049 0.000496053284900947 0.000467933213009375
"52" 0.000131553722801176 0.000375661241760383 0.000218205009111484 0.000161414830901296 0.000331289663548286 0.000252215331291857 0.000161153040506497 -0.000108262389235388 0.0035463292091881 6.08583022039498e-05 0.000402189330665453 0.000516271541216939 0.000707690855414429 0.000641109892957719 0.000492035292433352 0.000459498944347017
"53" 0.000135125807599133 0.000354534629303517 0.000210269722584333 0.000148622585256487 0.00034335440830001 0.000254109632931165 0.000174277574581085 -9.83419059778192e-05 0.00354337527283738 4.72383592065126e-05 0.00038754196516354 0.000499164276266302 0.000695430654427743 0.000648031129109128 0.000485629268175789 0.000449634312133368
"54" 0.000139765981652121 0.000332826091443469 0.000202747629145855 0.000135197352843835 0.000355465686580868 0.000255613349631478 0.000187787690269304 -8.86979580960302e-05 0.00355921811701115 3.3411861466523e-05 0.000371390597648656 0.000480829135463994 0.000681454377172443 0.000652453396802265 0.000476964044399591 0.000438419277948101
"55" 0.000145357672860954 0.000310697205201979 0.000195630964014397 0.0001212300478341 0.000367514226384935 0.000256736651490724 0.000201542975802242 -7.93766715622622e-05 0.00359158486353801 1.95159810335848e-05 0.000353885961811335 0.00046138648198994 0.000665855374396412 0.000654492748263206 0.000466173741371186 0.000425938066101441
"56" 0.000151778093268888 0.000288302708195327 0.00018891563137195 0.000106808898241955 0.000379388679816666 0.000257490352381017 0.000215396637145238 -7.0432916442158e-05 0.00363730350695205 5.6804128677328e-06 0.000335197524070233 0.000440968084767405 0.000648733604342362 0.000654292877969423 0.000453410879437552 0.000412284763108147
"57" 0.000158890108387098 0.000265793539241236 0.000182579838557904 9.20130372421565e-05 0.00039097458212923 0.000257884579987326 0.000229198124482899 -6.19151325484447e-05 0.00369267943268641 -7.96507714104351e-06 0.000315494432500243 0.000419695907393327 0.000630203226357666 0.000652012299786788 0.00043884903107569 0.000397564300118191
"58" 0.000166555383682766 0.000243317562410238 0.000176602824822854 7.69277960064851e-05 0.000402156009136188 0.000257919782607182 0.000242793912091471 -5.38758894435739e-05 0.00375384637207914 -2.13020320623361e-05 0.00029494921197384 0.000397703349213163 0.000610368275589248 0.000647809512554483 0.000422659631752561 0.00038188020841788
"59" 0.000174628674489107 0.000221015192911903 0.000170958297784384 6.16263944997438e-05 0.000412816512590197 0.000257599286847247 0.000256023511449984 -4.63666148265784e-05 0.00381708668558908 -3.42158801435807e-05 0.00027373486247856 0.000375110400532959 0.000589340776508444 0.000641864411805205 0.000405024704318539 0.000365344198097036
"60" 0.000182956040371438 0.000199014394563214 0.000165612478423012 4.61810200563324e-05 0.000422833296332334 0.000256923071537964 0.000268735127988791 -3.94367089222988e-05 0.00387906451844885 -4.65962636564956e-05 0.000252028087603992 0.000352043833503268 0.000567240034819015 0.000634360879889928 0.00038614460099997 0.000348073049595585
"61" 0.000191386826580991 0.000177436063282829 0.000160533646477459 3.06543546709971e-05 0.000432106215519115 0.000255888789255205 0.000280774216147312 -3.31342874378738e-05 0.00393698862394279 -5.83475813412972e-05 0.000230001346991899 0.000328624957545116 0.000544179790439043 0.000625490991784171 0.00036621458799525 0.000330186227663276
"62" 0.00019976751972492 0.000156388486396193 0.000155683778482269 1.5108552922852e-05 0.000440521555751926 0.000254485495868543 0.000291995379598241 -2.75060346112299e-05 0.00398866754203401 -6.93777260782932e-05 0.000207828013995947 0.000304971352142814 0.00052027881611292 0.000615446786042894 0.000345435232551736 0.000311807284868772
"63" 0.000207948574606074 0.000135970424982626 0.000151028588688332 -4.04023549643672e-07 0.000447980707141355 0.000252710038209891 0.000302249531945415 -2.25910214618405e-05 0.00403253806675734 -7.96087355649776e-05 0.000185674642555586 0.000281194138752996 0.000495652937883209 0.000604425540143905 0.000324011418735178 0.000293059011719273
"64" 0.000215783073301605 0.000116269062308335 0.000146531504109851 -1.58383543561469e-05 0.000454390244136542 0.000250547613614855 0.000311411228412534 -1.84284200393322e-05 0.00406761288083499 -8.89713881416182e-05 0.00016370793436448 0.000257402246358089 0.000470417618569603 0.000592618484586213 0.000302142480485767 0.000274066761950648
"65" 0.000223127537350195 9.73577399123969e-05 0.000142153673901471 -3.11521944870775e-05 0.000459672472959177 0.000247986628403437 0.000319351217672428 -1.50570384331463e-05 0.00409341924342023 -9.74058176754595e-05 0.000142081290888229 0.000233699563634506 0.000444689806739679 0.000580221799173753 0.000280030769545434 0.000254953622924756
"66" 0.000229844156758503 7.92937696694769e-05 0.000137864742184947 -4.63132518087589e-05 0.000463749553721508 0.000245011365052007 0.000325960231928895 -1.25016094420748e-05 0.00410990894717186 -0.000104864660188101 0.000120943618857603 0.000210179465487973 0.000418583717007892 0.000567418474091643 0.000257868824348188 0.0002358422646173
"67" 0.000235806454659058 6.21283936566698e-05 0.000133630900129644 -6.12950003162377e-05 0.000466566302541211 0.000241604854388596 0.000331137793029533 -1.07888898343382e-05 0.00411736707072783 -0.000111310395846951 0.000100440718378865 0.000186935822232533 0.000392208686964853 0.000554394805552126 0.000235849469928487 0.000216856811168059
"68" 0.000240896482611815 4.58961310944458e-05 0.000129421679203074 -7.60740105785501e-05 0.000468071188946566 0.000237752801921708 0.000334801176338645 -9.93629988336263e-06 0.00411634081273421 -0.000116719894872451 8.06982125426463e-05 0.000164048307922984 0.00036567136383081 0.000541317147003294 0.00021414672451254 0.000198110388341686
"69" 0.000245006050565773 3.06191639659094e-05 0.00012520934166199 -9.06394346696262e-05 0.000468227410646279 0.000233438261532421 0.000336883337460531 -9.95934054156794e-06 0.00410755618314712 -0.000121076104135888 6.18398794513986e-05 0.000141594203012836 0.000339078822097113 0.000528351491072261 0.000192936964947026 0.000179721423870961
"70" 0.000248037505013148 1.63097044540113e-05 0.000120981245060765 -0.000104979172003547 0.000467012213657561 0.000228644389954333 0.000337328674864223 -1.08558724882535e-05 0.00409184258868046 -0.000124379782882865 4.39714262349398e-05 0.000119646295813263 0.000312536191325787 0.000515648863488426 0.000172383464741959 0.000161799599229155
"71" 0.000249913096120759 2.9644067067028e-06 0.00011671037027501 -0.000119089728329494 0.000464422066736072 0.000223353176434454 0.000336103567219208 -1.26308509415639e-05 0.00407010222040531 -0.000126639012793697 2.71961305949362e-05 9.82618203780096e-05 0.000286140133544347 0.000503346327310707 0.000152629767960882 0.000144449972861345
"72" 0.000250560644826559 -9.42431415988883e-06 0.000112393393563345 -0.000132975563826739 0.000460453123630977 0.000217553988813814 0.000333192552757394 -1.52725037307644e-05 0.00404325029175013 -0.000127872115532331 1.15949964076913e-05 7.74996470036421e-05 0.000259987656262112 0.000491570020190895 0.000133818025687984 0.000127772031751642
"73" 0.000249925540380123 -2.08817753131716e-05 0.000108020451530528 -0.000146642640856326 0.000455129902028029 0.000211231225846537 0.000328595126931057 -1.87639758844238e-05 0.00401218129605918 -0.0001281087924773 -2.75935128036785e-06 5.74063514539915e-05 0.000234166643091352 0.000480434533152908 0.000116067596092218 0.000111858558575361
"74" 0.000247963963286754 -3.14388727317635e-05 0.000103587715152087 -0.000160100944447015 0.000448482819713196 0.000204374346447736 0.000322327889208452 -2.30793223241017e-05 0.0039777588806828 -0.000127389299167967 -1.58018294910117e-05 3.80238019970674e-05 0.000208766431433275 0.000470033653433278 9.9492674751243e-05 9.67980529671729e-05
"75" 0.000244657685723684 -4.11343236540514e-05 9.91027803351007e-05 -0.000173364716427417 0.000440554709845814 0.000196975790512852 0.000314429027282283 -2.81889794037e-05 0.00394078915362958 -0.000125762109393828 -2.74880659426637e-05 1.93865601101713e-05 0.000183867928257257 0.00046045244696933 8.41861150131236e-05 8.2669243837713e-05
"76" 0.000239986277473223 -5.00192667410994e-05 9.45753785023645e-05 -0.000186452796811647 0.000431401037632352 0.000189035539613077 0.000304950782040419 -3.40508832222454e-05 0.00390201127893998 -0.000123286646431529 -3.77891231682106e-05 1.52386188022705e-06 0.000159553891658848 0.000451756669948996 7.02275117446787e-05 6.95446196572799e-05
"77" 0.000233959355511699 -5.81446638361934e-05 9.00166340751296e-05 -0.000199382912593947 0.000421091697900001 0.000180548080644753 0.000293962922040364 -4.06182437824486e-05 0.003862091465393 -0.000120029297183483 -4.66805457684925e-05 -1.55433816322745e-05 0.000135891113438777 0.000443995138095576 5.76788170301428e-05 5.74863796683908e-05
"78" 0.000226595542957892 -6.5575160816113e-05 8.54481063149293e-05 -0.000212178198140171 0.000409702797651821 0.00017151954043094 0.000281547338446058 -4.78370879590766e-05 0.00382162071367256 -0.000116061213626008 -5.41511943140894e-05 -3.17985829103228e-05 0.000112953375988901 0.000437209074287073 4.65975019447728e-05 4.65565171821567e-05
"79" 0.000217923627549648 -7.23731674098928e-05 8.08929684500454e-05 -0.000224860345790648 0.000397319574840656 0.000161959386696835 0.000267802633751882 -5.56474632798087e-05 0.00378111522804564 -0.000111463986207209 -6.02092417254008e-05 -4.72299945896975e-05 9.08075045173318e-05 0.000431416113173748 3.70136762358718e-05 3.67981923959308e-05
"80" 0.000207991753857036 -7.86100254973791e-05 7.63811152899226e-05 -0.000237455336891286 0.000384041543809456 0.000151876209551547 0.000252844317291813 -6.39806033078072e-05 0.00374101010348901 -0.00010632330235169 -6.48691962024908e-05 -6.18320524138703e-05 6.95093352035321e-05 0.000426628394046744 2.89482041314014e-05 2.82545867984364e-05
"81" 0.000196853511784619 -8.43634108535539e-05 7.19462154358896e-05 -0.000249983652364421 0.000369971740564744 0.000141290797482001 0.00023678882945373 -7.27640868394203e-05 0.0037016763754738 -0.000100727991925024 -6.81578456522528e-05 -7.56035915294455e-05 4.91199535674851e-05 0.00042283963628217 2.24097327282215e-05 2.09578458232271e-05
"82" 0.000184577625724075 -8.97046209010862e-05 6.76205547249474e-05 -0.000262472987816528 0.000355212009521334 0.000130222469656289 0.000219774896613301 -8.19226305842922e-05 0.00366341223938279 -9.47739301689758e-05 -7.01155868883399e-05 -8.8547050557353e-05 2.96884660227925e-05 0.000420031199983262 1.73891958339922e-05 1.49282098245995e-05
"83" 0.00017125221814645 -9.47075794984036e-05 6.34480223365626e-05 -0.00027494048990507 0.000339887041552981 0.000118698497630085 0.000201941618401708 -9.13725721367772e-05 0.00362645609508401 -8.85576764427804e-05 -7.07870366552288e-05 -0.000100666849471058 1.12622159775247e-05 0.00041816870645527 1.38680020615603e-05 1.01829274761401e-05
"84" 0.000156960266752488 -9.94544807048509e-05 5.94647439118982e-05 -0.000287408084889426 0.000324105415396154 0.000106747726205391 0.000183435397262922 -0.000101030263373572 0.00359098313374972 -8.21775289014805e-05 -7.02303803596002e-05 -0.00011197449737271 -6.11995810583856e-06 0.000417214157396251 1.18151961687771e-05 6.72683299296897e-06
"85" 0.000141798205974965 -0.000104020427909925 5.57182398725601e-05 -0.000299894103851976 0.000307990869144265 9.44076568410461e-05 0.000164415695951501 -0.000110808986750242 0.0035571103046769 -7.57319024116446e-05 -6.85080246346584e-05 -0.000122478590341115 -2.2413788220998e-05 0.000417117530246752 1.11851959161913e-05 4.56062037077816e-06
"86" 0.000125877397711817 -0.000108477872377984 5.22480367071786e-05 -0.000312411573442322 0.000291664376111022 8.17167125430121e-05 0.000145034765971423 -0.000120616353183417 0.00352491364941935 -6.93175597024069e-05 -6.56906426878371e-05 -0.00013219481264991 -3.75874447829056e-05 0.000417816905090144 1.19251439667795e-05 3.67410054916237e-06
"87" 0.000109306108501514 -0.00011289962451544 4.91045035894708e-05 -0.000324972769172557 0.000275245940821278 6.87149399409811e-05 0.000125456173816116 -0.000130368829944221 0.00349441919361136 -6.30363282946396e-05 -6.18588881521931e-05 -0.000141135748216286 -5.1614216104055e-05 0.000419240721366459 1.39719041894492e-05 4.0482070270446e-06
"88" 9.2200836144922e-05 -0.000117356228138078 4.63280714829843e-05 -0.000337586411999738 0.000258857130210231 5.54475828530843e-05 0.000105840750654581 -0.000139973859780995 0.0034656079783098 -5.69779937606395e-05 -5.70944240668162e-05 -0.000149318414714393 -6.44659439255859e-05 0.000421320771194019 1.72540091847992e-05 5.65962828355705e-06
"89" 7.46816858625069e-05 -0.000121913204106756 4.39643935074034e-05 -0.000350254357017744 0.000242606140829603 4.19687150667679e-05 8.63428796073332e-05 -0.000149343487939295 0.00343843107904658 -5.12350548196343e-05 -5.14824081628891e-05 -0.000156759773106645 -7.61254630595007e-05 0.000423972288096579 2.16922751933381e-05 8.47489617967196e-06
"90" 5.68716733958126e-05 -0.000126627438998479 4.205468505293e-05 -0.000362978688970184 0.000226616437748752 2.83239613678777e-05 6.71205863929191e-05 -0.00015839091233321 0.00341280069102113 -4.58961111509271e-05 -4.51112369787141e-05 -0.000163479205875161 -8.65724962846147e-05 0.000427113679813006 2.72024738793838e-05 1.2457190431156e-05
"91" 3.8894102013394e-05 -0.000131557748807506 4.06433579129739e-05 -0.000375752724660322 0.000210991352331827 1.45655358991412e-05 4.83267964144576e-05 -0.000167036124589294 0.00338860484666157 -4.10391928532534e-05 -3.80753773479723e-05 -0.000169489140002858 -9.57992991403638e-05 0.000430654386808892 3.3692038665034e-05 1.75603041260127e-05
"92" 2.08668411949659e-05 -0.000136748605339492 3.9761162589557e-05 -0.000388566406258046 0.000195831832511465 7.52498711845939e-07 3.01079268359342e-05 -0.000175200903939348 0.00336570345056233 -3.67434121033051e-05 -3.04649097528322e-05 -0.000174808147541153 -0.000103797983155742 0.000434506012679268 4.10654228620556e-05 2.37304124300102e-05
"93" 2.91793436351732e-06 -0.000142242454842609 3.94499506313838e-05 -0.000401399980623497 0.000181237695883243 -1.3065082171053e-05 1.26049259710939e-05 -0.000182808431281457 0.00334393753187857 -3.3073985869858e-05 -2.23733870575111e-05 -0.000179449022098481 -0.000110561724263817 0.000438580176394601 4.92226171290087e-05 3.0910755387161e-05
"94" -1.48401557949449e-05 -0.000148076398788978 3.97361190390198e-05 -0.000414237959664359 0.000167297499799996 -2.68292360393103e-05 -4.05241251778294e-06 -0.000189789337056712 0.00332312887267353 -3.00924838346171e-05 -1.38915139677356e-05 -0.000183430351889553 -0.000116096302528029 0.00044278724005454 5.80657109585248e-05 3.90394967750719e-05
"95" -3.22909314547239e-05 -0.000154275451918531 4.06459083904632e-05 -0.000427052735044714 0.000154093742046922 -4.04839330322724e-05 -1.97411422017708e-05 -0.00019608543343203 0.00330308784192886 -2.7851419072074e-05 -5.11156372950099e-06 -0.000186763004874701 -0.000120405645539744 0.000447036709521009 6.74917961044341e-05 4.80463219663758e-05
"96" -4.93268608935018e-05 -0.000160855336346564 4.22022394950953e-05 -0.00043981244947432 0.000141695838999781 -5.39794877353855e-05 -3.4344841804908e-05 -0.000201636707689403 0.00328361122142003 -2.63949387482973e-05 3.88289586439869e-06 -0.000189458002082794 -0.000123499257035632 0.000451240758454739 7.73979262897798e-05 5.78625128942562e-05
"97" -6.58434514497763e-05 -0.000167827238147581 4.44229095701101e-05 -0.000452479742047168 0.000130165258428782 -6.72556593093534e-05 -4.77658074291507e-05 -0.000206397267877443 0.00326449450959686 -2.57589654141073e-05 1.30066666618134e-05 -0.000191527493407724 -0.000125393422751423 0.000455320133460325 8.76812337160547e-05 6.84074879496134e-05
"98" -8.17430818965443e-05 -0.000175192939641847 4.7314676422592e-05 -0.000465014335212715 0.000119563498402145 -8.02645643895536e-05 -5.99167647221721e-05 -0.000210326917021757 0.00324552269551823 -2.59671000074086e-05 2.21776413084122e-05 -0.000192980017137556 -0.000126103155697071 0.000459194979420884 9.82446313859171e-05 7.96066269208019e-05
"99" -9.6937663550406e-05 -0.000182942988436495 5.08850838056446e-05 -0.000477369908161758 0.000109923065334646 -9.29559391514671e-05 -7.07135592170045e-05 -0.000213394123458683 0.00322648218160045 -2.70375344599369e-05 3.13218083212033e-05 -0.000193824238650609 -0.000125653077842512 0.000462793596160037 0.000108987131109775 9.1374099680796e-05
"100" -0.000111349028590752 -0.000191061095192558 5.51322349104808e-05 -0.000489496828294952 0.000101286192008568 -0.000105277955799143 -8.00923740209348e-05 -0.000215571495748126 0.00320716659482454 -2.8972458675077e-05 4.03712672772603e-05 -0.00019406421404695 -0.000124067614218168 0.00046604770295877 0.000119819983779691 0.000103631244167014
"101" -0.00012490261478697 -0.000199522657034843 6.00467508873988e-05 -0.000501342009831149 9.36716995111579e-05 -0.000117185300246154 -8.80057691523291e-05 -0.000216844110922611 0.00318737062826684 -3.17704083189654e-05 4.92611857126446e-05 -0.000193705904621883 -0.000121377050653487 0.000468901727870975 0.000130652511324322 0.0001162892338775
"102" -0.000137535694911667 -0.000208290400505962 6.56185522056473e-05 -0.000512842165882821 8.70900266561428e-05 -0.000128637290398557 -9.44122678884747e-05 -0.000217205192725099 0.00316690382610094 -3.54150056443165e-05 5.79318652999917e-05 -0.000192753287376265 -0.000117615282504996 0.000471296509528165 0.000141397283973496 0.000129261450933605
"103" -0.000149196998802272 -0.000217321619673944 7.18223439660593e-05 -0.000523939329885155 8.1548138320993e-05 -0.000139589802256596 -9.92885730676616e-05 -0.000216656071287399 0.00314558621059134 -3.98865127532359e-05 6.63334432633217e-05 -0.000191208352874226 -0.000112816287561764 0.000473189359088004 0.000151977256227782 0.00014246523221593
"104" -0.000159844235552111 -0.000226565268093862 7.86318197656143e-05 -0.000534571036813373 7.70384112571272e-05 -0.000150008046563419 -0.000102625671072208 -0.000215208924700883 0.00312325010873058 -4.51481807092235e-05 7.44210084474781e-05 -0.000189073994311825 -0.000107023893930822 0.000474549011248195 0.000162322846505478 0.000155814626186431
"105" -0.000169444061988135 -0.000235964646368131 8.60150074821521e-05 -0.000544667911788407 7.35358919974984e-05 -0.000159855544062103 -0.000104425283287203 -0.000212879206367427 0.00309975116981214 -5.11582457863916e-05 8.21581888851637e-05 -0.000186351640768096 -0.000100278844467609 0.000475346619740171 0.00017236532633194 0.000169226665872771
"106" -0.000177975320969051 -0.000245448489240681 9.39359502826258e-05 -0.000554162769150789 7.10214887437677e-05 -0.000169102560842374 -0.000104704637264527 -0.000209692247140016 0.00307496817909377 -5.78663560951242e-05 8.9511059653239e-05 -0.000183040604954596 -9.26278486424598e-05 0.000475557839689032 0.000182047595408755 0.000182618105058933
"107" -0.000185424615096157 -0.000254949503309323 0.000102340602582893 -0.000562986158459772 6.94523992525009e-05 -0.000177718922444531 -0.000103499295517043 -0.000205684341597666 0.00304879980817887 -6.52131749758506e-05 9.64610153030297e-05 -0.000179145317805442 -8.41148749571676e-05 0.000475186792934522 0.000191325452371968 0.000195913300533151
"108" -0.000191790130150723 -0.000264385988778094 0.00011118668279635 -0.000571070778622526 6.87910636436397e-05 -0.000185676693498459 -0.000100844268819186 -0.000200890199794332 0.00302117112531769 -7.31308135371727e-05 0.000102990854806809 -0.000174665232836197 -7.47949301817915e-05 0.000474228245023689 0.000200154884875847 0.000209034594833728
"109" -0.000197075970789615 -0.000273671543503179 0.000120417268057259 -0.000578346816705984 6.89807952948979e-05 -0.000192960728375604 -9.67998610958572e-05 -0.00019536047725164 0.00299204698749605 -8.15450995635637e-05 0.000109087885311799 -0.000169604154634825 -6.47174584263406e-05 0.000472694738065383 0.000208497538352749 0.000221912409854497
"110" -0.000201298182779569 -0.000282722644246925 0.000129972207586758 -0.000584744814127822 6.99649965413554e-05 -0.000199546649159839 -9.14319514475961e-05 -0.000189147976850719 0.00296140458832592 -9.03760446012464e-05 0.000114751420194559 -0.00016396327939813 -5.39389325822111e-05 0.000470601701797548 0.000216332003355358 0.000234475654294381
"111" -0.000204479585704298 -0.000291446907426129 0.000139787548725173 -0.000590198566917316 7.16749316901858e-05 -0.000205421013931396 -8.48174477631381e-05 -0.000182303759005145 0.00292926479762158 -9.95355719332948e-05 0.00011999267307188 -0.000157747923061902 -4.25116498634496e-05 0.000467989756746172 0.000223647895419372 0.000246670090229313
"112" -0.000206649725889357 -0.000299747727581634 0.000149802597101366 -0.000594643846129858 7.4044670553722e-05 -0.000210569340076465 -7.70483499258286e-05 -0.000174894747335376 0.00289567767412493 -0.000108934614797142 0.000124811398420804 -0.000150965288635607 -3.04963037124948e-05 0.000464887959360796 0.000230427779197384 0.00025843152838857
"113" -0.000207847652609881 -0.000307530702012127 0.000159947314506762 -0.000598018383538265 7.6999712228239e-05 -0.000214979589486721 -6.82144942896244e-05 -0.000166980523052575 0.00286072657879888 -0.000118475987301112 0.00012923147954603 -0.000143622159700079 -1.79477536813924e-05 0.000461348084691751 0.000236676294127066 0.000269714126290459
"114" -0.000208115346222038 -0.000314704206000823 0.000170149910324484 -0.000600262556015197 8.0456275482188e-05 -0.000218643385945316 -5.84257566206565e-05 -0.00015862550365921 0.00282452032140488 -0.00012806164295266 0.000133276450645539 -0.000135730204539381 -4.92174716980655e-06 0.000457430807820788 0.000242407293944182 0.000280477209974281
"115" -0.000207497458790667 -0.000321162737755023 0.000180348285790758 -0.000601322495921195 8.43433518256801e-05 -0.000221559102389011 -4.77870495636677e-05 -0.000149902123305437 0.00278720375117956 -0.000137589564325741 0.000136970570401504 -0.000127297012305088 8.51984390532054e-06 0.000453188986670748 0.000247629690081383 0.000290676160769086
"116" -0.000206051424057554 -0.000326819826494628 0.000190467124721509 -0.000601148941468154 8.8576487871236e-05 -0.000223721959677622 -3.64183258987532e-05 -0.000140877352665214 0.00274894637423468 -0.000146960095638819 0.000140347807512261 -0.000118342358465316 2.23177332225107e-05 0.000448697402634901 0.000252366291039634 0.000300283582723531
"117" -0.000203826782603448 -0.000331580152858873 0.000200443342538887 -0.000599693258932614 9.30727857700831e-05 -0.00022512694182868 -2.4437403666109e-05 -0.000131616719839184 0.00270994707901075 -0.000156069485776019 0.000143444970146492 -0.000108881607700746 3.64172931813449e-05 0.000444033163694378 0.000256655152079068 0.000309279378387521
"118" -0.000200880933294703 -0.000335352157447289 0.000210207779578569 -0.000596915997474988 9.77549572319711e-05 -0.000225777300712214 -1.19667295211277e-05 -0.000122187969934065 0.00267042680560917 -0.000164816098183819 0.000146298711388831 -9.89364517859618e-05 5.07530108511127e-05 0.000439270719895039 0.000260521013305185 0.000317643202630097
"119" -0.000197271287757671 -0.000338055195756509 0.00021970283402986 -0.000592786281756753 0.000102547210320517 -0.000225674542957226 8.72185346733595e-07 -0.000112651211879631 0.00263061697184167 -0.000173100222875771 0.000148956436769104 -8.85304402753106e-05 6.52792038439781e-05 0.00043449956796611 0.00026401394323779 0.000325368287258733
"120" -0.000193052271299251 -0.000339605885560241 0.000228864410094873 -0.000587270675096995 0.000107373919373325 -0.000224818946468101 1.39505671114138e-05 -0.000103070534481057 0.00259078088866709 -0.000180823209007142 0.000151460053302272 -7.76906266936179e-05 7.99300043181053e-05 0.000429802321001773 0.000267176190654775 0.000332451192517076
"121" -0.000188283118936433 -0.000339932825223381 0.000237644144409914 -0.000580351572234277 0.000112161561150825 -0.000223219208259239 2.71560314300119e-05 -9.34986353935423e-05 0.00255118096041763 -0.000187890257171331 0.000153862378421961 -6.64465326364925e-05 9.46538018394519e-05 0.000425273723023331 0.000270058417331949 0.000338901507422323
"122" -0.000183013944760321 -0.000338964853983418 0.000245990515034527 -0.000572013955355511 0.00011684423289682 -0.000220879493454533 4.03661286132867e-05 -8.39844187700312e-05 0.00251209608095528 -0.000194213360270151 0.000156210571973014 -5.48315444316e-05 0.000109402533328908 0.00042100175186554 0.000272716376583377 0.000344726539474708
"123" -0.000177298765463247 -0.000336643891309164 0.000253857408240547 -0.000562249769502108 0.000121365916558612 -0.000217805781568865 5.3466880926174e-05 -7.45736771230851e-05 0.00247380228669637 -0.000199707753305282 0.000158548868004232 -4.28825559288751e-05 0.000124119150107996 0.000417076687162455 0.000275201881174555 0.000349950874144681
"124" -0.000171181010941097 -0.000332910287236277 0.000261214263787865 -0.000551059248331278 0.00012567394751949 -0.000214002677149902 6.63526362403295e-05 -6.53072142191315e-05 0.00243658543639196 -0.000204293790817762 0.000160929227499548 -3.0638980865744e-05 0.000138752131162251 0.000413586229210063 0.000277572068301675 0.000354595417089215
"125" -0.000164705320240245 -0.000327727156744213 0.0002680239773189 -0.000538450298537329 0.000129712472634861 -0.000209482024189272 7.8921293359138e-05 -5.62119247727911e-05 0.00240071756779478 -0.000207901263644519 0.000163402742097817 -1.81476481280904e-05 0.000153261957699798 0.000410621396568608 0.00027989019232217 0.000358695507041566
"126" -0.000157906696790801 -0.00032105499150097 0.000274266958134543 -0.000524438446288967 0.000133449169337936 -0.000204248851747039 9.10819457987146e-05 -4.73102522697175e-05 0.00236646701074802 -0.000210463856274947 0.000166012513689274 -5.44979741467509e-06 0.000167601218380349 0.000408268177766018 0.000282212837508639 0.000362289117613946
"127" -0.000150820830186649 -0.000312864819696716 0.000279927388028229 -0.000509044645090366 0.0001368500430688 -0.000198309937332962 0.000102750465952209 -3.86194296289145e-05 0.0023340950661104 -0.000211928487097062 0.000168809289391841 7.4043757908093e-06 0.000181731205120152 0.000406604985563143 0.000284598279619632 0.000365418118298443
"128" -0.000143471373247443 -0.000303141501267264 0.00028499726183397 -0.000492302990367059 0.000139892977385008 -0.000191675334674948 0.000113854026911013 -3.01426256180803e-05 0.00230383683860287 -0.000212243997457677 0.000171832094017112 2.0364272600641e-05 0.00019560959791988 0.000405709347731235 0.000287105320798647 0.000368131671385565
"129" -0.000135882976692722 -0.000291880605818858 0.000289472704302469 -0.000474253985997726 0.000142562545247378 -0.000184353485082015 0.000124331580224047 -2.18757702976804e-05 0.00227591873581066 -0.000211374799073339 0.000175127788442979 3.33753061277763e-05 0.000209207719985886 0.000405662257561291 0.000289793966328129 0.00037048768835818
"130" -0.000128063415503731 -0.000279076968024254 0.00029336727127982 -0.000454938591020938 0.000144853516827131 -0.000176352037975142 0.000134129664226183 -1.38098843652397e-05 0.00225055234134384 -0.000209288558427246 0.000178732246396106 4.63851413856569e-05 0.000222488530695541 0.000406514796143647 0.00029271266814052 0.000372534694818586
"131" -0.000120027700496381 -0.000264752876272493 0.000296683602350731 -0.000434415588400516 0.000146760877914695 -0.000167675922784747 0.000143209227920263 -5.92197602849161e-06 0.00222791039995156 -0.000205971698767821 0.000182682205058243 5.93327679615674e-05 0.0002354345001551 0.000408340655116612 0.000295920218364992 0.000374339534116275
"132" -0.000111775626372235 -0.00024892633592285 0.000299449809951254 -0.000412745146645849 0.000148304240060269 -0.000158335668387196 0.000151546789871452 1.81169111585928e-06 0.00220814910489138 -0.000201411090546778 0.000187011298570265 7.21647195844317e-05 0.00024801219168293 0.000411182886235195 0.000299460303666952 0.000375960551710178
"133" -0.000103304393304341 -0.000231633807864967 0.000301692693561326 -0.000389997423748608 0.000149495762737082 -0.000148337102744168 0.000159122681926205 9.43649463780445e-06 0.00219139733408777 -0.000195607441098385 0.000191746489865242 8.4821184915213e-05 0.000260210400218249 0.000415095174435188 0.000303384520978033 0.000377468152676503
"134" -9.46067343672712e-05 -0.00021291518901353 0.000303446808526245 -0.000366244980726734 0.000150364154948386 -0.000137691041359183 0.000165940844857691 1.69920713784997e-05 0.00217775313755645 -0.000188576648913311 0.000196909753618715 9.72455454285239e-05 0.000272009998456654 0.000420104692544036 0.000307724732650898 0.000378920536054956
"135" -8.56683691273031e-05 -0.000192834083375691 0.000304747539531556 -0.000341575189372432 0.000150938811787768 -0.000126403690625232 0.000172005418184761 2.45319823588849e-05 0.00216728445693055 -0.000180333320180529 0.000202532218910237 0.000109378645354267 0.000283405651862515 0.000426251328530789 0.000312528426780219 0.00038039169187072
"136" -7.64768628050699e-05 -0.000171452743224126 0.000305638116323916 -0.000316076184059252 0.000151262202329767 -0.000114479080266832 0.000177341495690626 3.21153354758553e-05 0.00216002419831715 -0.000170914278030174 0.000208622423792769 0.000121164964031663 0.000294384632545491 0.000433555626458412 0.000317828574722021 0.000381947804287038
"137" -6.70075613610119e-05 -0.000148848612102019 0.000306164701951007 -0.00028984046358287 0.000151379485336077 -0.000101932143469044 0.000181977710246217 3.98062710552682e-05 0.00215597774717674 -0.000160356125315036 0.000215197699433962 0.000132547766990585 0.000304951449998993 0.000442025830634269 0.000323652060366844 0.000383649186358511
"138" -5.72384843192092e-05 -0.000125104366905364 0.000306382994617837 -0.000262970203227406 0.000151336350378126 -8.87666224132326e-05 0.000185964340412884 4.76735771360637e-05 0.00215511299224887 -0.000148710310573419 0.00022226665668006 0.000143475562397276 0.000315100955768607 0.000451668864009346 0.000330023076366013 0.000385563244755858
"139" -4.71503732242571e-05 -0.000100321152496301 0.000306346603929252 -0.0002355691896304 0.000151196496598808 -7.49965880602059e-05 0.00018935061159129 5.57889688655762e-05 0.00215736839003686 -0.000136034458894604 0.000229835426978046 0.000153898531586516 0.000324844206638606 0.000462479687098442 0.000336960087804004 0.000387750192953076
"140" -3.67121116552184e-05 -7.46038301000193e-05 0.000306104645243872 -0.000207750482620958 0.000151010492577055 -6.06295870514794e-05 0.00019220087552328 6.42306945173731e-05 0.00216264075818227 -0.000122396178310118 0.00023790643797318 0.000163766091676284 0.000334185835026308 0.000474449903524151 0.000344481812171001 0.000390268115000726
"141" -2.58963653129898e-05 -4.80622804728384e-05 0.000305722138739882 -0.000179624536585421 0.000150845261483119 -4.56809658017036e-05 0.000194585326513576 7.30668817977017e-05 0.00217080827859894 -0.000107870029405336 0.000246471449300824 0.000173039342157727 0.000343135732515771 0.00048754741321576 0.000352588207546499 0.00039316498906072
"142" -1.46869993692091e-05 -2.08295870832751e-05 0.000305246116548974 -0.00015130826907309 0.00015075971084453 -3.0164062665049e-05 0.000196583594381571 8.23800477743986e-05 0.00218169509915101 -9.25358289551103e-05 0.000255532579510829 0.000181674563554799 0.000351713350111289 0.00050175097964421 0.000361289565773367 0.000396493809851781
"143" -3.05455371352212e-06 6.97152369178208e-06 0.000304742089766842 -0.000122918457433703 0.000150826548462629 -1.4092658019378e-05 0.000198283914081818 9.22438505482174e-05 0.00219511206804073 -7.64808094509428e-05 0.000265073204804878 0.000189640666930559 0.000359932100254226 0.000517016747365721 0.000370573120809461 0.000400291503568956
"144" 9.02090254732833e-06 3.51965675458286e-05 0.000304256585624194 -9.45803183950493e-05 0.000151098978316897 2.50856788963805e-06 0.000199770542898428 0.000102729381657366 0.00221082910692791 -5.9799545912255e-05 0.00027508209630964 0.000196906991466241 0.000367805891415993 0.000533296953299362 0.0003804362654288 0.00040459570667252
"145" 2.155327124369e-05 6.37031483190377e-05 0.000303846677499146 -6.64111734011573e-05 0.000151644248289549 1.96216945522589e-05 0.000201140085667914 0.000113906536869109 0.00222859282552397 -4.25854535489155e-05 0.000285541900426112 0.000203450158839077 0.00037535844386317 0.000550537460563199 0.000390856205783225 0.000409432139325958
"146" 3.45533422844614e-05 9.23368285945066e-05 0.000303554292023311 -3.85322064973133e-05 0.000152528017128474 3.72198770370938e-05 0.000202488900193888 0.000125832005850498 0.00224811006166368 -2.49414134717557e-05 0.000296432933440672 0.000209253766310823 0.000382608883996578 0.000568671360278103 0.000401813943322474 0.000414817490233815
"147" 4.80261314845004e-05 0.000120936614487921 0.000303427665047784 -1.1065233709579e-05 0.000153802707959398 5.52755841518245e-05 0.000203908377826069 0.000138568402974024 0.00226907220705031 -6.97011588156474e-06 0.000307731015391817 0.000214301748551953 0.000389574347694295 0.000587632051109245 0.000413281395530201 0.000420767138343206
"148" 6.19757651965202e-05 0.00014934973249381 0.000303504546514857 1.5870607026523e-05 0.000155525086305619 7.3755947279695e-05 0.000205502400544077 0.000152161046007406 0.00229114744434595 1.12235434695324e-05 0.000319407130089582 0.000218595604811459 0.000396272887645574 0.000607330485854416 0.000425209846935888 0.000427276394624112
"149" 7.6396343574872e-05 0.000177408719304031 0.000303820911160778 4.2163526483878e-05 0.000157747233135976 9.26211534690575e-05 0.000207362882526201 0.00016664660778948 0.0023139805914963 2.95335399200639e-05 0.000331432618206958 0.000222135777124146 0.000402722463923871 0.000627682208898387 0.000437562424710296 0.000434336140867955
"150" 9.12647488808779e-05 0.000204942353919724 0.000304401084897129 6.76960414716909e-05 0.000160509328626432 0.000111835687541414 0.000209579512931812 0.000182058789279686 0.00233719467875497 4.78569646092303e-05 0.000343774021547457 0.000224927674736975 0.000408942061370486 0.000648595044011477 0.000450289285140876 0.000441931483820329
"151" 0.00010656242134892 0.000231788958764295 0.00030526426510957 9.23649135278795e-05 0.000163851535710949 0.00013134967496274 0.000212244118251231 0.000198409092843047 0.00236040817544 6.60898046812275e-05 0.000356397212425469 0.000226993495712092 0.000414943842861289 0.000669967047592747 0.000463331703936186 0.000450027211958485
"152" 0.000122257509692897 0.000257778842094231 0.000306430729749669 0.000116064524872788 0.000167806650626066 0.000151111693190672 0.000215432811239902 0.000215709175923579 0.00238321980414485 8.4129946105824e-05 0.00036926366528025 0.000228351062437624 0.000420736852253699 0.000691689779657403 0.000476621428329949 0.000458589034354536
"153" 0.000138309164581328 0.000282752078561289 0.000307901769219192 0.000138700684187596 0.000172394569616105 0.000171070187156682 0.000219229496728998 0.000233945197282974 0.0024052340792494 0.000101879691511086 0.000382331868113094 0.000229034570636681 0.000426328758983428 0.0007136474761898 0.000490083250055284 0.000467562450812571
"154" 0.000154664869764051 0.000306543180978951 0.000309675006904396 0.000160179632304535 0.000177626943646556 0.000191161769258268 0.000223693078891812 0.000253098793509819 0.00242603880181684 0.000119246192721049 0.000395561229765786 0.000229077674920509 0.000431725617029235 0.000735722717126665 0.000503647006909496 0.000476889314816677
"155" 0.000171261462384899 0.00032899406132575 0.000311743082428057 0.00018042565422154 0.000183518834412661 0.000211322728310065 0.000228884291489255 0.000273130298128116 0.00244523719304604 0.000136138251900627 0.000408904605798444 0.000228525633814761 0.000436926731346358 0.000757789945683856 0.00051722179161359 0.000486498223295077
"156" 0.000188037088801692 0.000349960464488984 0.000314088212497728 0.000199362822591996 0.00019005715567455 0.000231482673249253 0.000234850151116496 0.000293996114545106 0.00246244138016015 0.000152473903857726 0.000422316070069516 0.000227423492971489 0.000441926521319103 0.000779720174602396 0.000530713686534567 0.000496307606971021
"157" 0.000204905364283313 0.000369295228405232 0.000316682298855583 0.000216923690400252 0.000197232043662026 0.000251565079836194 0.000241627338210315 0.000315623758416789 0.00247726500750836 0.000168177783912037 0.000435748385676291 0.000225829317359543 0.00044671527043223 0.00080138324503529 0.000544032023150472 0.000506228534062246
"158" 0.000221781054736312 0.000386870503163418 0.000319492257656874 0.000233061744801657 0.000205024350751412 0.000271496636974193 0.000249241081468621 0.000337934555308359 0.00248935285101826 0.000183175356985 0.000449146292980977 0.000223801530069162 0.000451280298913179 0.000822638841779073 0.000557068148072429 0.000516163571219068
"159" 0.000238565478912603 0.000402558079421787 0.000322474184370263 0.000247726397871714 0.000213393339658527 0.000291191908036133 0.000257697650320843 0.000360836679259188 0.00249835738093458 0.000197409243535988 0.000462464556462932 0.000221402157150506 0.000455606326296515 0.000843354564081287 0.000569722244926574 0.0005260088334005
"160" 0.000255153504199229 0.000416254794976901 0.000325578781950642 0.00026088655993087 0.000222302727625134 0.000310564578479181 0.000267000921899481 0.000384215182824119 0.00250397093986779 0.000210821358749746 0.000475645921806568 0.000218701710429768 0.000459666300229071 0.000863387252067477 0.000581880027988217 0.000535647156807795
"161" 0.000271436426112758 0.000427859106578862 0.000328746048244981 0.000272519819532378 0.000231694544209008 0.000329530126736832 0.000277125901024524 0.000407951019920844 0.00250591287483966 0.000223366332210185 0.00048863501100408 0.000215764215023788 0.000463432639337847 0.000882598490103409 0.000593428347135373 0.000544964412060381
"162" 0.000287291295329415 0.000437297686601186 0.00033191937139696 0.000282617759012775 0.000241504460547977 0.000347991416763604 0.000288047351433247 0.000431903977807388 0.00250393508512228 0.000235009228001725 0.000501381926422892 0.000212667198491726 0.000466874779656179 0.000900849992690482 0.000604255844484419 0.000553836436165021
"163" 0.000302596591852151 0.000444497760971515 0.000335020350079285 0.000291175916899782 0.000251663174553424 0.00036586087298843 0.000299714735975051 0.000455924153268873 0.00249783198273628 0.000245718638546237 0.000513828374144692 0.000209479431752325 0.000469957718575612 0.00091800341557475 0.000614244989034218 0.000562138095451644
"164" 0.000317222346603283 0.000449420421541184 0.000337977711973115 0.00029820995222643 0.000262083588757013 0.000383046339268433 0.000312067510900858 0.000479850685014655 0.00248744322643272 0.000255477328428009 0.000525917421487603 0.00020627631906078 0.00047263970300724 0.00093392030636068 0.000623276680376935 0.000569736156452377
"165" 0.000331039878780135 0.00045203027580976 0.000340709032879429 0.00030374037894101 0.000272680408818198 0.000399453552454339 0.00032502693803561 0.000503511199236998 0.0024726477947267 0.000264271275801676 0.000537593358733359 0.000203130606426833 0.00047487779371555 0.000948472082735723 0.000631239943152814 0.00057650648941268
"166" 0.000343910720430934 0.000452318559028945 0.000343129580253435 0.000307799392521418 0.000283346459921497 0.00041498825543374 0.000338499803729068 0.000526726002465268 0.00245337511949379 0.000272101113527502 0.000548802356454031 0.000200109161111025 0.000476630763255905 0.000961531259258986 0.000638026842224216 0.000582318467471482
"167" 0.000355710685854311 0.000450299219976757 0.000345152382839552 0.000310438595034386 0.000293984170566138 0.000429563376486868 0.000352382327671787 0.000549307289051334 0.00242961357965206 0.000278970938329719 0.000559485978156338 0.000197286157733407 0.00047784344796963 0.00097297078170304 0.000643516791145321 0.000587044134549733
"168" 0.000366300506332219 0.000445989809494385 0.000346688670455002 0.000311702100341874 0.000304472716078088 0.000443093207100054 0.000366554154227517 0.000571060323875678 0.00240138388345326 0.000284899561404108 0.00056959437735598 0.000194719139901716 0.00047847077591285 0.000982683285297714 0.000647619177319136 0.000590564863571409
"169" 0.000375556968862938 0.000439448738148617 0.000347645921047448 0.000311661385050391 0.000314700570658275 0.000455488953433392 0.000380879059559222 0.000591788609076516 0.00236878194065082 0.000289904798491411 0.000579068712682041 0.000192474170869617 0.000478459092855509 0.000990550345242632 0.000650220844393622 0.000592755422062663
"170" 0.000383358575462284 0.000430733320174473 0.000347936146554357 0.000310387110123807 0.000324536211615828 0.000466677147561762 0.000395213023820425 0.000611294289994361 0.00233192229235219 0.000294020255329799 0.000587862286609804 0.000190599016092445 0.000477765209070168 0.000996484448751806 0.000651244076358913 0.000593512304272225
"171" 0.000389585048904185 0.000419931086252156 0.000347471860045674 0.000307957200017854 0.000333861829173729 0.000476583784014949 0.00040939785294328 0.000629376502366512 0.00229099375711575 0.000297281734165032 0.000595922518932487 0.000189145664096804 0.000476332014448407 0.00100038996077357 0.00065059588242271 0.000592728431102061
"172" 0.000394128630886571 0.000407144998552907 0.000346165618028621 0.000304462498090969 0.000342544983368629 0.000485137895115414 0.000423263683395938 0.00064584019875285 0.00224622482456883 0.000299731407097171 0.000603196475953629 0.000188152437488096 0.000474110256901006 0.00100218325494475 0.000648200492088625 0.000590306480514531
"173" 0.000396895131847583 0.000392492742523693 0.000343933177505157 0.000299993611722289 0.000350459694619758 0.000492281800393115 0.000436638444413173 0.000660490121434422 0.00219788908293713 0.000301416210132969 0.000609641936365713 0.00018765376017738 0.000471053077513782 0.00100179690901907 0.000643997060866653 0.00058616286544544
"174" 0.000397793617660735 0.000376105711764747 0.000340699104418331 0.000294654422486377 0.000357472795117537 0.000497966710790911 0.000449337987163117 0.000673142015594521 0.00214629240536848 0.000302390967686374 0.000615214899732967 0.000187673299791643 0.000467119226921039 0.000999174245555215 0.000637924250961019 0.000580226230592679
"175" 0.000396750056721546 0.000358133867492 0.000336392310195677 0.000288543145163773 0.000363461450659737 0.00050214962134587 0.000461177464418514 0.000683618437708133 0.00209178365849676 0.000302711493576422 0.000619870630858277 0.000188227057166996 0.000462259724773658 0.000994271948963712 0.000629943665292539 0.000572433817043963
"176" 0.000393707826410131 0.000338735600596295 0.000330947586636524 0.000281767186506291 0.000368302500928448 0.000504795818589564 0.000471963230622718 0.000691756818694059 0.00203474770187217 0.000302435974160896 0.00062357139735106 0.000189316984879972 0.000456442081825943 0.000987053638506876 0.000620018058240457 0.000562742368088833
"177" 0.000388617567797787 0.000318076329240611 0.000324309358595202 0.000274435534101 0.000371876832111599 0.000505883979181973 0.000481505218707343 0.000697402566508491 0.00197558277603498 0.000301629514421792 0.000626285193467668 0.000190940413340491 0.000449632771677299 0.000977506376736346 0.000608133988799229 0.000551115065868674
"178" 0.000381451955698919 0.000296340990738608 0.000316425485850894 0.000266657605551595 0.000374067835500047 0.000505399376255775 0.000489613739499242 0.000700418203312738 0.00191472218655814 0.00030034781353499 0.000627971561560974 0.00019308444568193 0.000441798242177448 0.000965614850905894 0.000594277740660049 0.000537535029541592
"179" 0.000372203584134785 0.000273710351850107 0.000307264461130743 0.0002585408503655 0.00037477484766657 0.000503342596339526 0.000496101012684803 0.000700681440731952 0.00185260719063347 0.000298658990308722 0.000628603856743927 0.000195721150066291 0.000432913384591685 0.000951388172501038 0.000578455880316332 0.000521997815105074
"180" 0.000360870356118427 0.000250372589076371 0.000296791950143469 0.000250191764203333 0.000373899645016248 0.000499725435885907 0.00050078435317819 0.000698093345964562 0.0017896891460523 0.000296622971605039 0.00062815731584435 0.000198815886267457 0.000422963101497393 0.000934845746028956 0.000560684995124201 0.000504514814473152
"181" 0.000347480085218112 0.000226517333688573 0.000284996490778669 0.000241713920925461 0.000371356334506058 0.000494567179571182 0.000503491099036992 0.000692571918325171 0.00172642205946671 0.000294297959296274 0.000626606334836302 0.000202324071995415 0.000411933216194003 0.000916023890037467 0.000541002848125461 0.000485116121636498
"182" 0.000332074198418269 0.000202337720047764 0.000271870617591204 0.000233212535658235 0.000367067331920217 0.000487901481265504 0.000504058156518507 0.000684056476889477 0.00166325867347596 0.000291743501188627 0.00062393243513896 0.000206189199346293 0.000399818921428848 0.000894967936346533 0.000519446544201966 0.000463844018167294
"183" 0.000314709242519997 0.000178024220477837 0.00025741836984153 0.000224780669186487 0.000360968541600268 0.000479770815845674 0.000502331188296417 0.000672509919603771 0.00160065226189725 0.000289012999958692 0.000620119954974163 0.000210346484667952 0.000386618092789836 0.000871731569793442 0.000496076828288501 0.000440756898754894
"184" 0.000295463273787358 0.000153758622731666 0.000241657725737105 0.000216510611390501 0.000353008140267033 0.000470226524812052 0.000498169794595721 0.000657917714678155 0.00153903095014333 0.000286153350730291 0.000615155435548132 0.000214720867903512 0.000372337770085771 0.000846385186064631 0.000470955828960952 0.000415927363582594
"185" 0.000274424777512252 0.000129721254664663 0.000224621071448012 0.00020848770261237 0.000343145002339466 0.000459339639984557 0.000491452654520129 0.00064029070504579 0.00147880667465442 0.000283212974455311 0.00060903281369153 0.00021923008258468 0.000356993554476314 0.000819017579608936 0.00044417217703368 0.000389445865220308
"186" 0.000251703602160173 0.000106084835939687 0.000206347228654577 0.000200786998582857 0.000331360611462715 0.000447180645932389 0.000482074706331895 0.000619663966058476 0.0014203797025477 0.00028022853824727 0.000601745097171497 0.000223785651485221 0.000340606013281771 0.000789716607114912 0.000415812063752517 0.000361410663646223
"187" 0.000227424449268865 8.30147164334832e-05 0.00018688860570946 0.000193482587988636 0.000317643372746349 0.000433833646514607 0.000469950179255751 0.000596095300621778 0.001364121997762 0.000277233238819686 0.000593293217746371 0.000228291158679917 0.000323197810013481 0.000758580513141196 0.000385975204875532 0.000331936905303569
"188" 0.000201721001613919 6.06586578579925e-05 0.000166305974617753 0.000186634233588407 0.000301995001224293 0.000419390496377075 0.000455008067246289 0.000569666329287557 0.00131036057228574 0.000274251388632281 0.000583678418181684 0.000232640701871341 0.000304807584523435 0.000725729627148917 0.000354776372302198 0.000301154605297348
"189" 0.000174739563985211 3.91580153610719e-05 0.00014467772948298 0.000180295645236278 0.000284432050885749 0.000403951765958543 0.000437202433201563 0.000540484670994279 0.00125941164137846 0.000271304639108144 0.000572909997069015 0.000236728477650591 0.000285469154645324 0.000691282320398213 0.000322333655296339 0.000269196760980748
"190" 0.000146641395724733 1.86397760048747e-05 0.00012208030221445 0.000174512577065405 0.000264996146757845 0.000387621469379889 0.000416512792825679 0.000508676712049076 0.00121153911535304 0.000268402555980339 0.000560999110627294 0.000240445180413229 0.000265237497251529 0.000655371482530753 0.000288775498337696 0.000236216591100092
"191" 0.000117589218191553 -7.81450812745388e-07 9.86127963513563e-05 0.000169315311729864 0.000243730092293502 0.000370513117298001 0.000392936488452138 0.00047439539778211 0.00116698702301727 0.000265546910733787 0.000547957887934241 0.00024367862958519 0.000244157382334018 0.00061812426551658 0.000254230761034529 0.000202366244059754
"192" 8.77600218451774e-05 -1.90089401817218e-05 7.43688266701929e-05 0.000164732122207211 0.000220699676487197 0.000352742902017875 0.000366494316738041 0.000437807548236726 0.00112594056807008 0.000262738318479654 0.000533807944440296 0.000246312465093388 0.000222288282987853 0.000579691158983896 0.000218848210846579 0.000167809692240387
"193" 5.73313956357609e-05 -3.59588440423382e-05 4.94583446298828e-05 0.000160777828552093 0.000195978117331741 0.000334429091544527 0.000337230874288904 0.000399105112467653 0.001088564208991 0.000259963155130148 0.000518572431036264 0.000248237249733319 0.000199695454796652 0.000540216486829239 0.000182762405356152 0.000132716009564416
"194" 2.6483191881575e-05 -5.15690982398266e-05 2.39925448492044e-05 0.000157454163717734 0.000169657936621584 0.000315692727293279 0.000305212945066784 0.000358489196727193 0.0010549695464986 0.000257202550662425 0.0005022793226538 0.000249339163850548 0.00017644862302308 0.000499853566447176 0.000146131396441499 9.72620657339023e-05
"195" -4.60190949539295e-06 -6.5785215202709e-05 -1.91435798973006e-06 0.000154759860480521 0.000141836483094317 0.000296655857809042 0.000270531075843408 0.000316182090382384 0.00102523630720399 0.000254432575227874 0.000484958501568168 0.000249509408051671 0.000152616745584562 0.000458758453556897 0.000109103757078427 6.16235461717866e-05
"196" -3.57390496398211e-05 -7.85786248571904e-05 -2.81390024114283e-05 0.000152678960103473 0.000112629926927143 0.000277443216869392 0.000233293219169989 0.000272414789195513 0.000999396199744418 0.000251618120219667 0.000466645996438772 0.000248647819759311 0.000128279386276101 0.000417088344346314 7.18320628988704e-05 2.59790360984915e-05
"197" -6.67497112153612e-05 -8.99244954512482e-05 -5.455606401091e-05 0.000151191504752574 8.21625100497633e-05 0.000258173356821926 0.000193633118589016 0.000227431627894786 0.000977452460236541 0.00024872428290907 0.000447384123524487 0.000246656924832512 0.000103513615786367 0.000375001542559251 3.44666724851038e-05 -9.49470796426899e-06
"198" -9.74577807512208e-05 -9.9825493043323e-05 -8.10421036980982e-05 0.000150261045736685 5.05635709214509e-05 0.000238962925915449 0.000151701086427552 0.000181483268865779 0.000959357738438426 0.000245704536405759 0.000427214336902252 0.000243449113666107 7.84070731210518e-05 0.0003326591185535 -2.83372013872485e-06 -4.46164024167599e-05
"199" -0.000127692709670932 -0.000108297415578243 -0.000107471805456552 0.00014985117069288 1.79787553882741e-05 0.000219924997230821 0.000107663047897775 0.000134825315034753 0.000945040200308777 0.000242513226545923 0.0004061858643895 0.000238942770824706 5.30413503438381e-05 0.000290218285978796 -3.9920276817276e-05 -7.9213171613721e-05
"200" -0.000157292241112395 -0.00011536589477501 -0.000133723379156581 0.000149911526172901 -1.54493953493262e-05 0.000201171229348697 6.17068641508845e-05 8.77180754370142e-05 0.000934379331458005 0.000239097089982949 0.000384348033327967 0.000233067510606353 2.75056534244683e-05 0.000247837587921547 -7.66469412928065e-05 -0.000113117586889905
"201" -0.000186103807502506 -0.000121077545160794 -0.000159667773824861 0.000150387536299825 -4.95605658666229e-05 0.000182802552404397 1.40295174775183e-05 4.04236951714882e-05 0.000927224796629708 0.00023540049646061 0.000361760074145776 0.000225767657210376 1.88883906840059e-06 0.000205672180788522 -0.000112864618819945 -0.000146160723410737
"202" -0.000213980897304462 -0.00012548614918953 -0.000185189307752805 0.000151220465086518 -8.42019364181188e-05 0.000164914496673392 -3.51531521994053e-05 -6.79778895153248e-06 0.000923401030381824 0.000231365257224458 0.000338481296637068 0.000216996059453924 -2.3719739837191e-05 0.000163873163111459 -0.000148435157499281 -0.000178188859104449
"203" -0.000240794893509264 -0.000128666098784779 -0.000210171725940887 0.000152338017789584 -0.00011920496325374 0.000147596078024576 -8.56172756164971e-05 -5.36927903047003e-05 0.000922692872094063 0.000226933509196992 0.000314573729925579 0.000206719746794748 -4.9231721394082e-05 0.0001225932910917 -0.000183220406972225 -0.000209051525615037
"204" -0.000266421437674964 -0.000130695007327272 -0.000234502214478351 0.000153673357381207 -0.000154411249059763 0.000130923210136551 -0.000137132117678662 -0.000100006970018236 0.000924862979841694 0.000222044530174228 0.000290102576751872 0.000194920429130643 -7.45585533925321e-05 8.19673203886246e-05 -0.000217101090554355 -0.00023860934083385
"205" -0.000290753591859913 -0.000131665057492262 -0.000258078521983053 0.00015515095771553 -0.00018964760435258 0.000114970707736706 -0.000189449512871779 -0.000145496238180665 0.000929649930940883 0.000216643942064903 0.000265139913015673 0.000181598487830805 -9.96114975677469e-05 4.2135902714039e-05 -0.000249948778141189 -0.000266734109124817
"206" -0.000313701783319882 -0.000131680013251841 -0.000280795349988461 0.000156690976815624 -0.000224757417211967 9.97961096945645e-05 -0.000242330349501414 -0.000189930851540391 0.000936766336752794 0.000210674192591463 0.000239756622434455 0.000166762365018058 -0.000124305069520716 3.23060949340389e-06 -0.000281653356063508 -0.000293309226960358
"207" -0.000335182911656051 -0.000130846055851759 -0.00030256866441182 0.000158215824861991 -0.000259573210362319 8.54494369948512e-05 -0.000295523647762918 -0.000233084830333344 0.000945906907758208 0.000204078518313891 0.000214026729318031 0.000150440107678366 -0.000148561549084738 -3.46275564626913e-05 -0.000312114171717867 -0.000318229327318645
"208" -0.000355135008474419 -0.000129279880567448 -0.0003233054508964 0.000159642201260463 -0.000293935818392112 7.19682058745978e-05 -0.000348772665211732 -0.000274747319042027 0.000956755021973554 0.000196812833108301 0.000188030174666039 0.000132678384779657 -0.00017229089423986 -7.13204450325058e-05 -0.000341231045725479 -0.000341399459936604
"209" -0.000373507647065697 -0.000127095300075538 -0.00034293150579954 0.000160896166861191 -0.00032768380201101 5.93796531153673e-05 -0.000401826976673605 -0.00031472681376906 0.000968981145055783 0.000188831187717412 0.000161843886435792 0.000113539462166066 -0.000195427693432838 -0.000106753410581031 -0.000368935705053003 -0.000362750908177072
"210" -0.000390267850434461 -0.000124424551727929 -0.000361382327910588 0.000161894293237549 -0.000360665079344391 4.77013323122059e-05 -0.000454440078434245 -0.000352844151316176 0.000982240536721152 0.000180095594117113 0.000135551545720632 9.30977528132118e-05 -0.000217890403952998 -0.000140816896519651 -0.000395138961749909 -0.000382211927311593
"211" -0.000405395763751993 -0.000121389526293357 -0.000378594616945167 0.000162561802482873 -0.000392734200440821 3.69412131247237e-05 -0.00050636459616815 -0.00038893360281444 0.000996189251848388 0.000170573007794595 0.000109231885263919 7.14424311380608e-05 -0.000239617451643568 -0.000173428421067241 -0.000419784843596903 -0.000399740252836618
"212" -0.000418888734876057 -0.000118115254744451 -0.000394521536999685 0.000162827104592456 -0.000423751448203147 2.7088786377168e-05 -0.000557362232264583 -0.000422850496528571 0.0010104823382027 0.000160240151377019 8.29692604829238e-05 4.86834159831065e-05 -0.000260538172500064 -0.000204513593840818 -0.000442826181914452 -0.000415298542795973
"213" -0.000430752290123892 -0.000114721137261842 -0.000409119279624955 0.000162623867753995 -0.000453584234662423 1.81313830056455e-05 -0.000607194659776877 -0.00045446980352966 0.00102477924711811 0.000149079660806185 5.68447372715436e-05 2.49411217740116e-05 -0.000280604154216391 -0.000234007297985715 -0.000464225630392683 -0.000428873151240816
"214" -0.000441015028056094 -0.000111336571513553 -0.000422360771615856 0.000161886479139122 -0.000482104187598249 1.00395062145082e-05 -0.000655645020850757 -0.000483683797931971 0.00103873124414492 0.000137082347687704 3.0941794983317e-05 3.50365702060215e-07 -0.00029975328202108 -0.000261847851534093 -0.00048394730494008 -0.000440456113188983
"215" -0.000449712474029314 -0.000108071177860371 -0.000434218910619217 0.000160561054129155 -0.000509195352134867 2.77673965139289e-06 -0.000702493134792472 -0.000510401813519888 0.00105202339510246 0.000124254957785136 5.34438326027519e-06 -2.49406439993035e-05 -0.000317946424138801 -0.000287995677263483 -0.000501983795710442 -0.00045006240410903
"216" -0.000456890508119906 -0.000105037699713472 -0.000444684617627749 0.000158600701649308 -0.000534756783315383 -3.70447640077341e-06 -0.000747535625606188 -0.000534554831573009 0.00106433445640137 0.00011060553436733 -1.98638843512056e-05 -5.07765830567845e-05 -0.000335136266932901 -0.000312414107887751 -0.000518324917407904 -0.000457714656519595
"217" -0.000462615722136592 -0.00010234091879823 -0.000453751760997712 0.000155960983589757 -0.000558684643595907 -9.45528238746124e-06 -0.000790584475775023 -0.00055609362130892 0.00107536311815147 9.61521312895077e-05 -4.46103460074786e-05 -7.69859856178164e-05 -0.000351289312389411 -0.000335077220597395 -0.00053297695178412 -0.000463455222397846
"218" -0.000466954446448617 -0.00010006903822763 -0.000461426175026677 0.000152610305628321 -0.000580895213508496 -1.45427130763394e-05 -0.000831459944325427 -0.000574987090059836 0.00108484058751521 8.09289318237852e-05 -6.88101183370735e-05 -0.000103395571396197 -0.000366377293698125 -0.000355973381052929 -0.000545957237643039 -0.00046733566449349
"219" -0.000469985394404211 -9.83110082233661e-05 -0.00046771981312392 0.000148529402143897 -0.000601311459836103 -1.90328843077499e-05 -0.000869996711824071 -0.000591223789476769 0.00109250939822351 6.49753050785511e-05 -9.23872825714985e-05 -0.000129819369379245 -0.000380374100306643 -0.000375099333277569 -0.000557292108425807 -0.000469421925980064
"220" -0.00047180026821894 -9.71398341228176e-05 -0.000472656367721894 0.000143699307955915 -0.000619870472918947 -2.30039939411843e-05 -0.000906049077076611 -0.000604806363888509 0.00109813800660691 4.83384040997651e-05 -0.000115269066024541 -0.000156071721286501 -0.000393262843675249 -0.00039245840610017 -0.000567015074339375 -0.00046979031164984
"221" -0.00047248834091743 -9.66084326864979e-05 -0.000476259209918889 0.000138122485396983 -0.000636510031048948 -2.6536975879355e-05 -0.000939479111407933 -0.000615763331067163 0.00110153488840358 3.10807597679568e-05 -0.000137382148795199 -0.000181956016272031 -0.000405034456309637 -0.000408068128844655 -0.000575171253408806 -0.000468530578861656
"222" -0.000472152508507984 -9.67697057246307e-05 -0.000478568847461101 0.000131799888929852 -0.000651194025976653 -2.97161894752542e-05 -0.000970170531050524 -0.000624128272113452 0.00110252601653959 1.32658490700952e-05 -0.000158661689673103 -0.000207283515917549 -0.000415677621414311 -0.000421952852361414 -0.000581810246727704 -0.000465739351740444
"223" -0.000470892401632486 -9.76564441979894e-05 -0.000479628066653982 0.000124748899649281 -0.000663891641371405 -3.26278208538677e-05 -0.000998023363512146 -0.000629961942351118 0.00110097623979367 -5.02912806316027e-06 -0.000179039460045899 -0.00023186043452739 -0.000425194565558952 -0.000434139917267093 -0.000586992177486844 -0.000461520306362554
"224" -0.000468815504353584 -9.9282371792586e-05 -0.000479477724548192 0.000116999958743126 -0.00067457389331067 -3.53600059962601e-05 -0.00102294956659105 -0.000633331000794954 0.00109678578263176 -2.37224408716521e-05 -0.000198457217943211 -0.000255490785544282 -0.000433587455953867 -0.000444673550342037 -0.000590780579020086 -0.000455991858823841
"225" -0.000466023984338104 -0.000101652722933839 -0.000478173795494287 0.000108586699887925 -0.000683234203568647 -3.80024884265054e-05 -0.0010448847392707 -0.000634321287840931 0.00108988539480384 -4.27240088411447e-05 -0.000216857208071586 -0.00027799344025381 -0.00044086383309277 -0.000453596158022532 -0.000593245032096925 -0.000449271636773576
"226" -0.000462626816309254 -0.000104758390022929 -0.00047577296267462 9.95562437322354e-05 -0.000689870075464756 -4.06457130103458e-05 -0.00106377473993839 -0.000633026720367829 0.00108023851584763 -6.19372858501567e-05 -0.000234182430647831 -0.00029918334364003 -0.000447038778614078 -0.000460957345442197 -0.000594458643699083 -0.000441482544222792
"227" -0.000458720906693736 -0.000108564927418091 -0.000472333194519795 8.99642817394257e-05 -0.000694489996343932 -4.33699511544531e-05 -0.00107958247015712 -0.000629550339497435 0.00106785718510368 -8.12625025297384e-05 -0.00025039035779039 -0.000318888905953706 -0.000452125603365932 -0.00046681859465838 -0.00059449969592441 -0.000432752520969799
"228" -0.000454407545895081 -0.000113039449987202 -0.000467917521607726 7.98726426444394e-05 -0.000697116644113337 -4.62603420638867e-05 -0.00109229245843086 -0.000624009202020429 0.00105276640154935 -0.000100598190691207 -0.000265432892153599 -0.000336940116585459 -0.00045614977361878 -0.000471233352053516 -0.00059344296345411 -0.00042321358219257
"229" -0.000449774979777468 -0.000118119020355428 -0.000462587007200967 6.93579324099234e-05 -0.000697776566538898 -4.93962064443301e-05 -0.00110189815764613 -0.000616525600014789 0.00103503911620263 -0.000119831867412565 -0.00027926885240831 -0.000353189567489299 -0.000459128592190902 -0.000474266718409635 -0.000591367334994391 -0.000412992877488446
"230" -0.000444915901779532 -0.000123737351185789 -0.000456411199227174 5.84962861701146e-05 -0.000696504757752776 -5.28482122852683e-05 -0.00110841309282425 -0.000607226468086723 0.00101478296614047 -0.000138859727297837 -0.000291868120564863 -0.000367492369131576 -0.000461092147536548 -0.000475984753459023 -0.000588357018771281 -0.000402225444515498
"231" -0.000439902184332997 -0.000129805460471305 -0.000449453379978577 4.73775862714946e-05 -0.000693347533214301 -5.6683108711159e-05 -0.00111186578506048 -0.000596249882073927 0.000992125588228459 -0.000157572019598175 -0.00030320065830666 -0.000379720067349691 -0.000462074094227528 -0.000476460331476401 -0.000584496149973065 -0.000391042311674093
"232" -0.000434806185693124 -0.000136236984444272 -0.000441776097515479 3.60878421718287e-05 -0.000688361466862385 -6.09569667172429e-05 -0.00111229815497048 -0.00058372210640938 0.000967218941474121 -0.000175858187842408 -0.000313238592951953 -0.000389767853439046 -0.000462098190405814 -0.000475749309509907 -0.00057984691815551 -0.000379561220517182
"233" -0.000429686022077881 -0.000142918266245895 -0.000433448508449132 2.47274782074186e-05 -0.000681598351253756 -6.57207756543909e-05 -0.00110976477417436 -0.000569789527797548 0.000940253026919575 -0.000193614257479032 -0.0003219660174337 -0.000397536949994903 -0.000461201389232951 -0.000473927967835007 -0.000574496772423287 -0.000367910849853121
"234" -0.000424584093456063 -0.000149736138625673 -0.000424523538163052 1.33967265901798e-05 -0.00067313125506041 -7.1018200302996e-05 -0.00110433040844739 -0.000554583059795677 0.000911438848237045 -0.00021073339077064 -0.000329367421950608 -0.000402948957837834 -0.000459419492712804 -0.000471065571309158 -0.000568517452941692 -0.000356210721017216
"235" -0.000419545644108345 -0.000156569391578861 -0.000415068812871378 2.19367394552734e-06 -0.000663028675606768 -7.68742199838063e-05 -0.00109608388697953 -0.000538244616674763 0.000880988882570838 -0.000227118294515119 -0.000335436228903721 -0.000405952137464234 -0.000456789233731531 -0.000467219477384951 -0.00056197234295638 -0.000344567297527404
"236" -0.000414591724090377 -0.00016328431758121 -0.000405134839347875 -8.77528752858793e-06 -0.000651369361265251 -8.33170016952612e-05 -0.00108511155887368 -0.000520901966938903 0.000849156038694242 -0.000242673542977686 -0.00034016883328832 -0.000406504662076244 -0.000453346803396519 -0.00046246208287499 -0.00055492823976064 -0.000333087533468228
"237" -0.000409732262413413 -0.000169747233489281 -0.000394776805114531 -1.94042643880842e-05 -0.000638234118065445 -9.03510791604057e-05 -0.00107152002497867 -0.000502686608741964 0.000816183831389232 -0.000257311231240872 -0.000343567894335448 -0.000404594270128839 -0.000449136971659116 -0.00045684790549697 -0.000547444386079359 -0.00032186752841448
"238" -0.000404968068557823 -0.000175817991313817 -0.000384045254723277 -2.95938627178912e-05 -0.000623705164155463 -9.79805455525533e-05 -0.0010554195259084 -0.000483722927151464 0.000782338691775961 -0.000270948030850565 -0.000345642432564211 -0.000400219875677131 -0.000444194593009855 -0.000450443802509623 -0.00053958141231477 -0.000310999928182804
"239" -0.000400288983526497 -0.000181358500548829 -0.000372979386038336 -3.92414290591694e-05 -0.000607871675645817 -0.000106192208886564 -0.00103692618938644 -0.000464125760103498 0.000747886157713892 -0.000283513849288151 -0.000346406745228156 -0.000393412854237793 -0.000438562186747806 -0.000443301150167361 -0.000531381005457979 -0.000300563489412177
"240" -0.000395667127467844 -0.000186227072278044 -0.000361624947046813 -4.82483418521135e-05 -0.000590826228634022 -0.000114968960641411 -0.00101617325768776 -0.000444008366680298 0.000713094442883073 -0.000294940267431557 -0.000345880348151939 -0.000384217675469404 -0.000432283226425769 -0.000435473060891762 -0.000522893154694302 -0.00029062852796269
"241" -0.000391069473947275 -0.000190285201047777 -0.000350014495904907 -5.65209782274193e-05 -0.000572658593452932 -0.000124276915943713 -0.000993292603759976 -0.000423473357403883 0.000678224951577521 -0.000305173910734496 -0.000344087193753959 -0.000372703609042429 -0.000425401104665474 -0.000427004759435206 -0.000514151546488627 -0.00028125589778629
"242" -0.000386449274253279 -0.000193402492496043 -0.000338179641877966 -6.39707007149354e-05 -0.000553461344790654 -0.000134075034998504 -0.000968427056287551 -0.000402610138216223 0.000643539928038704 -0.000314168473761432 -0.000341058922109605 -0.00035896057619881 -0.000417956602030341 -0.000417943869775561 -0.000505194418541976 -0.000272499613760885
"243" -0.000381746919303733 -0.000195444129858565 -0.00032614657389315 -7.0512863093498e-05 -0.000533325830932599 -0.000144315178651676 -0.000941716052070322 -0.000381507666962302 0.000609293996903502 -0.000321889520510285 -0.000336834606964198 -0.000343101444558312 -0.00040999731154128 -0.000408334098657114 -0.000496048689008288 -0.000264403871833078
"244" -0.000376904364950913 -0.000196294841742953 -0.000313937081153448 -7.60742967293753e-05 -0.000512351950031912 -0.00015493423671082 -0.000913313369759926 -0.000360235983264248 0.000575715729214761 -0.000328312941026769 -0.000331451865128509 -0.000325255885507531 -0.000401564904568974 -0.000398204364197371 -0.000486733005846601 -0.000256994034845552
"245" -0.000371841159924943 -0.000195836630929932 -0.000301569168249878 -8.05813187550002e-05 -0.000490629457766449 -0.000165867048491244 -0.000883363451116816 -0.000338864642130635 0.000543042579844997 -0.000333425657843857 -0.000324966642185205 -0.000305574090167704 -0.000392713471652027 -0.000387593793028919 -0.000477273287468956 -0.000250300864135543
"246" -0.000366484883340667 -0.000193968320054109 -0.000289056589259496 -8.39801899582069e-05 -0.000468252533758166 -0.00017704158325467 -0.000852022512400939 -0.000317445877532039 0.000511473351640256 -0.000337226628412575 -0.000317422768757894 -0.000284225183200101 -0.000383483158383833 -0.000376528892974792 -0.000467675562022303 -0.00024433582496926
"247" -0.000360750740207528 -0.000190598900395778 -0.000276408043398113 -8.62181475478751e-05 -0.000445311717226124 -0.000188371995656979 -0.000819441462525734 -0.000296026361024533 0.000481197707697762 -0.000339723391025947 -0.000308886249135555 -0.000261396011918708 -0.000373925984635142 -0.000365033879373665 -0.000457952252073591 -0.000239101803577272
"248" -0.00035455252312287 -0.000185649951411917 -0.000263633193381201 -8.72512273958059e-05 -0.000421898687151794 -0.000199778434278709 -0.00078577413658233 -0.000274642033484903 0.000452383460961118 -0.000340939166001328 -0.000299417356678998 -0.000237285705477322 -0.000364095584909032 -0.000353133069402306 -0.000448110401918848 -0.000234596149470935
"249" -0.000347799326169402 -0.000179055817093071 -0.000250733169818656 -8.70510190733253e-05 -0.000398099194755725 -0.000211164694421868 -0.000751169410355003 -0.000253319150179856 0.000425172678416288 -0.000340900383003256 -0.000289083096116229 -0.000212108870240901 -0.00035403495551692 -0.000340842505608137 -0.000438148718588821 -0.000230807703937615
"250" -0.000340407843326675 -0.000170763055156543 -0.000237711555107481 -8.55925609113059e-05 -0.000374004110365878 -0.000222442208584535 -0.000715776869464607 -0.000232075450948018 0.000399691851666082 -0.000339656549735256 -0.000277961910905546 -0.00018609344773523 -0.00034380710412191 -0.000328182412589413 -0.000428074047109756 -0.000227719151407105
"251" -0.000332285697856593 -0.000160740470632122 -0.000224567716741647 -8.28691847759881e-05 -0.000349692657145098 -0.000233511997758248 -0.000679743145992443 -0.000210922095407673 0.000376037931677624 -0.00033725363124947 -0.000266129142551638 -0.000159475157313936 -0.000333461579750582 -0.000315167300558946 -0.000417883048177734 -0.000225302286342428
"252" -0.000323363241193522 -0.000148971804235249 -0.00021130367617485 -7.88819127595421e-05 -0.000325250496793479 -0.000244279081035218 -0.000643214748888369 -0.000189860103049007 0.000354270952519617 -0.000333756244821448 -0.000253665126865285 -0.000132501540962135 -0.000323054216308008 -0.000301802081554681 -0.000407567108560773 -0.000223525560762273
"253" -0.000313551452031401 -0.000135452670479414 -0.000197915156437357 -7.36404556398891e-05 -0.000300759678112956 -0.000254649348466138 -0.000606328881432336 -0.000168891865122689 0.000334447061230895 -0.000329236473274258 -0.000240661665313793 -0.000105420840085243 -0.000312646253944572 -0.0002881025882053 -0.000397127455847845 -0.000222355976717948
"254" -0.000302788450608079 -0.000120199064047281 -0.000184405148514109 -6.71671537855677e-05 -0.000276293402205631 -0.000264523843676499 -0.000569220810207938 -0.000148006280000471 0.000316583389084389 -0.000323768996570821 -0.000227202793521297 -7.84850479584e-05 -0.000302295832864305 -0.000274081124644218 -0.000386564719528721 -0.000221751234578134
"255" -0.000291012414205576 -0.00010324911476452 -0.000170771842200917 -5.94950240861745e-05 -0.000251932104328402 -0.000273814060352412 -0.000532024144318768 -0.000127190403872469 0.000300679164535301 -0.000317441944499265 -0.000213383150309566 -5.1948135035307e-05 -0.000292065520732573 -0.000259742819966674 -0.000375869110312035 -0.000221664883009867
"256" -0.000278173664027848 -8.46525171063132e-05 -0.000157020854474398 -5.06695325375656e-05 -0.00022774683699182 -0.000282428170933622 -0.00049486283795146 -0.000106429244568994 0.000286700594537449 -0.000310346984745141 -0.000199296357193 -2.60662147315075e-05 -0.000282014118306651 -0.000245093696745313 -0.000365040426863324 -0.000222051160370035
"257" -0.000264232025707078 -6.44773273259353e-05 -0.000143154851188623 -4.07400190679955e-05 -0.000203807683978968 -0.000290284112243617 -0.000457858936077338 -8.57075137254858e-05 0.000274602359063137 -0.000302582632675981 -0.000185045120768959 -1.07991461581801e-06 -0.000272212033168602 -0.000230148509509384 -0.000354080933581437 -0.00022286458596034
"258" -0.000249165450478734 -4.28074656073992e-05 -0.000129178683369316 -2.97758045450371e-05 -0.000180186335106057 -0.000297302976895244 -0.000421123146490785 -6.5006911543689e-05 0.000264311738490506 -0.000294249087801411 -0.000170724625224351 2.27675236789312e-05 -0.000262720314954308 -0.000214918032814997 -0.00034299687248373 -0.000224052868128689
"259" -0.00023296131844082 -1.9754386564777e-05 -0.000115109426007269 -1.78443488855343e-05 -0.000156951674420733 -0.000303411843534368 -0.000384769703989756 -4.43086153431823e-05 0.000255733163927844 -0.000285448534157872 -0.000156434890458401 4.52452333874033e-05 -0.000253604062233341 -0.000199409715749287 -0.000331783874933234 -0.000225567821549398
"260" -0.000215627588190894 4.56650318111135e-06 -0.000100957884585452 -5.02928623999204e-06 -0.000134169145326919 -0.000308545663215428 -0.000348902347725986 -2.35997937012635e-05 0.00024876048190933 -0.000276292439542801 -0.000142282343265014 6.6135251090739e-05 -0.000244935873713898 -0.000183641159782536 -0.00032045913920058 -0.000227361291546343
"261" -0.000197180255283641 3.00228179428613e-05 -8.67461927657124e-05 8.58446353084537e-06 -0.000111896755471988 -0.000312650536620378 -0.000313614316013612 -2.86514336038907e-06 0.000243265433179964 -0.000266882257800115 -0.000128362342493497 8.52381568722145e-05 -0.00023677803119447 -0.000167631291271518 -0.000309036671492748 -0.000229388607431826
"262" -0.000177664108066412 5.64574810844204e-05 -7.24936370955236e-05 2.28962939092917e-05 -9.02048941983494e-05 -0.000315674178160146 -0.000279003629921473 1.79008137479097e-05 0.000239101428188286 -0.000257324771216299 -0.000114777430356916 0.000102365124034345 -0.000229200659734644 -0.000151389939557827 -0.000297527037134505 -0.000231599776162818
"263" -0.000157129657113354 8.371082813809e-05 -5.82352963686761e-05 3.78074504179519e-05 -6.91542717716621e-05 -0.000317579703996512 -0.00024515467480855 3.87022909986575e-05 0.000236121003606348 -0.000247726901902169 -0.000101630806733139 0.000117350249130146 -0.000222273323882034 -0.000134950032423133 -0.000285957776330117 -0.000233958684832962
"264" -0.000135650764691184 0.000111608839883785 -4.40006563592579e-05 5.32123787413911e-05 -4.87990856003064e-05 -0.0003183408202197 -0.00021214998808378 5.95424472369157e-05 0.000234159954031469 -0.000238186497468048 -8.90119289577239e-05 0.000130049747336226 -0.000216057920588884 -0.00011833431017658 -0.000274355052814185 -0.000236425669775821
"265" -0.000113323028560038 0.000139960830910469 -2.98299878601537e-05 6.89983757778979e-05 -2.91990239119422e-05 -0.000317934426145037 -0.000180062938511861 8.04026698278182e-05 0.00023303952065628 -0.000228802018557825 -7.70230567570347e-05 0.000140342989139881 -0.000210624050628623 -0.000101573314307793 -0.000262751018773099 -0.00023896816503962
"266" -9.02526382371613e-05 0.000168572463224246 -1.57702463729315e-05 8.50533099414362e-05 -1.04149569585041e-05 -0.000316353526789519 -0.000148966922839932 0.000101275157892582 0.000232589258134564 -0.000219663562348756 -6.57532281193041e-05 0.000148133235071795 -0.000206031019408554 -8.46997892793536e-05 -0.000251180547615584 -0.00024155417588812
"267" -6.65661446258271e-05 0.00019724011371592 -1.87164778606576e-06 0.000101259282233024 7.49710293639099e-06 -0.000313602127120025 -0.000118932353836276 0.000122130358789314 0.000232628756557288 -0.00021085706659656 -5.5292113236944e-05 0.000153349917944494 -0.000202347578478617 -6.77591221085302e-05 -0.000239691152838508 -0.000244164909159722
"268" -4.24082773568683e-05 0.000225752858723387 1.18083993401044e-05 0.000117503335228425 2.44891840943383e-05 -0.000309690261004337 -9.00158774141006e-05 0.000142937731119575 0.000232974321091732 -0.000202460241111082 -4.57197606059502e-05 0.000155949423939624 -0.000199630208883594 -5.07895722275849e-05 -0.00022832861263998 -0.000246777784498687
"269" -1.79366878040378e-05 0.00025390197245866 2.52158969681388e-05 0.0001336650220285 4.05012028413719e-05 -0.000304643672269066 -6.22784384501973e-05 0.0001636526959582 0.000233447476292201 -0.000194541532402946 -3.71182101902473e-05 0.000155917933560026 -0.000197932934835117 -3.38467157324015e-05 -0.000217148383743846 -0.000249380936079505
"270" 6.67463045701116e-06 0.00028146899977469 3.82830351949761e-05 0.000149633626564981 5.54875826243262e-05 -0.000298492495255408 -3.57754693614509e-05 0.00018422514498212 0.000233877226406039 -0.000187163233323123 -2.95611390890051e-05 0.000153266959570481 -0.000197309504600113 -1.69757784084521e-05 -0.000206203522327566 -0.000251964242832206
"271" 3.12385124788281e-05 0.000308239477417499 5.09372589281029e-05 0.00016529326971681 6.93956215581762e-05 -0.000291286848130352 -1.05568679198745e-05 0.00020459639121941 0.000234095450963953 -0.000180374540199272 -2.31126575726072e-05 0.000148037585901339 -0.000197808256085562 -2.42947932900401e-07 -0.000195561827766818 -0.000254528860215454
"272" 5.55576158236918e-05 0.000334008720416541 6.31130700704747e-05 0.000180534680875948 8.21768261162906e-05 -0.000283075797483803 1.3329070241149e-05 0.000224698716947716 0.000233944772664879 -0.000174217304363333 -1.78357957497475e-05 0.000140299818129054 -0.000199474478669699 1.62921783088239e-05 -0.000185288867883155 -0.00025707487788593
"273" 7.94186014477239e-05 0.000358564293067003 7.47286860036778e-05 0.000195256877262047 9.37870385156978e-05 -0.000273921551732337 3.58396628200229e-05 0.000244452225426203 0.000233275937423259 -0.00016872398471367 -1.37823957989377e-05 0.000130146715668825 -0.000202341324818071 3.25653749717078e-05 -0.000175454289385537 -0.000259611615240452
"274" 0.000102606310329897 0.000381713239797849 8.57118247650573e-05 0.000209358487796221 0.000104188015599083 -0.000263899276132507 5.6929691598605e-05 0.000263773633555465 0.000231960683132757 -0.000163912072715539 -1.10013870583344e-05 0.000117702868399872 -0.000206443075543535 4.85015284823687e-05 -0.000166132532756253 -0.000262153047216145
"275" 0.000124898878976589 0.000403263940678402 9.59784054026677e-05 0.00022274846022983 0.000113331836146664 -0.000253083967629484 7.65654562481453e-05 0.000282573472044702 0.000229875488741624 -0.000159792152000972 -9.53251173849939e-06 0.000103114529461308 -0.000211806651747246 6.40279590507504e-05 -0.000157398892912129 -0.000264716024495175
"276" 0.000146070349781418 0.00042304407361934 0.000105454992747984 0.000235338335033928 0.000121186349904589 -0.000241564367238239 9.47047192992627e-05 0.00030075160454817 0.000226923712394142 -0.00015636562680914 -9.39918000325257e-06 8.65473412432945e-05 -0.000218448638437601 7.90703880185384e-05 -0.000149329572743103 -0.000267320045639451
"277" 0.000165893374690217 0.000440891740783844 0.000114059066226743 0.000247056370177484 0.000127716804637279 -0.000229434374228711 0.000111318077620042 0.000318204955804092 0.000223023069726469 -0.000153618585851624 -1.06292862083474e-05 6.81978828806793e-05 -0.000226380424571964 9.35457779990099e-05 -0.00014200846451337 -0.000269994890676866
"278" 0.000184140059864563 0.000456658974239471 0.00012171242667765 0.000257828119378255 0.000132896697412094 -0.000216790120924764 0.000126371893033587 0.000334828745743001 0.000218109422334455 -0.000151531089472908 -1.32352688971452e-05 4.82722415124748e-05 -0.000235601848499198 0.000107380749076116 -0.000135503591343251 -0.000272762404082799
"279" 0.000200591169037375 0.00047022119493154 0.00012834348537867 0.000267599157590865 0.000136694961340863 -0.000203731912685635 0.000139838412033272 0.000350513488866024 0.000212131869181523 -0.000150071504546377 -1.72196735433549e-05 2.69962894430656e-05 -0.000246107581988664 0.000120496377804856 -0.000129894856061278 -0.000275654216439834
"280" 0.000215034924393456 0.000481469311243614 0.00013387467178782 0.000276315295576926 0.000139095328017362 -0.000190367942771063 0.00015169080148499 0.000365149272091512 0.000205079758156384 -0.000149204254180428 -2.25842843529637e-05 4.61011125684103e-06 -0.000257888211666129 0.00013280599681113 -0.000125262874994348 -0.000278702436537618
"281" 0.000227265875433331 0.000490320071513749 0.000138243635828614 0.000283940905598814 0.000140083830599787 -0.000176805608365398 0.000161909621241012 0.000378628506201886 0.0001969467947919 -0.000148878271415278 -2.93099712230873e-05 -1.86332312313965e-05 -0.000270909658857154 0.000144240024456418 -0.000121669468787795 -0.00028193569511656
"282" 0.000237091676611191 0.00049670924533821 0.000141382765754767 0.000290441898381752 0.000139648167165673 -0.000163149808290818 0.000170471161668681 0.000390843119235988 0.000187747979110373 -0.000149039176310062 -3.73785581031097e-05 -4.24747487879494e-05 -0.000285146001051817 0.000154720481460915 -0.000119181123395389 -0.0002853846585884
"283" 0.000244342622915294 0.000500594665999976 0.000143237725244373 0.000295801004027914 0.000137784389875348 -0.000149509199537935 0.000177362935628961 0.00040168880893591 0.000177529641204512 -0.000149629085030964 -4.67626876744878e-05 -6.66511236638468e-05 -0.000300548250548422 0.000164179846750391 -0.000117861969235842 -0.000289083867850806
"284" 0.000248859278324906 0.000501961392518239 0.000143757984681385 0.000300009423257012 0.000134496311488809 -0.00013599072027071 0.000182572328541358 0.000411069801827393 0.000166345822410022 -0.000150582586681008 -5.74227508213398e-05 -9.08908316987483e-05 -0.000317070353982287 0.000172545833290212 -0.000117767146878038 -0.000293055153858229
"285" 0.000250504791769471 0.00050081685660808 0.000142903687635069 0.000303062858766016 0.000129790438739487 -0.000122699485227539 0.000186087915339442 0.000418895472825067 0.000154269961886524 -0.000151829763917301 -6.93091199599846e-05 -0.000114931557210619 -0.000334640231958178 0.000179767241155961 -0.000118934861001287 -0.00029732562377409
"286" 0.000249166633816681 0.000497193679324978 0.000140635078879094 0.000304974864799242 0.00012368714741871 -0.000109730625102364 0.000187910307601302 0.000425082805307716 0.000141407122803887 -0.00015329723234993 -8.23757896035439e-05 -0.000138504364822026 -0.000353193663912879 0.000185779240174549 -0.000121412315610549 -0.00030191850661318
"287" 0.000244755111304407 0.000491144211185242 0.000136937847114786 0.000305760378111995 0.000116211767104919 -9.71833446657913e-05 0.000188043234380324 0.00042956050284298 0.000127852326846848 -0.000154912595905169 -9.65561400486135e-05 -0.000161355001151146 -0.000372639854635798 0.000190544342213682 -0.000125218593008448 -0.000306847288512401
"288" 0.000237211743755125 0.000482747013390115 0.000131786830702328 0.000305447270410451 0.000107386619206455 -8.5144652964462e-05 0.000186490836581731 0.000432273413470488 0.000113736260417977 -0.000156600442767747 -0.000111787900536825 -0.00018323198651312 -0.00039289300593275 0.000194022893836586 -0.000130372597954645 -0.00031212422933989
"289" 0.000226499020106145 0.000472103627678219 0.000125185795350973 0.000304071591463538 9.7256011512167e-05 -7.36965088819369e-05 0.000183266135085074 0.000433170898433115 9.91907542978701e-05 -0.000158289275076151 -0.000127992972662321 -0.00020389745766484 -0.00041384846431305 0.000196182143791987 -0.000136886725488674 -0.000317760137311809
"290" 0.000212612997699477 0.000459330216557264 0.000117139019264218 0.000301671832817391 8.58632022448699e-05 -6.29130466573828e-05 0.000178393102710955 0.000432224932661731 8.43540022451582e-05 -0.000159906887685155 -0.000145092157432159 -0.000223126822458167 -0.000435396685288505 0.000197008448273922 -0.000144749205413297 -0.000323750251796484
"291" 0.000195575137550238 0.000444564212712961 0.000107663286103781 0.000298299376060167 7.32631011416182e-05 -5.28592751561129e-05 0.000171897563305635 0.00042941720769015 6.93766122760542e-05 -0.000161383959370148 -0.00016300043213199 -0.000240711700508303 -0.000457418969236055 0.000196494142819663 -0.000153946478912323 -0.000330087344459621
"292" 0.000175439651866301 0.000427961423496597 9.67872683904184e-05 0.00029400826100894 5.95178745662179e-05 -4.35905133093641e-05 0.000163816317821766 0.000424751032776277 5.44076492600982e-05 -0.000162657624412532 -0.000181629350969506 -0.000256460379851126 -0.000479791518371886 0.000194637085571057 -0.00016444369229925 -0.000336761724461421
"293" 0.000152288760673318 0.000409690617094816 8.45503990070644e-05 0.000288856270928929 4.46906809470535e-05 -3.51563890935262e-05 0.000154186648996138 0.000418246281351895 3.96062225887285e-05 -0.000163666495537885 -0.000200884067650016 -0.000270202334537704 -0.000502379449449962 0.000191452242360359 -0.000176206955019166 -0.000343750558380067
"294" 0.000126234190101303 0.000389928062489054 7.09987560789323e-05 0.000282907079534056 2.88609428851045e-05 -2.7586644261283e-05 0.000143062120148852 0.000409934475489383 2.51075082594048e-05 -0.000164358055251082 -0.000220666359783578 -0.000281789117381001 -0.000525038463180107 0.000186971760423038 -0.000189167404276453 -0.000351022558230164
"295" 9.74158265408249e-05 0.000368867399266368 5.62015997726928e-05 0.000276225837633927 1.21106029085731e-05 -2.09136214997449e-05 0.000130499562383967 0.00039987245762827 1.10695008569915e-05 -0.000164683987791881 -0.000240877024041709 -0.000291088417217169 -0.000547630441303042 0.000181224104118407 -0.000203268236310316 -0.000358544605823812
"296" 6.59946986116967e-05 0.000346705221634873 4.02215113770137e-05 0.000268880902009892 -5.47757712629375e-06 -1.51467324967768e-05 0.000116566745474049 0.000388131200931131 -2.37417414114944e-06 -0.000164606420247258 -0.0002614119421929 -0.000298001837211098 -0.000570005176138051 0.00017426144690985 -0.000218423991605093 -0.000366272542821235
"297" 3.21680794368906e-05 0.000323645098199792 2.3141841597578e-05 0.000260940837411452 -2.37976379856335e-05 -1.02906701634199e-05 0.000101341470398628 0.000374801811727266 -1.50940641495733e-05 -0.000164093211937785 -0.000282169022380527 -0.00030244020031838 -0.000592004524829063 0.000166143069949653 -0.000234541823427935 -0.00037415611945012
"298" -3.85452647761375e-06 0.000299886402452163 5.05146851085877e-06 0.000252479668110901 -4.27572390766509e-05 -6.33973480499985e-06 8.49013999075585e-05 0.000359990032167497 -2.69711650431451e-05 -0.000163121677839786 -0.00030304280751235 -0.000304352785726811 -0.000613477734265705 0.000156936950447887 -0.000251522347353846 -0.000382137485154674
"299" -4.18377026799798e-05 0.000275635313101776 -1.39514098350017e-05 0.00024356249055093 -6.22534146652716e-05 -3.27340073693323e-06 6.73429657296526e-05 0.000343819441642655 -3.79017593911894e-05 -0.000161675457556528 -0.000323930709107364 -0.000303706873761697 -0.00063426767832848 0.000146724271696943 -0.00026924733784178 -0.000390150411533368
"300" -8.15296393726079e-05 0.000251095329917863 -3.37627627850994e-05 0.000234262330643741 -8.2167809564326e-05 -1.06285149038359e-06 4.8762281235144e-05 0.000326428372488844 -4.77905703532644e-05 -0.000159750993073815 -0.000344725386655361 -0.000300497995380839 -0.000654215726420701 0.000135591333570207 -0.000287597417951188 -0.000398129348872212
"301" -0.000122659885057224 0.000226458924016808 -5.42700748965326e-05 0.000224643312146624 -0.000102394927711127 3.28940926240678e-07 2.92694699048773e-05 0.000307969732283871 -5.6572358979342e-05 -0.000157350238853939 -0.000365326827665969 -0.000294738567243027 -0.000673168240934417 0.000123639400607429 -0.000306435754171858 -0.000405995428298412
"302" -0.000164950932568551 0.000201915899029254 -7.53582590203549e-05 0.000214774054370852 -0.000122815214017186 9.51097129533536e-07 8.9782362039526e-06 0.000288610604383152 -6.41909522384817e-05 -0.000154482644490038 -0.000385631815795613 -0.000286473567008194 -0.000690965418899503 0.000110974230613616 -0.000325619915633761 -0.000413667475589534
"303" -0.000208105169169354 0.000177649285704631 -9.69024900019842e-05 0.00020471615236744 -0.000143308888223672 8.57908467467046e-07 -1.19887813020316e-05 0.000268529804980186 -7.06018837652122e-05 -0.000151170559645067 -0.00040554560906528 -0.000275766407541115 -0.000707466568151143 9.77058846164984e-05 -0.000345012418705592 -0.000421064637430446
"304" -0.000251827205619206 0.000153826184376097 -0.000118781459050494 0.000194527587278565 -0.000163756561837318 1.17830746636736e-07 -3.35047543147929e-05 0.000247913347287447 -7.57952252493808e-05 -0.000147442108530411 -0.000424969721201603 -0.000262702130770653 -0.000722520075662886 8.39500421296024e-05 -0.000364454309379551 -0.000428094516350782
"305" -0.000295812476402086 0.000130605261522394 -0.000140867573718935 0.000184266788786442 -0.000184042274830414 -1.20157055797233e-06 -5.54363665950915e-05 0.000226959635415954 -7.97678608482555e-05 -0.000143332775733638 -0.000443813406220307 -0.000247391953787862 -0.000735985428889672 6.98361146099659e-05 -0.000383790854218075 -0.000434670174425953
"306" -0.000339758416952627 0.000108128758378156 -0.000163032746316635 0.000173982276598303 -0.000204044080329432 -3.01706931211053e-06 -7.76475235489483e-05 0.000205870123814078 -8.25459473535208e-05 -0.000138885402645468 -0.000461991638218459 -0.000229959541534884 -0.000747728520639597 5.54881549720769e-05 -0.000402864797705258 -0.000440698101940432
"307" -0.000383359856691405 8.65257297674723e-05 -0.000185146876243054 0.000163725160752148 -0.000223641446813088 -5.25119137027993e-06 -9.99955706960602e-05 0.000184846252573114 -8.4165449554978e-05 -0.000134149463664066 -0.000479420234833814 -0.000210557532549888 -0.000757630908771568 4.10298132932615e-05 -0.000421516668230844 -0.000446086894275171
"308" -0.000426316426153103 6.59114407946999e-05 -0.000207081454999585 0.000153536172626696 -0.000242720231340293 -7.81125922022887e-06 -0.000122339435548141 0.000164104050474865 -8.46850165580294e-05 -0.000129180715438196 -0.000496021711897909 -0.000189340068335807 -0.000765573066432549 2.65979039047048e-05 -0.000439587023240392 -0.000450744083346564
"309" -0.000468336677596596 4.63854347949332e-05 -0.000228713610413493 0.000143456290413297 -0.000261162068538598 -1.06082969035809e-05 -0.000144529064346215 0.000143845855507107 -8.41832900724712e-05 -0.000124037373927837 -0.000511728007730643 -0.00016649027295207 -0.000771450499505356 1.23174242863187e-05 -0.000456920393188833 -0.000454579946246056
"310" -0.000509140899284131 2.80215132275013e-05 -0.000249921572547508 0.000133515699459208 -0.000278863279680983 -1.35498529746307e-05 -0.000166419193180023 0.000124283475970729 -8.27545935382732e-05 -0.000118779720826175 -0.000526467669505239 -0.00014219709970572 -0.000775162378990168 -1.67975090382755e-06 -0.000473358302722181 -0.000457502605462205
"311" -0.000548448805413097 1.08871094643051e-05 -0.000270585342193733 0.000123746269164514 -0.000295716714411709 -1.65356418755459e-05 -0.000187868485709844 0.00010561609876501 -8.0505942846119e-05 -0.000113479095318298 -0.00054018234019974 -0.00011666272782698 -0.000776632192728095 -1.5267144621772e-05 -0.000488751200697555 -0.000459425907386609
"312" -0.00058600852795655 -4.96930124554757e-06 -0.000290589221991059 0.000114175840373716 -0.000311620159530541 -1.94748773560283e-05 -0.000208729764583874 8.80392632191658e-05 -7.75629022994335e-05 -0.000108198686221386 -0.000552822352651682 -9.00933914964976e-05 -0.000775792345605774 -2.83270371049964e-05 -0.000502957240543103 -0.000460272056097415
"313" -0.000621575507289663 -1.9524245554919e-05 -0.000309833252177094 0.00010481898571489 -0.00032648701106951 -2.22734005313808e-05 -0.000228860419250738 7.17437415683958e-05 -7.40571232015896e-05 -0.000103007835480675 -0.000564340955756729 -6.27113127551217e-05 -0.00077257729176406 -4.07346645798752e-05 -0.000515834863019079 -0.000459961190100193
"314" -0.000654925453712157 -3.27652421549588e-05 -0.000328210104835144 9.56955609356472e-05 -0.000340225900563934 -2.4834467713861e-05 -0.000248127009858726 5.690659831165e-05 -7.01393828041298e-05 -9.79720838912375e-05 -0.000574693363234401 -3.47328150657127e-05 -0.000766949698079838 -5.23762783116527e-05 -0.000527255252439944 -0.000458419797858047
"315" -0.000685851736944667 -4.46929981249222e-05 -0.000345629730129308 8.68200640697068e-05 -0.000352758170356545 -2.7074156313468e-05 -0.000266395433023 4.3691467539535e-05 -6.59612824853476e-05 -9.31559920904708e-05 -0.000583852945341626 -6.3826101926125e-06 -0.000758881460279411 -6.31536280718199e-05 -0.000537100176417754 -0.000455584592586514
"316" -0.0007141646218576 -5.53330346387218e-05 -0.000362008335565395 7.81974037151612e-05 -0.000364011534118136 -2.88991742255736e-05 -0.000283538419401426 3.22533761918942e-05 -6.16855294422921e-05 -8.86211035017047e-05 -0.000591785106042689 2.21177487224516e-05 -0.000748353308916006 -7.2959849479375e-05 -0.000545254154183561 -0.000451393295675321
"317" -0.000739703654388631 -6.47161878546216e-05 -0.000377272552046954 6.98370395940239e-05 -0.000373930866601698 -3.02318496282859e-05 -0.000299438961933032 2.27240671041493e-05 -5.74699293185261e-05 -8.4427236239057e-05 -0.0005984822589696 5.05460699823871e-05 -0.000735375188410568 -8.17156487183387e-05 -0.000551624757459531 -0.000445802351641963
"318" -0.000762322475341211 -7.28983319316192e-05 -0.000391352115274506 6.17399743218619e-05 -0.000382461374785598 -3.09938398204058e-05 -0.000313986851931185 1.5234251413024e-05 -5.34979313315242e-05 -8.06265089876446e-05 -0.000603920742921808 7.86886008562276e-05 -0.000719954752318235 -8.9332094451091e-05 -0.000556120690396272 -0.000438760913779207
"319" -0.00078190118253011 -7.99390601000411e-05 -0.000404188751753587 5.39083413664908e-05 -0.000389557522262801 -3.11136187093719e-05 -0.000327076316647684 9.87499594909863e-06 -4.9920819033494e-05 -7.72668243486289e-05 -0.000608104597646134 0.000106337191205412 -0.000702129908322421 -9.57478894212626e-05 -0.000558670424793234 -0.000430241983082764
"320" -0.000798344947040179 -8.59149637190313e-05 -0.000415740424703323 4.63379244367877e-05 -0.00039519370701043 -3.05277644526666e-05 -0.000338624992132044 6.73643661456123e-06 -4.69143793134965e-05 -7.43843574873664e-05 -0.000611029827252852 0.000133292894952874 -0.000681943910948375 -0.000100900753781503 -0.000559214679597839 -0.00042022077989673
"321" -0.000811580141889436 -9.09175467623987e-05 -0.000425967261869778 3.90262467931022e-05 -0.000399341806710605 -2.91765442017443e-05 -0.000348542619887297 5.88206328363434e-06 -4.46396742741646e-05 -7.20136930520537e-05 -0.000612706821087195 0.000159365746339053 -0.000659456913835048 -0.000104739991018912 -0.000557698827825181 -0.000408677888150564
"322" -0.000821553157743745 -9.50391513182294e-05 -0.000434843860514504 3.19712893422975e-05 -0.000401990815366779 -2.70158217157131e-05 -0.000356768885649614 7.34777776987496e-06 -4.32486770167858e-05 -7.01796033323872e-05 -0.000613151170129314 0.00018438135739633 -0.000634747572606313 -0.00010724388328653 -0.000554104762969281 -0.000395615544192767
"323" -0.000828241795711979 -9.83907317076824e-05 -0.000442356385200677 2.51644391091497e-05 -0.000403146721036682 -2.40006123982456e-05 -0.000363243793820638 1.11608187443504e-05 -4.28908970670328e-05 -6.88952396710407e-05 -0.000612380198876154 0.00020817809902819 -0.000607905796811393 -0.000108383413086196 -0.000548408110902351 -0.000381038019291744
"324" -0.000831646339467116 -0.000101083681055124 -0.000448498575125788 1.86031702479026e-05 -0.000402815515732786 -2.00988632253509e-05 -0.00036792479863058 1.73179973994924e-05 -4.370190209778e-05 -6.81691187903907e-05 -0.000610424301117283 0.000230613662312242 -0.000579031532499882 -0.000108154537054639 -0.000540609091905845 -0.000364964052477357
"325" -0.000831786218378498 -0.000103243260770801 -0.00045327423249959 1.22777200979841e-05 -0.000401017882191326 -1.52864001669739e-05 -0.000370779957006794 2.57965074725375e-05 -4.58088585515723e-05 -6.79949743639907e-05 -0.000607312886910113 0.000251558063799683 -0.000548244312976614 -0.000106557365461768 -0.000530720575438875 -0.000347419329621767
"326" -0.000828703521935517 -0.000104986668959901 -0.000456697528711162 6.18527269484925e-06 -0.000397785319196748 -9.54658271876139e-06 -0.000371796214386178 3.65526727420641e-05 -4.93222245073993e-05 -6.83612022051118e-05 -0.000603083305649523 0.00027090612425114 -0.000515667871352329 -0.000103620213325818 -0.000518774090129247 -0.000328447188364438
"327" -0.000822467201715408 -0.00010644200721013 -0.000458793057887111 3.24087936733219e-07 -0.000393160918075721 -2.87761188948241e-06 -0.000370967984906358 4.95134828841201e-05 -5.43309019210205e-05 -6.92441602011373e-05 -0.000597783471659366 0.00028856730250535 -0.000481450051013504 -9.93734145068567e-05 -0.000504818248412302 -0.000308099581345674
"328" -0.000813157278871037 -0.000107739807285082 -0.00045959500615878 -5.31482518517054e-06 -0.000387193253008969 4.72221966010365e-06 -0.000368305902977177 6.45945205418993e-05 -6.09208965245573e-05 -7.06116636298187e-05 -0.00059146044246126 0.000304473247096303 -0.000445737523679392 -9.38680758269571e-05 -0.000488913258192713 -0.00028643805293358
"329" -0.000800891520831916 -0.000109008804411375 -0.00045914752774364 -1.07314869636414e-05 -0.000379947729673879 1.32382946613806e-05 -0.000363838522472065 8.16845669274568e-05 -6.91482807417878e-05 -7.24242564178112e-05 -0.000584161617351351 0.000318578156620913 -0.000408687200237848 -8.71628448945067e-05 -0.000471131912562677 -0.000263535702550962
"330" -0.000785788640660508 -0.000110371314147352 -0.000457499032245705 -1.59248867004858e-05 -0.00037149118204498 2.26501764131772e-05 -0.000357599174454395 0.00010065089006537 -7.90586306726567e-05 -7.46296230433759e-05 -0.000575951209100912 0.000330852170441084 -0.000370471525541232 -7.93351238764247e-05 -0.000451568930348633 -0.000239478585893636
"331" -0.000767995123403259 -0.000111952226811548 -0.000454705570057998 -2.08918928289289e-05 -0.000361902576529901 3.29258014205029e-05 -0.000349644994996906 0.000121344013913113 -9.06695855170327e-05 -7.71743104770152e-05 -0.000566882816218208 0.000341293713596542 -0.000331262959799927 -7.0479374250766e-05 -0.000430326673088582 -0.000214364800755537
"332" -0.00074767722757041 -0.000113872171419555 -0.000450838430281334 -2.56361573476865e-05 -0.000351267046869977 4.40307931985615e-05 -0.000340039712419546 0.000143595095241168 -0.000103985728727543 -7.99896354804468e-05 -0.000557025242419858 0.000349911356434918 -0.000291244560443654 -6.0685825868611e-05 -0.000407521270806262 -0.000188294240491928
"333" -0.000725005114774826 -0.000116239497772152 -0.000445961954933634 -3.01451689666508e-05 -0.000339678677629172 5.59177883336055e-05 -0.000328860148374667 0.00016722155859529 -0.000118984853058607 -8.30041068505921e-05 -0.000546438468610566 0.000356744100275717 -0.000250598066353206 -5.00751969265485e-05 -0.000383283559467959 -0.000161384637300025
"334" -0.000700170488432701 -0.000119157415737113 -0.000440159624436105 -3.44140270593626e-05 -0.000327238663248752 6.85329819570202e-05 -0.00031619680574989 0.000192020951721977 -0.000135626984065756 -8.61446100361703e-05 -0.000535195832546032 0.000361842621447579 -0.000209517012683452 -3.87730044710455e-05 -0.000357753690275382 -0.000133759128437856
"335" -0.000673381456204016 -0.000122719901567589 -0.000433511610674327 -3.84320507436928e-05 -0.000314044469020374 8.18143114215914e-05 -0.000302149468570559 0.000217774968213104 -0.000153848249620067 -8.93283522050597e-05 -0.000523368742109371 0.000365279913892111 -0.000168192831918675 -2.69165528797566e-05 -0.000331088778928175 -0.000105554138411427
"336" -0.000644843059890646 -0.000127014446633858 -0.000426099854968681 -4.21886286330823e-05 -0.000300208504903806 9.56965430442525e-05 -0.000286831599430231 0.000244260216655199 -0.000173572582530031 -9.24704530495363e-05 -0.00051102323642977 0.000367141017583764 -0.000126814491638971 -1.46455032792352e-05 -0.000303443469576395 -7.69052779639886e-05
"337" -0.000614781502804325 -0.000132107902469684 -0.000418018503608822 -4.56684826635056e-05 -0.000285843272422363 0.000110102937573402 -0.000270362666462484 0.000271239623302774 -0.000194692109439626 -9.54858369435028e-05 -0.000498241921280532 0.000367532720956613 -8.55777215295933e-05 -2.11721075685132e-06 -0.00027499198779148 -4.7963697458544e-05
"338" -0.000583424041317653 -0.000138067944958846 -0.000409357311603633 -4.88586898898904e-05 -0.000271056150452149 0.000124958409664731 -0.000252873805669815 0.000298471089105545 -0.000217094581918489 -9.82869536683849e-05 -0.000485087013686409 0.000366567629947427 -4.46668796625353e-05 1.05146472053623e-05 -0.000245900265500255 -1.88766089298352e-05
"339" -0.000551002033001172 -0.000144936307530601 -0.000400204622501309 -5.17368422152409e-05 -0.000255967006659393 0.000140178774897405 -0.000234497844973924 0.000325703519884325 -0.00024063159997363 -0.00010078820280892 -0.000471639621523219 0.000364376096495434 -4.26791007088425e-06 2.30808300887126e-05 -0.000216352580018851 1.01972290574065e-05
"340" -0.000517754738738289 -0.000152747160910691 -0.000390658824455519 -5.42878502339278e-05 -0.000240688211268397 0.000155671489629045 -0.000215380808599098 0.000352684769756937 -0.000265153299433908 -0.000102905759357834 -0.000457967907618844 0.00036109334672209 3.54379099962588e-05 3.54150521142975e-05 -0.000186534140841766 3.90956836793957e-05
"341" -0.000483916861023047 -0.000161520278978305 -0.000380809715888451 -5.64913840436985e-05 -0.000225331565633829 0.000171353754197826 -0.000195669021872789 0.000379160417383246 -0.000290491958557027 -0.000104554860570653 -0.000444146097599284 0.00035686589637466 7.42720206964769e-05 4.7346892651034e-05 -0.0001566240693307 6.76590134885878e-05
"342" -0.000449724287379365 -0.000171261266034999 -0.000370750269733999 -5.83277922479544e-05 -0.000210004813936581 0.000187129048799911 -0.000175513161386233 0.000404882032588308 -0.000316468112421956 -0.000105658699557624 -0.000430242942365918 0.000351843690945323 0.000112075784805267 5.87080753289368e-05 -0.000126805613153545 9.57270126787172e-05
"343" -0.000415413269144101 -0.000181961865802658 -0.000360569521077253 -5.97754910771524e-05 -0.000194820901901019 0.000202903934866291 -0.00015506768097325 0.000429602600122634 -0.00034288445360468 -0.000106147383708324 -0.0004163263866301 0.000346179099402244 0.000148681551887974 6.93265033754768e-05 -9.72645570095419e-05 0.000123134028435844
"344" -0.00038120863513242 -0.000193594818106238 -0.000350353478439786 -6.08138310747072e-05 -0.000179880453803161 0.00021858256772683 -0.000134484990510878 0.000453083366738089 -0.000369540334590628 -0.000105954118625445 -0.000402463242314296 0.000340024714318885 0.000183944612123576 7.90350034838276e-05 -6.81770450674779e-05 0.000149721042473484
"345" -0.000347333321593255 -0.000206124137298757 -0.000340185663496455 -6.14217463654372e-05 -0.000165275413170501 0.000234068875989584 -0.000113918566544981 0.000475093534119216 -0.000396225705785156 -0.000105020576160143 -0.000388712130181168 0.000333537663572894 0.000217724648747599 8.76759661403122e-05 -3.97125646013506e-05 0.000175332858560009
