"V1" "V2" "V4" "V5" "V7" "V8" "V10" "V11" "V13" "V14" "V15" "V17" "V18" "V20" "V21" "V23"
"1" -0.000253298847614832 -3.80089097931748e-05 -0.000173631161448658 -0.000444285883557565 -0.000204925295400389 -0.000325480803072818 -0.000329811310009044 -0.000182994029239239 0.000321335316994825 -0.000177714543443071 8.74319819361207e-06 2.36919363817312e-05 -0.000138681987856761 0.000176199674008201 -0.000179468129915836 0.000124387542771676
"2" -0.000253681527767579 -3.99712504921076e-05 -0.000180231704081888 -0.000446729888377562 -0.000212231898072702 -0.000329914265123376 -0.00033435176140377 -0.000182248503003228 0.000319642241023895 -0.000175462045037407 1.42338761397612e-05 2.01145016263144e-05 -0.000153707744698351 0.000164817030839284 -0.000177094302373815 0.000119063143695072
"3" -0.000253714192001471 -4.14980704635915e-05 -0.000186435665240071 -0.00044849562727073 -0.000219114332268657 -0.000333574558964091 -0.000338197237429389 -0.000180869708667945 0.000317944611160878 -0.000172816196487747 1.97360188119614e-05 1.78545449950229e-05 -0.000167242899484817 0.000153502318771542 -0.000174195677398363 0.000114326650944429
"4" -0.000253383096634692 -4.25767802173989e-05 -0.000192203102949225 -0.000449541357759778 -0.000225530223635795 -0.000336425695746611 -0.000341331967298416 -0.000178882841482438 0.000316273010726624 -0.00016975767163603 2.52618528763488e-05 1.6948556957344e-05 -0.00017924620394279 0.000142332706395734 -0.000170745566151046 0.000110209276051529
"5" -0.00025265899213564 -4.31842250880802e-05 -0.000197496695681556 -0.000449821613874093 -0.000231422682426032 -0.00033844256426102 -0.000343723319941604 -0.000176319025476633 0.000314648494065606 -0.000166277044454001 3.08163241765434e-05 1.74311567373713e-05 -0.000189684590603722 0.000131373777565124 -0.000166723002488845 0.000106738002257729
"6" -0.000251539170169342 -4.33248146727789e-05 -0.000202295134591985 -0.000449311532069731 -0.000236758159341552 -0.000339609363781522 -0.000345372339642786 -0.000173220501613405 0.000313100020983691 -0.000162362183099487 3.64094769358865e-05 1.93194644776755e-05 -0.00019853665323359 0.000120694352942872 -0.000162105443252896 0.000103931211532569
"7" -0.000250010013245927 -4.29924196376265e-05 -0.000206572972386062 -0.000447983743054116 -0.000241492736218052 -0.000339915615599235 -0.000346269794089231 -0.000169629249877156 0.000311640601441246 -0.000158018867348608 4.20373481953362e-05 2.26166530331752e-05 -0.000205797977141547 0.000110359062912544 -0.000156878726636812 0.000101798709408944
"8" -0.000248066772789747 -4.21932742076755e-05 -0.000210308696871105 -0.00044581885653681 -0.000245594845998492 -0.000339355763343722 -0.00034641434325563 -0.000165592779882647 0.000310292975281925 -0.000153244175213678 4.77072943258229e-05 2.7322571484549e-05 -0.000211468277708332 0.000100429474347815 -0.000151029692354262 0.000100347530302888
"9" -0.000245710296576189 -4.09255388292972e-05 -0.000213484770970994 -0.000442799333475158 -0.000249031931270462 -0.000337933416459192 -0.000345811310134412 -0.000161154778174077 0.000309070653719683 -0.000148045633990749 5.34174047087461e-05 3.34238501984404e-05 -0.000215556602561608 9.09640163711957e-05 -0.000144549971273377 9.95791988500388e-05
"10" -0.000242941474001277 -3.92097824945066e-05 -0.000216096923419252 -0.000438927639801755 -0.000251789280937595 -0.000335664600390742 -0.000344478731971661 -0.000156376593701988 0.000307981663694821 -0.000142439134650516 5.91624139836604e-05 4.08912531250541e-05 -0.0002180886569351 8.20156752698524e-05 -0.000137438413902274 9.94856680659924e-05
"11" -0.000239765777916651 -3.70515201332988e-05 -0.000218128311892372 -0.000434197663831077 -0.00025383811785926 -0.000332556890232535 -0.000342429729625912 -0.000151306938408663 0.000307036198327154 -0.00013644111052158 6.49361176825758e-05 4.96918614450641e-05 -0.000219098746464797 7.362883396274e-05 -0.000129690106227726 0.000100056062345179
"12" -0.000236191302955939 -3.44709185714858e-05 -0.000219582149681381 -0.000428613804642163 -0.000255169219274449 -0.000328637871277508 -0.000339684152872064 -0.000146001523382364 0.000306237822712255 -0.000130074877098173 7.07310632464955e-05 5.9777957128186e-05 -0.000218626720314172 6.58550708553585e-05 -0.000121313310312395 0.000101271930412621
"13" -0.000232234543884066 -3.14908097571387e-05 -0.000220461493316704 -0.000422199936955735 -0.00025578103289742 -0.000323936051197359 -0.000336279160812392 -0.000140518706214883 0.000305588753758493 -0.00012336549909638 7.65362314136896e-05 7.10888239489026e-05 -0.000216734060621647 5.87224488423777e-05 -0.000112315605974485 0.000103111013241236
"14" -0.000227912650290211 -2.81407277176129e-05 -0.000220770423304192 -0.000414970649174857 -0.000255667683388295 -0.00031849109030389 -0.000332243771969785 -0.000134917074026455 0.000305080242271204 -0.000116352071545153 8.23384168466695e-05 8.35517177552547e-05 -0.000213480005395533 5.22688189768143e-05 -0.000102715798689782 0.000105541375511822
"15" -0.0002232383938457 -2.44397793247531e-05 -0.000220518563524726 -0.00040695509398421 -0.00025483439257851 -0.000312339394278247 -0.000327610532984741 -0.000129250404578986 0.000304710934656653 -0.000109067206504027 8.81206804699439e-05 9.70943768665413e-05 -0.000208941508526075 4.65165277110194e-05 -9.25302660631333e-05 0.00010853179418391
"16" -0.000218239264705325 -2.0426607536448e-05 -0.000219724332172736 -0.000398190088692895 -0.000253292872472825 -0.000305531462049125 -0.000322428304705933 -0.000123577555901503 0.000304471232977129 -0.000101552597901528 9.38649341584312e-05 0.000111622794486206 -0.00020319886085493 4.14825299244511e-05 -8.17822631843898e-05 0.000112045323181676
"17" -0.000212929154628442 -1.61280689761736e-05 -0.000218399516858777 -0.000388708457043704 -0.000251056040683545 -0.000298112269642135 -0.000316734074051861 -0.000117948134842506 0.000304354645561379 -9.38477555950922e-05 9.95534787161367e-05 0.000127050998011372 -0.00019633683805464 3.71887510631702e-05 -7.04970731375091e-05 0.000116039431076607
"18" -0.000207349136896722 -1.15837245143349e-05 -0.0002165715933786 -0.000378565068187041 -0.000248147279627768 -0.000290142858626413 -0.00031058221865697 -0.000112421906052447 0.000304337871189577 -8.60102556560605e-05 0.00010515927169155 0.000143262119702973 -0.000188457077366532 3.36360637526579e-05 -5.87128019622546e-05 0.000120467036594234
"19" -0.000201513234486633 -6.83036098696309e-06 -0.00021425989007791 -0.000367807361116591 -0.000244593437964613 -0.000281680370343925 -0.000304017407024683 -0.000107045537068562 0.000304408894095092 -7.80849560517038e-05 0.000110661375378339 0.000160152281708988 -0.00017965940593167 3.08252932535354e-05 -4.64632525965847e-05 0.000125283525770759
"20" -0.000195456011951232 -1.90329472291308e-06 -0.000211495025316219 -0.00035649019556992 -0.000240421445435533 -0.000272784723789114 -0.000297090686236992 -0.000101865285331151 0.000304549755614406 -7.01245581914428e-05 0.000116036180435862 0.000177600060069086 -0.000170053415993366 2.87535588568321e-05 -3.37875181942746e-05 0.000130435005766141
"21" -0.00018920130363008 3.1579381314406e-06 -0.000208305625108524 -0.000344674506812931 -0.000235670036813151 -0.000263522372306472 -0.000289857215540974 -9.69276962529646e-05 0.000304737633511238 -6.21869998972948e-05 0.000121257905253601 0.000195485869744712 -0.000159750961496704 2.74097407910511e-05 -2.07316972373002e-05 0.000135868687342869
"22" -0.00018278341617569 8.31598413543708e-06 -0.000204722739327704 -0.000332429446962681 -0.000230376258994575 -0.000253958721780187 -0.000282369689083907 -9.22693979394267e-05 0.000304958554649055 -5.43230949165036e-05 0.00012629732844691 0.00021368345960583 -0.000148862401233526 2.67861500878258e-05 -7.33855806722492e-06 0.000141535854496042
"23" -0.000176234880516255 1.35271020961853e-05 -0.000200784640234951 -0.000319818079636308 -0.0002245872144613 -0.000244158175293614 -0.000274680421357688 -8.79270914120631e-05 0.000305183036603967 -4.65932196295734e-05 0.000131126126165506 0.000232062187440813 -0.000137509881895562 2.68535683272412e-05 6.33783927617941e-06 0.00014737443461021
"24" -0.000169573288273454 1.87585339826743e-05 -0.000196517007776929 -0.000306907023987691 -0.000218339660953982 -0.000234187394685504 -0.000266838332906016 -8.39277650088277e-05 0.000305395919643949 -3.90491057755588e-05 0.000135721648288823 0.000250496839456309 -0.000125807909100908 2.75907413992723e-05 2.02493130212399e-05 0.000153336919065981
"25" -0.000162838218506564 2.39703624389315e-05 -0.00019196345866579 -0.000293775659912638 -0.000211689086685533 -0.000224118368655045 -0.000258901831624765 -8.03016781720179e-05 0.000305570862081002 -3.17508636640388e-05 0.000140056241827034 0.000268850383650179 -0.000113877628314783 2.89715382586001e-05 3.43398257573088e-05 0.000159364963878496
"26" -0.000156055562122312 2.91234168701249e-05 -0.000187159162931423 -0.000280495103621767 -0.000204689222817337 -0.000214017470841366 -0.000250920752255203 -7.70706035717692e-05 0.00030569100711399 -2.47513548992428e-05 0.00014410375147048 0.000286993828706287 -0.000101833050302741 3.09621240995208e-05 4.85522381228606e-05 0.00016540624578146
"27" -0.000149241060440962 3.41895750382203e-05 -0.000182137123622248 -0.000267132391058352 -0.000197383328714913 -0.000203941720476752 -0.000242932356824953 -7.42446320864122e-05 0.000305736553400845 -1.80972979819795e-05 0.000147837876484782 0.000304804143249869 -8.97879782111023e-05 3.35268900659992e-05 6.28348685073174e-05 0.000171411249525166
"28" -0.00014243573156123 3.91253228213557e-05 -0.000176936798141835 -0.000253774511715165 -0.000189835235302785 -0.000193965163657639 -0.000234998140423294 -7.18388300418838e-05 0.000305685180645221 -1.18462468924202e-05 0.000151238627700531 0.000322149206639498 -7.78569609219016e-05 3.66323402601189e-05 7.71279919167432e-05 0.000177326934684261
"29" -0.000135653858275872 4.39084384922155e-05 -0.000171597544344274 -0.000240484278421554 -0.000182093409903018 -0.000184141333189496 -0.000227149325698583 -6.98552884639699e-05 0.000305526684407273 -6.03995224520672e-06 0.000154283757329178 0.000338911308035615 -6.61464948033263e-05 4.02350912398936e-05 9.13757880326284e-05 0.000183106627238631
"30" -0.000128908011809523 4.85115339922324e-05 -0.000166142579686347 -0.000227332422309919 -0.000174211065440862 -0.000174523929158494 -0.00021942604647305 -6.82907184319014e-05 0.000305244591347044 -7.16520184351492e-07 0.000156956136949744 0.000354982101478069 -5.47523134025283e-05 4.4300641801325e-05 0.000105525454491856 0.000188709020430721
"31" -0.000122232088419965 5.28992696568381e-05 -0.000160619294419553 -0.000214394988476535 -0.000166248229390626 -0.000165176089805047 -0.000211871579463821 -6.71461491372979e-05 0.000304829737766056 4.07740745725359e-06 0.000159238266242252 0.000370242108283006 -4.37798781830075e-05 4.87827495957643e-05 0.000119517293513084 0.000194092755459949
"32" -0.000115630853852382 5.70631944067592e-05 -0.000155050306036414 -0.000201731395872685 -0.000158252584697643 -0.000156141350017776 -0.000204506503126956 -6.64052227692893e-05 0.000304273365805818 8.31831006562648e-06 0.000161120368882804 0.000384599464807053 -3.33052543329498e-05 5.36429065134297e-05 0.000133299927012888 0.00019921917751572
"33" -0.000109118481165304 6.09722512872965e-05 -0.000149464585516669 -0.000189407223641992 -0.000150279191060201 -0.000147466084254204 -0.000197364770829664 -6.60541414398379e-05 0.000303572753272698 1.19725731419986e-05 0.000162589156207142 0.000397958543535844 -2.34186240367942e-05 5.88397981163568e-05 0.00014682512469557 0.000204058344563238
"34" -0.000102710398490891 6.46106826673633e-05 -0.000143897776264033 -0.000177483349506427 -0.000142376745585665 -0.000139192864315142 -0.000190472063564736 -6.60712821382547e-05 0.000302725031378396 1.50205891076982e-05 0.000163641800600324 0.000410234577503273 -1.41841642793422e-05 6.43362955578728e-05 0.000160040681831456 0.000208580106376947
"35" -9.64067538186225e-05 6.79712961090604e-05 -0.000138372354948768 -0.000166008816677501 -0.000134594077312187 -0.000131352919970339 -0.000183843178055086 -6.64377283577544e-05 0.00030173691678025 1.74438657736487e-05 0.00016427436706878 0.000421356895923687 -5.66788756667576e-06 7.00898462815929e-05 0.000172902284108378 0.000212763018203972
"36" -9.02105089483393e-05 7.10432308217003e-05 -0.00013290780773935 -0.000155034904839993 -0.000126974030986593 -0.000123979440573737 -0.000177490187215331 -6.71187028605361e-05 0.000300615471934398 1.92381621213989e-05 0.000164490513466599 0.000431269168733914 2.08385779206339e-06 7.60723865129217e-05 0.000185368768017874 0.000216587875043247
"37" -8.41321355590079e-05 7.38165578872685e-05 -0.000127527035174047 -0.000144607970239223 -0.000119565993379988 -0.0001170958123179 -0.000171432979596497 -6.80898927340626e-05 0.000299367253023813 2.03949867949841e-05 0.000164295969659753 0.000439908581555547 9.02133118019012e-06 8.22393537472938e-05 0.000197396964969667 0.000220037621549956
"38" -7.81651535856045e-05 7.62899615433446e-05 -0.000122246695645564 -0.000134758783320133 -0.00011239865347626 -0.000110723483281687 -0.000165666120703095 -6.93134190904656e-05 0.000298012066207417 2.09224780784343e-05 0.000163700903062477 0.000447244719978059 1.51195211339701e-05 8.85682913749668e-05 0.000208958236258024 0.00022310852199059
"39" -7.23000713909539e-05 7.84651353238035e-05 -0.000117079805155838 -0.000125520932138335 -0.000105510800699591 -0.000104869543565962 -0.00016019604094482 -7.07526027253134e-05 0.000296572761322535 2.08340538762823e-05 0.000162721043477907 0.000453252889861154 2.03579893893313e-05 9.5029333927043e-05 0.000220021355760394 0.000225794578391826
"40" -6.65404739201168e-05 8.034244234445e-05 -0.000112037012285465 -0.000116925023224801 -9.89371470160135e-05 -9.95485660382544e-05 -0.000155022966844606 -7.23705683567395e-05 0.000295068042778121 2.0139272704838e-05 0.000161373588473605 0.000457910719548998 2.47277905856441e-05 0.000101599900755714 0.000230557569872882 0.000228097471658238
"41" -6.08702355829143e-05 8.19258443793057e-05 -0.000107132402247744 -0.000108983454059555 -9.27033524662034e-05 -9.47598871765804e-05 -0.000150136921689543 -7.41309553423888e-05 0.000293526351031622 1.88672013741667e-05 0.000159682056031067 0.000461219847413859 2.82263632135063e-05 0.000108256362184088 0.000240549587828223 0.00023002171257139
"42" -5.52843363478543e-05 8.32297727137372e-05 -0.000102368007066947 -0.000101708295783328 -8.68307310655312e-05 -9.05039738807493e-05 -0.000145531880742266 -7.59883106697485e-05 0.000291977742926209 1.70483217219136e-05 0.000157674807952846 0.000463189376909088 3.08709117532564e-05 0.000114981134305877 0.000249979177621544 0.000231580911163422
"43" -4.9765899938168e-05 8.4257478220179e-05 -9.77476605853429e-05 -9.51081515389136e-05 -8.13397543235916e-05 -8.67718261278692e-05 -0.000141191081865997 -7.79094574976871e-05 0.000290460824294128 1.47182901538288e-05 0.000155378308318818 0.000463837426806092 3.2682915839634e-05 0.000121763644806751 0.000258835385514199 0.000232790170989888
"44" -4.42984599995478e-05 8.50296010804506e-05 -9.32654177384971e-05 -8.91778896234401e-05 -7.62472594817211e-05 -8.3548853992102e-05 -0.000137104394490765 -7.98501432837761e-05 0.000289008505690731 1.19204216850361e-05 0.000152831059220891 0.000463198879483399 3.36918895759816e-05 0.000128594555800822 0.000267112343200462 0.000233665156144746
"45" -3.88795618238213e-05 8.55520748280057e-05 -8.89330156370275e-05 -8.39145964816495e-05 -7.15623284291174e-05 -8.08236086433039e-05 -0.000133252020800223 -8.17751201616862e-05 0.000287660701562576 8.70241853989594e-06 0.000150068821322232 0.000461312612100812 3.39400317402278e-05 0.000135465775241461 0.000274809174586093 0.00023423098737815
"46" -3.34838797107557e-05 8.58490517825369e-05 -8.47318465636116e-05 -7.9302322138063e-05 -6.72916638333415e-05 -7.85739077618116e-05 -0.000129616413531235 -8.36448600942794e-05 0.000286461252327431 5.11883130603536e-06 0.000147133394051485 0.000458234351858206 3.34814127779992e-05 0.000142371698086546 0.000281929011090656 0.000234514482425982
"47" -2.80935861192599e-05 8.59351178441848e-05 -8.06615813333331e-05 -7.53203021194045e-05 -6.34371717473181e-05 -7.67715084549183e-05 -0.000126172584655098 -8.5427995823454e-05 0.000285451088933722 1.22647119956314e-06 0.000144063885764351 0.000454023924928304 3.23732117653311e-05 0.00014932013610996 0.000288481169453049 0.000234545524879779
"48" -2.26943834952474e-05 8.58314406173331e-05 -7.67100336586513e-05 -7.19415651804223e-05 -5.99972908356866e-05 -7.53930759933104e-05 -0.000122904364645554 -8.7087959537352e-05 0.000284680491291529 -2.91150890149911e-06 0.000140911369805557 0.000448755447298494 3.06805041330297e-05 0.000156313311163216 0.000294476958073896 0.000234354376255543
"49" -1.72765571894906e-05 8.55481117492892e-05 -7.28736940573419e-05 -6.91437980082663e-05 -5.69725167113837e-05 -7.44093185278463e-05 -0.000119788351200539 -8.85998710638319e-05 0.00028418973362404 -7.23140340803531e-06 0.000137720128254297 0.000442504291286167 2.84771745279026e-05 0.000163352969507344 0.000299933160732029 0.000233978810008361
"50" -1.18205627963825e-05 8.51130245493293e-05 -6.9136344136797e-05 -6.68874623519034e-05 -5.43520873342428e-05 -7.37892022766957e-05 -0.000116806826212085 -8.99352633332953e-05 0.000284024016584394 -1.16635687730749e-05 0.000134537810626065 0.000435353860939451 2.58362190783676e-05 0.000170451396210738 0.000304869251551308 0.000233450452807783
"51" -6.30989114991087e-06 8.45399146715487e-05 -6.54873658848218e-05 -6.51340345738361e-05 -5.21225994773817e-05 -7.34962088235315e-05 -0.000113931281760381 -9.10719466613527e-05 0.000284232329538735 -1.61396741118802e-05 0.000131414783147876 0.000427402694094023 2.284869948565e-05 0.000177621940479406 0.000309312873345158 0.000232809585342964
"52" -7.33688239991564e-07 8.38543633238656e-05 -6.19126312136348e-05 -6.38379907648521e-05 -5.02724112749359e-05 -7.34952550103821e-05 -0.000111145285531037 -9.1989587426654e-05 0.000284854981359119 -2.05843481090373e-05 0.000128400650174264 0.00041874169825145 1.95943668397649e-05 0.000184874202286552 0.000313288526053386 0.000232094796207489
"53" 4.91682320250413e-06 8.30657043795956e-05 -5.84015026419172e-05 -6.29646483566241e-05 -4.87862140253303e-05 -7.37573518125484e-05 -0.000108430682275578 -9.26805897730246e-05 0.000285937220069939 -2.4931397085244e-05 0.000125545643562551 0.000409467577111782 1.61622151788022e-05 0.000192220264881367 0.000316828044362411 0.000231343211535047
"54" 1.0655984546909e-05 8.21966018133331e-05 -5.49366539109579e-05 -6.24583097098844e-05 -4.76434940798598e-05 -7.42392309715136e-05 -0.000105772908245868 -9.31260097207358e-05 0.000287514632362147 -2.91015456785617e-05 0.000122895927670127 0.00039968657913659 1.26425164145143e-05 0.000199675157096027 0.000319966165517206 0.000230592815376299
"55" 1.64818863627015e-05 8.12613351168874e-05 -5.15053518458605e-05 -6.22760016779873e-05 -4.68275830642862e-05 -7.49108207565261e-05 -0.000103157143270837 -9.3326926784672e-05 0.000289626738472778 -3.30297520676608e-05 0.000120499039518762 0.000389500941813336 9.1253530182493e-06 0.000207252675607616 0.000322734386402703 0.000229883859418705
"56" 2.24085954651202e-05 8.02728299511625e-05 -4.80965425437899e-05 -6.23610395684656e-05 -4.63118870798491e-05 -7.5733445826504e-05 -0.000100564539516319 -9.32766198163437e-05 0.000292310041596871 -3.66415072583853e-05 0.000118405337378638 0.000379019047741801 5.70439626829821e-06 0.000214970360376377 0.000325172718558974 0.000229251461395294
"57" 2.84392584436047e-05 7.92492026765788e-05 -4.46965507437348e-05 -6.26662561163879e-05 -4.60778190044047e-05 -7.66779667965174e-05 -9.79915606285552e-05 -9.29822390120848e-05 0.000295586569779776 -3.98716355972305e-05 0.000116653424649024 0.00036833451235063 2.46171641320931e-06 0.000222833330159209 0.000327316069197802 0.000228727652888435
"58" 3.45638269072492e-05 7.81941170849539e-05 -4.12975052885131e-05 -6.31485924836608e-05 -4.61013063291591e-05 -7.77111215304339e-05 -9.54301957517728e-05 -9.24508235472548e-05 0.000299486978161745 -4.26567032037588e-05 0.000115282344494805 0.000357556753214342 -5.15946166995559e-07 0.000230855414432703 0.000329200832003864 0.000228348958798999
"59" 4.07800366597512e-05 7.71192199294768e-05 -3.78836852804606e-05 -6.3751512631535e-05 -4.63598965310486e-05 -7.8806806362282e-05 -9.28807647412925e-05 -9.16955707002017e-05 0.000304032785297514 -4.49336619844375e-05 0.000114330861137348 0.000346779794065154 -3.14808468181368e-06 0.000239047299578076 0.000330870320875782 0.000228145572125846
"60" 4.7084181640963e-05 7.60307835025549e-05 -3.44581757445964e-05 -6.4435824277995e-05 -4.6828287299671e-05 -7.9938908990885e-05 -9.03447595943255e-05 -9.07321641079997e-05 0.000309231077509236 -4.66491773697981e-05 0.000113831315125936 0.000336098447936571 -5.36071342507985e-06 0.000247405644418344 0.000332358375049887 0.000228143263955333
"61" 5.34679620479203e-05 7.49325249516414e-05 -3.10023273389885e-05 -6.51531202316719e-05 -4.74837642940254e-05 -8.1080844255629e-05 -8.78210669050674e-05 -8.95782391417899e-05 0.000315096078974046 -4.77504971245374e-05 0.000113811114778391 0.000325605041147819 -7.08197617957997e-06 0.000255941938349815 0.000333702105128483 0.000228370980400071
"62" 5.99085140330572e-05 7.3828902768126e-05 -2.75182017494184e-05 -6.58625971310804e-05 -4.83039335025954e-05 -8.22118350729001e-05 -8.53174655961078e-05 -8.82581345392255e-05 0.000321632598911445 -4.81935992401816e-05 0.000114296458547584 0.000315383861574525 -8.24639652403428e-06 0.000264651365054102 0.00033494042008376 0.000228849241098646
"63" 6.64079762102989e-05 7.27232994464962e-05 -2.39989379161269e-05 -6.65245455846157e-05 -4.92645082658766e-05 -8.3315210228942e-05 -8.28443651185488e-05 -8.67987693890852e-05 0.000328829174575532 -4.79353628364874e-05 0.000115304660432747 0.000305508874585966 -8.79635448525519e-06 0.000273523665952551 0.000336102248411249 0.000229593861839881
"64" 7.29306182526167e-05 7.16086334913408e-05 -2.04485128590252e-05 -6.71063046388443e-05 -5.03470907728362e-05 -8.43762825216017e-05 -8.04181903655156e-05 -8.52309854876866e-05 0.000336678773024386 -4.69478710215035e-05 0.000116848732128071 0.000296055417677823 -8.68738752514537e-06 0.000282555662541491 0.000337222024262336 0.000230623981195321
"65" 7.94678627957241e-05 7.04860870707025e-05 -1.68655901811703e-05 -6.75775477908934e-05 -5.15304339656465e-05 -8.53821616973451e-05 -7.80505390360035e-05 -8.35819733711846e-05 0.000345166119173879 -4.52017791666465e-05 0.000118939190337954 0.00028708351971159 -7.87623613116881e-06 0.000291725599611274 0.000338330087773441 0.000231948554304318
"66" 8.59917000228677e-05 6.9344523603461e-05 -1.32555360370908e-05 -6.79138678861643e-05 -5.28006423057218e-05 -8.63299787604295e-05 -7.57645592368e-05 -8.18870265157885e-05 0.000354265121351769 -4.26821261681371e-05 0.000121571719507076 0.000278648596804918 -6.33232326448627e-06 0.00030102182611312 0.000339451869610007 0.00023357502343768
"67" 9.2475184090266e-05 6.81823853349253e-05 -9.62015797369852e-06 -6.80959713094095e-05 -5.41335257364004e-05 -8.72131238823833e-05 -7.35837527527823e-05 -8.01847076259012e-05 0.000363941257984606 -3.93724377076582e-05 0.000124748772727642 0.000270799770152838 -4.0316146034468e-06 0.000310411788641868 0.000340611433019552 0.000235508621551748
"68" 9.88895300749233e-05 6.69882114566787e-05 -5.97506647777387e-06 -6.81105369848336e-05 -5.5523647947684e-05 -8.80332298792812e-05 -7.15275963738943e-05 -7.85087441906125e-05 0.000374155398969482 -3.52788038174492e-05 0.00012845230970038 0.00026356313721961 -9.65292799236681e-07 0.000319863654993384 0.000341824141503362 0.000237745004990417
"69" 0.000105213480529509 6.57560466735222e-05 -2.31885118842381e-06 -6.79401763645872e-05 -5.69490072740281e-05 -8.87877281452804e-05 -6.96222941560256e-05 -7.68895127653189e-05 0.000384866153661844 -3.03991052635342e-05 0.00013267417496366 0.000256982746363068 2.87476370901618e-06 0.000329352153879944 0.000343114959650238 0.000240285772116986
"70" 0.000111407579232554 6.44700607578383e-05 1.32718599434517e-06 -6.75934608903462e-05 -5.8404597027038e-05 -8.94908198199914e-05 -6.78992407498693e-05 -7.53710177195148e-05 0.000396018900421117 -2.47503231146345e-05 0.000137387294985913 0.000251066539015173 7.47622304567327e-06 0.000338830674532451 0.0003444899141289 0.00024312088497747
"71" 0.000117449812896349 6.31194234436986e-05 4.95146823786332e-06 -6.70645904719488e-05 -5.98781408431561e-05 -9.01495101421753e-05 -6.63840259354398e-05 -7.39809891058186e-05 0.000407555133243869 -1.83533024085353e-05 0.000142562365017569 0.00024582541222094 1.28241359312777e-05 0.000348248941102303 0.000345959573348869 0.00024623753257407
"72" 0.000123309381969398 6.1698686257757e-05 8.54546502309536e-06 -6.63592595246264e-05 -6.13622071180803e-05 -9.07700188741518e-05 -6.51004370261347e-05 -7.27528384121333e-05 0.000419408866620405 -1.12359446978618e-05 0.000148165784482524 0.000241261486268709 1.88987810506613e-05 0.000357563773554469 0.000347529504719828 0.00024962350173668
"73" 0.000128954791253975 6.01903901104287e-05 1.20855817046032e-05 -6.54954780988238e-05 -6.28525667145482e-05 -9.13697639413073e-05 -6.40834901396121e-05 -7.17204535758716e-05 0.000431514150547014 -3.43452246972694e-06 0.000154157150783727 0.000237366213006308 2.56596858392364e-05 0.000366720726445199 0.00034919945918148 0.000253263174279443
"74" 0.000134359141711532 5.85846914498135e-05 1.55607018776215e-05 -6.44868590693305e-05 -6.43410815488438e-05 -9.19695948659568e-05 -6.3355504260199e-05 -7.09115916311363e-05 0.000443789246120295 5.0047919470238e-06 0.000160496273106613 0.000234117338404734 3.30624479998159e-05 0.000375655790433369 0.000350965930642605 0.000257133835726336
"75" 0.000139487368828248 5.68677260714361e-05 1.89493499013702e-05 -6.33626846088996e-05 -6.58318415749341e-05 -9.25820460196328e-05 -6.29434963811026e-05 -7.03504200089779e-05 0.000456156578620902 1.40275574050136e-05 0.00016712474081451 0.000231491715640704 4.10548706649097e-05 0.000384308168141817 0.000352823091353955 0.000261214031199752
"76" 0.000144320062040691 5.50334192900621e-05 2.22315653437583e-05 -6.21463600994111e-05 -6.73171847591817e-05 -9.32308131569187e-05 -6.28755134886802e-05 -7.00598028280346e-05 0.000468534971671296 2.35817231658849e-05 0.000173994358713919 0.000229455240713601 4.95814946690235e-05 0.000392610305605906 0.000354759569720988 0.0002654789418363
"77" 0.00014882988115946 5.30694679244003e-05 2.5392809006714e-05 -6.08708994284425e-05 -6.87985961437884e-05 -9.3934434529682e-05 -6.31693118435664e-05 -7.00553523094398e-05 0.000480830567654774 3.35995776118275e-05 0.000181042484167879 0.000227962849949435 5.85705737781145e-05 0.000400498275090575 0.000356759372416593 0.000269902503787999
"78" 0.000152998694721157 5.09685229330445e-05 2.84114648892029e-05 -5.95713283730501e-05 -7.02777753729381e-05 -9.47114131910787e-05 -6.38471969711455e-05 -7.03533825647837e-05 0.000492964132011079 4.40142261493001e-05 0.000188213524158483 0.000226980549394262 6.79619057033794e-05 0.000407902068512256 0.000358809695926213 0.000274462370018861
"79" 0.000156805956950089 4.87247948693618e-05 3.1270326236499e-05 -5.82901150553812e-05 -7.17580456361274e-05 -9.55877354394177e-05 -6.4925526639214e-05 -7.09629310542974e-05 0.000504835110895774 5.47473740933433e-05 0.0001954385152977 0.000226437403664156 7.76597935088781e-05 0.000414745450640177 0.00036088371990423 0.000279122717257335
"80" 0.000160241359295298 4.63363454068478e-05 3.39582045664852e-05 -5.7062537995982e-05 -7.32366743624849e-05 -9.65781275366623e-05 -6.64111522112995e-05 -7.18855566758771e-05 0.000516354699443805 6.57235398580476e-05 0.000202650204545051 0.000226288896433694 8.7595222074113e-05 0.000420965713495567 0.000362963875110046 0.000283860412064253
"81" 0.000163290485253079 4.37977904679018e-05 3.64489527797816e-05 -5.59381577349465e-05 -7.47170490871806e-05 -9.77061830729319e-05 -6.83189787839876e-05 -7.31223995087459e-05 0.000527433569187418 7.68612434380016e-05 0.000209782962016523 0.000226469038070314 9.76816675368208e-05 0.000426485487959358 0.000365023511305367 0.00028864454867412
"82" 0.000165936566034712 4.11046569379543e-05 3.87305958955294e-05 -5.49667718344258e-05 -7.62086150353822e-05 -9.899440568225e-05 -7.06530598553586e-05 -7.46727830077204e-05 0.000537979385465726 8.80712933305888e-05 0.000216768097290495 0.000226908845113032 0.000107828241708712 0.000431236309650196 0.000367031835344696 0.000293447840796048
"83" 0.000168195146404851 3.82687158645254e-05 4.07964104938706e-05 -5.41840639158301e-05 -7.77079674830665e-05 -0.00010045236057034 -7.34075871929702e-05 -7.65154016613501e-05 0.00054789958710297 9.92720379180598e-05 0.000223537224436248 0.000227547298146273 0.00011794817626644 0.000435154706992895 0.000368960463141667 0.00029824372685578
"84" 0.000170059419174213 3.52883872240862e-05 4.2628497740233e-05 -5.36414687835562e-05 -7.92162918427437e-05 -0.000102095765798567 -7.65833215565915e-05 -7.86437060483022e-05 0.000557111582353806 0.000110376478621845 0.000230022333963806 0.000228315536226043 0.000127951415630476 0.000438170711687335 0.000370779872296208 0.000303005952020132
"85" 0.000171537628952159 3.2175837796133e-05 4.42207879478647e-05 -5.3383332852444e-05 -8.07378321302273e-05 -0.000103940355450849 -8.01629069845267e-05 -8.10321911325074e-05 0.00056553321958687 0.000121298081084695 0.00023615648084264 0.00022914730334254 0.000137756095615917 0.000440231035172575 0.000372459119455542 0.000307707699255083
"86" 0.000172638749450877 2.89358829624405e-05 4.5563933310252e-05 -5.34536300544458e-05 -8.22725528467387e-05 -0.000105993444055238 -8.41322443569453e-05 -8.36566849290301e-05 0.000573089052640455 0.000131950627656737 0.000241876961358135 0.000229975140334123 0.000147274050763884 0.000441276417082628 0.000373968197793872 0.000312330990135547
"87" 0.000173382252814599 2.55856421847844e-05 4.66559891946233e-05 -5.38948868585055e-05 -8.38231179703692e-05 -0.00010825959817695 -8.84738618447904e-05 -8.64887339226499e-05 0.000579699758866521 0.000142247853367501 0.000247124039390656 0.000230735205060512 0.000156423674665072 0.00044125949910646 0.000375272282027732 0.000316851385174028
"88" 0.000173790750312796 2.21438862194669e-05 4.74977759007345e-05 -5.47419604891738e-05 -8.5381563395898e-05 -0.000110742080175961 -9.31549047601986e-05 -8.9490974505005e-05 0.000585308209191287 0.000152117041999438 0.00025184259222971 0.000231372061715694 0.000165132926742925 0.000440138399940903 0.000376346176100924 0.000321254284472124
"89" 0.000173889341332318 1.86221023164721e-05 4.80872959861365e-05 -5.60313395142925e-05 -8.6949020366937e-05 -0.000113441480030426 -9.81465367711355e-05 -9.26290551982964e-05 0.00058985141960844 0.000161476101509103 0.000255976014307802 0.000231825457901637 0.000173327939826178 0.000437872245193051 0.000377156003457486 0.000325523855961915
"90" 0.000173704418585767 1.50437698989116e-05 4.84306083975317e-05 -5.77961208669449e-05 -8.85233296417732e-05 -0.000116351028348797 -0.000103409848063999 -9.58586899099878e-05 0.000593280289298005 0.000170254254215866 0.000259482958022285 0.000232045012158621 0.000180946225133855 0.000434439353476558 0.000377676920275496 0.000329648631342537
"91" 0.000173279958888543 1.14317431343303e-05 4.85377065446288e-05 -6.0057593770911e-05 -9.00953787828912e-05 -0.000119461129431156 -0.000108905282458151 -9.9140275056337e-05 0.000595553063206659 0.000178387870356943 0.000262319535145044 0.000231992108009519 0.000187930199739474 0.000429816446531521 0.000377885564498347 0.000333621026075308
"92" 0.000172645055293216 7.80902515452771e-06 4.84139312948973e-05 -6.28387351314258e-05 -9.16605198859772e-05 -0.000122760215368943 -0.000114589233695064 -0.000102424453955452 0.000596634502821791 0.000185813885017744 0.000264451527722951 0.000231621231188853 0.000194228584708675 0.000423994580242692 0.000377757060662447 0.000337434706242015
"93" 0.000171848961608134 4.20421643881854e-06 4.80794765879966e-05 -6.61548019805531e-05 -9.32109016196378e-05 -0.000126230344204807 -0.000120409465733141 -0.000105661169259495 0.000596501679050774 0.00019248287781213 0.000265849816531089 0.00023090587503219 0.000199808725995438 0.000416974329569853 0.00037726852854186 0.000341089423103696
"94" 0.000170935496000811 6.44406735272809e-07 4.75471459348805e-05 -7.00091895477312e-05 -9.47338690897277e-05 -0.000129849651071152 -0.000126310243953132 -0.000108806819113915 0.000595141886927651 0.000198351247152036 0.000266495301546876 0.00022982514024282 0.000204636540322622 0.00040876129329994 0.000376409343430101 0.000344587129270962
"95" 0.000169950230980066 -2.84460282073244e-06 4.68357988097772e-05 -7.44096075232661e-05 -9.62210528060395e-05 -0.000133595706516288 -0.000132238670624121 -0.000111809882914158 0.000592550644495866 0.000203377253943554 0.000266378046996442 0.000228364150860809 0.000208691527790184 0.000399377715397946 0.000375164752439706 0.000347932421070144
"96" 0.000168948613205963 -6.22784175528002e-06 4.59670222750775e-05 -7.93446705807487e-05 -9.76565193058349e-05 -0.000137436478178002 -0.000138134087381658 -0.000114619953796206 0.000588734088946258 0.000207538226190909 0.000265485470646632 0.000226517827107946 0.000211965634431665 0.000388850532339913 0.000373522716175648 0.000351134854395775
"97" 0.000167974083315016 -9.48347836268563e-06 4.49661438697431e-05 -8.48049752249835e-05 -9.90254784280821e-05 -0.000141341523057672 -0.000143935521825044 -0.000117191108532362 0.000583713834192145 0.000210814607816075 0.000263827682773619 0.000224293506137286 0.000214462758365304 0.000377221879429234 0.000371481509500436 0.000354206801285816
"98" 0.000167085577786858 -1.25756121833046e-05 4.38609134779069e-05 -9.07693436585667e-05 -0.000100317111713496 -0.000145278064045105 -0.000149585158093021 -0.000119475192621048 0.00057751112702264 0.000213193669498756 0.000261412359560161 0.000221698881440514 0.000216186721835121 0.000364538786275082 0.000369039408976082 0.000357161136282911
"99" 0.000166329327843385 -1.54770996961947e-05 4.26757865334392e-05 -9.72135561587227e-05 -0.000101512336194114 -0.000149202177163077 -0.000155019864781294 -0.000121429936310036 0.000570164323818741 0.000214675356354492 0.000258253149995655 0.000218757865503793 0.000217164172795025 0.000350862610364898 0.000366198846543298 0.000360017250174351
"100" 0.000165757532230001 -1.81637100766474e-05 4.14385646218503e-05 -0.000104102705185028 -0.000102593412478441 -0.000153077561718351 -0.000160178177755233 -0.00012301462933241 0.000561723872375586 0.000215272788419847 0.000254385492681878 0.000215502749380419 0.000217430641437741 0.000336262152535885 0.000362969856127213 0.000362796509903739
"101" 0.000165426524758285 -2.06064157678683e-05 4.01852148744451e-05 -0.00011139539621953 -0.000103546128216794 -0.000156860955284554 -0.000164996664613707 -0.000124190191671466 0.000552243655508693 0.000215003258845438 0.000249837537612917 0.000211971972390487 0.000217021635238126 0.000320812387870798 0.000359363563483138 0.000365521016414809
"102" 0.000165376898766382 -2.27804525311473e-05 3.89400418870755e-05 -0.000119047371668207 -0.000104350569970968 -0.000160507319242168 -0.000169421287440395 -0.000124923157254395 0.000541786643093258 0.000213889793819411 0.000244650346197883 0.000208208936244998 0.000215990234672668 0.000304601016610573 0.000355397066209322 0.000368214951404687
"103" 0.000165654644921885 -2.46651491858256e-05 3.77391379535201e-05 -0.000127001665697232 -0.000104987026508999 -0.000163970288145829 -0.0001733931013682 -0.00012518573748049 0.000530429283463896 0.000211972657086846 0.000238875817936253 0.000204269760476108 0.000214397542563792 0.000287724015330733 0.000351090188157424 0.000370903608149894
"104" 0.000166300909575061 -2.62442188603562e-05 3.66098301666876e-05 -0.000135202808906334 -0.000105444605089975 -0.000167205589685398 -0.000176863017198903 -0.000124955327153319 0.000518251412456465 0.000209293799348876 0.000232563106847696 0.000200210377515272 0.00021230784183326 0.000270278963116311 0.000346467384856278 0.000373614940675613
"105" 0.00016735545382465 -2.74951259440433e-05 3.55834646252013e-05 -0.000143585963451203 -0.000105702011278371 -0.000170163283491619 -0.000179780737791869 -0.000124212284339484 0.000505343296429964 0.000205904535342399 0.000225777397267089 0.000196102397337995 0.000209802150736293 0.000252378058996561 0.000341563231781347 0.000376377315522359
"106" 0.000168846765877205 -2.84103005075727e-05 3.46914397544754e-05 -0.000152080327896719 -0.000105743749473373 -0.000172799728432322 -0.000182097760675377 -0.000122942091895054 0.000491797415884323 0.000201867770634732 0.000218578748260948 0.000192015250230609 0.000206957139224969 0.000234130525035503 0.000336405839214497 0.000379218669900753
"107" 0.000170805083790883 -2.89777716106538e-05 3.39594160238434e-05 -0.000160616473806381 -0.000105555480977585 -0.000175071049141742 -0.000183779563885764 -0.000121141638822432 0.000477710066708219 0.000197247064470577 0.000211042110484009 0.000188021139195392 0.000203859646998123 0.000215657803978843 0.00033103119058422 0.000382167015384707
"108" 0.000173248630619159 -2.91934470913708e-05 3.3410981082905e-05 -0.000169113956856049 -0.000105126876835394 -0.000176929397276008 -0.000184794036205495 -0.000118810351907372 0.000463190504185326 0.000192112455803996 0.00020324046310279 0.000184198393074685 0.000200598864540362 0.000197078529679267 0.000325480996401723 0.000385248835746241
"109" 0.000176196011499664 -2.90583012208594e-05 3.30756397481711e-05 -0.000177492236181516 -0.000104439104327011 -0.00017833436798954 -0.000185112225733637 -0.000115950929513568 0.000448340464825545 0.000186542496200655 0.000195251296953748 0.000180624720747827 0.000197270296083409 0.000178513540717862 0.0003197948439556 0.00038849126040355
"110" 0.000179646105298105 -2.85760115155765e-05 3.29668260359744e-05 -0.000185677893037132 -0.000103490159416088 -0.00017924981556092 -0.00018471433515944 -0.000112585749696058 0.000433269914012692 0.000180615209138892 0.000187154060100107 0.000177377055443641 0.000193963927167044 0.000160088382601907 0.000314014811796868 0.000391918697618076
"111" 0.000183606787479181 -2.77524900984046e-05 3.31102260421439e-05 -0.000193579995978003 -0.000102269849037386 -0.000179632578324491 -0.00018358417022095 -0.000108723817542769 0.000418092850798199 0.000174414484389855 0.00017902898324549 0.000174541479973224 0.000190781708413145 0.00014193178553557 0.000308192226303267 0.000395554073208694
"112" 0.000188066817887429 -2.66048432329e-05 3.35154418021452e-05 -0.000201121806403848 -0.000100773490760543 -0.000179456287778785 -0.000181723395500385 -0.000104401099663941 0.000402910726368553 0.000168021729341681 0.000170956975070296 0.000172183598554428 0.000187809671779476 0.000124155202598322 0.00030236513022172 0.000399415250238579
"113" 0.000193011170837659 -2.51496408254442e-05 3.41996265140028e-05 -0.000208214585603526 -9.8996385619341e-05 -0.000178681769497459 -0.000179126077422469 -9.96420649828482e-05 0.000387844779557128 0.000161531604543484 0.000163023743118576 0.000170391168201472 0.000185150886949787 0.000106895713364657 0.000296589605705378 0.000403521624419914
"114" 0.000198418252954232 -2.34065467394421e-05 3.51646934824217e-05 -0.000214780209602937 -9.69427823533048e-05 -0.000177292289068486 -0.000175809278720507 -9.44895391035681e-05 0.000372995897418855 0.000155025713183445 0.000155307282354336 0.000169223546549172 0.000182882843894068 9.02601326251646e-05 0.000290909446671628 0.000407887026388086
"115" 0.000204255126252491 -2.14072563548074e-05 3.64125253393292e-05 -0.000220739624239221 -9.46126794507738e-05 -0.00017526418234734 -0.000171787844375813 -8.89872303105901e-05 0.000358469460159574 0.000148586598175351 0.000147886091499045 0.0001687477538733 0.000181095983162765 7.43616444998941e-05 0.00028536743744193 0.000412522162498601
"116" 0.000210481135446627 -1.91805541434532e-05 3.79495690865311e-05 -0.000226011050417892 -9.20161016503238e-05 -0.000172576998443822 -0.000167083803872122 -8.31813804637076e-05 0.000344370453572785 0.000142301892885835 0.000140840311245212 0.00016902494179139 0.000179869571748684 5.93137199773559e-05 0.000280016748915625 0.000417432331405534
"117" 0.000217054339617401 -1.67615877030002e-05 3.97649320955194e-05 -0.000230527272932276 -8.91584731353422e-05 -0.000169227285467532 -0.000161738443862406 -7.71301636673786e-05 0.000330793533978346 0.000136254132024977 0.00013424037250626 0.000170106083608974 0.000179274626013164 4.52145760122353e-05 0.000274898957969854 0.00042262062569116
"118" 0.000223918738155225 -1.41910553383682e-05 4.18534308899865e-05 -0.000234210723401714 -8.60547264254668e-05 -0.000165199812568754 -0.000155784694052456 -7.08852065259518e-05 0.00031783249506022 0.0001305220951256 0.000128158029260626 0.000172038034341869 0.000179381204476535 3.21583880403886e-05 0.00027005712907067 0.000428085277395251
"119" 0.000231022382851375 -1.15118851204735e-05 4.41989108771913e-05 -0.00023699984003035 -8.27153140255697e-05 -0.00016049893608484 -0.000149273721694111 -6.45130693119621e-05 0.000305574990276059 0.000125176085051702 0.00012265872163669 0.000174857636706096 0.000180241625003257 2.02338682019395e-05 0.000265531180525713 0.000433822224940191
"120" 0.000238282415533067 -8.77431745067986e-06 4.67804335747024e-05 -0.00023884118084956 -7.91681107520048e-05 -0.000155132003829949 -0.000142264856345965 -5.80780122386442e-05 0.000294097679015846 0.000120284815511453 0.000117798569972531 0.000178582285678503 0.000181902050968487 9.5162043274962e-06 0.000261360434243923 0.000439814712578882
"121" 0.000245636639219923 -6.02187699620306e-06 4.95805129706937e-05 -0.000239672363856731 -7.54264121316108e-05 -0.000149102794942131 -0.000134815111006959 -5.16424587750409e-05 0.00028347278194545 0.000115915322304774 0.000113633434793996 0.000183240635574643 0.000184403641533885 7.26552014804468e-08 0.000257579480663887 0.000446052324784736
"122" 0.000253000952001015 -3.30888019141759e-06 5.25714140841559e-05 -0.0002394521899759 -7.15167367019774e-05 -0.000142433655774458 -0.000126992227942053 -4.52759361130538e-05 0.000273768052247954 0.000112122271733219 0.000110210757865113 0.000188833045578343 0.00018777744360332 -8.03683178111807e-06 0.000254217396722214 0.000452515181934081
"123" 0.000260303643367211 -6.87501669302044e-07 5.57235552468386e-05 -0.00023814000982996 -6.74625897920292e-05 -0.000135143269669001 -0.000118872396332499 -3.90429883012832e-05 0.000265038149880234 0.000108956383600007 0.00010757270687922 0.000195360908188031 0.000192037754601961 -1.47626990870573e-05 0.00025130459795424 0.000459175981825358
"124" 0.000267446618558127 1.78617285836546e-06 5.89999760075854e-05 -0.000235705421345384 -6.32979728439691e-05 -0.000127259607836594 -0.000110528818632276 -3.30153653402646e-05 0.000257332097853719 0.000106461612803286 0.000105747774792254 0.000202807608831502 0.000197191241048443 -2.00714221326369e-05 0.000248860215881868 0.000466007514221374
"125" 0.000274347966440363 4.05770718633992e-06 6.23666830450075e-05 -0.000232126390205227 -5.90506203517833e-05 -0.000118814724914999 -0.000102042743365528 -2.72530356462066e-05 0.000250686340899677 0.000104673263366199 0.000104763996994047 0.000211148720157907 0.000203229778082284 -2.39386948954148e-05 0.000246902599975309 0.000472974045772542
"126" 0.000280915246146678 6.07650987178747e-06 6.57836998517409e-05 -0.000227382966021047 -5.47519776759007e-05 -0.000109844170780563 -9.35011521552731e-05 -2.18245297874135e-05 0.000245132768528201 0.000103619683769941 0.000104643228158227 0.000220351972272883 0.00021013983019828 -2.63453897057419e-05 0.000245447811147411 0.000480040562584412
"127" 0.000287051447459162 7.77919471876072e-06 6.92024016673367e-05 -0.000221478565169735 -5.04429367191641e-05 -0.000100398055968657 -8.49917716002529e-05 -1.67904278239449e-05 0.000240692199753814 0.000103320399093754 0.000105387754089051 0.000230369539930976 0.000217894866565177 -2.72915380257704e-05 0.000244500955551795 0.000487164290396496
"128" 0.000292676254532494 9.12262621533747e-06 7.25863671472724e-05 -0.000214411845793036 -4.61501660693898e-05 -9.05167797654567e-05 -7.65964837247083e-05 -1.22038678021749e-05 0.000237377368313865 0.000103790372945603 0.000107005843685445 0.000241150351506725 0.000226458377682958 -2.67823944292402e-05 0.000244066763085033 0.000494302621751161
"129" 0.000297694156813477 1.00532151382845e-05 7.58829125517735e-05 -0.000206191067217919 -4.19122546947897e-05 -8.02493976557965e-05 -6.84043128936321e-05 -8.11920796962122e-06 0.000235188815729427 0.00010503291543422 0.000109486907942003 0.000252629668292285 0.000235777501240761 -2.48404394869575e-05 0.000244143752143894 0.000501406793807332
"130" 0.000302012237787977 1.0519291164146e-05 7.90461396879408e-05 -0.000196849938790678 -3.7770267731248e-05 -6.96591815483051e-05 -6.05072998210428e-05 -4.58377149064609e-06 0.000234123351917252 0.000107045420386853 0.000112821240838283 0.000264732366486377 0.000245794489873431 -2.14900947801085e-05 0.000244723702703439 0.000508425801612184
"131" 0.000305552956146713 1.04808958933677e-05 8.20245726674852e-05 -0.000186411163243144 -3.37558119427729e-05 -5.87987618000796e-05 -5.2986633761376e-05 -1.63883123393554e-06 0.000234163725501474 0.000109817263967729 0.000116982790303643 0.00027737975145552 0.000256444127525767 -1.67760872387231e-05 0.000245794010823236 0.000515310582111419
"132" 0.00030823326205765 9.89447276665016e-06 8.4771632123884e-05 -0.000174919183507083 -2.99082251186506e-05 -4.77293892530032e-05 -4.59246280059099e-05 6.83315843109842e-07 0.00023529005772978 0.000113332669114814 0.000121944687767946 0.000290486297458657 0.000267648962967418 -1.07439378784356e-05 0.000247344002112278 0.000522005658443087
"133" 0.000309982229009213 8.72581970571996e-06 8.72368465627472e-05 -0.000162422570521339 -2.62643074244391e-05 -3.65206504852123e-05 -3.94022046231309e-05 2.35360717044847e-06 0.000237467058060916 0.000117565127391324 0.000127665163121625 0.0003039528902328 0.000279317067370907 -3.45640376416418e-06 0.000249340676610589 0.000528455951101694
"134" 0.000310730962189033 6.94669788870354e-06 8.93748469735255e-05 -0.000148978876545966 -2.28520050751021e-05 -2.52289454737101e-05 -3.34927243603792e-05 3.35470783676547e-06 0.00024066028120868 0.0001224850332731 0.000134106578057581 0.000317687672940831 0.000291369657555967 5.01975496557552e-06 0.000251767608871974 0.000534608654420684
"135" 0.000310417718246311 4.5268516515752e-06 9.11418459287508e-05 -0.000134654521979504 -1.97069028438792e-05 -1.39236711589721e-05 -2.82646470763328e-05 3.67484447474158e-06 0.000244822976810005 0.000128059236857816 0.000141214934215011 0.000331583930829377 0.000303702635883459 1.46079505361644e-05 0.000254589244992626 0.000540407859504958
"136" 0.000308994106874786 1.45288316668728e-06 9.24887249188516e-05 -0.000119521044085625 -1.68596633638956e-05 -2.67243132671321e-06 -2.37805295469684e-05 3.30964260021949e-06 0.000249901501430988 0.00013424250614755 0.000148936895991113 0.000345539327901208 0.000316213967620287 2.52249716973479e-05 0.000257770873653579 0.000545798961673194
"137" 0.000306416428336259 -2.29064652754645e-06 9.33801385036373e-05 -0.000103662760886198 -1.43394793378446e-05 8.4592801074506e-06 -2.00928512417443e-05 2.26319997729343e-06 0.00025583771952325 0.000140992144497075 0.000157207025230038 0.000359443574290133 0.000328796646900782 3.67776069998405e-05 0.000261275125173597 0.000550730185593884
"138" 0.000302655564821775 -6.70854915460704e-06 9.37727784715494e-05 -8.71666345243652e-05 -1.21676950588052e-05 1.94041312939317e-05 -1.72518010683023e-05 5.52466509444643e-07 0.000262568567716025 0.000148257810875209 0.000165959987330061 0.000373194844941827 0.000341348921724144 4.91719488818137e-05 0.000265059608202712 0.000555149120853635
"139" 0.000297690043504509 -1.17946314075847e-05 9.36406666439413e-05 -7.01222270619367e-05 -1.03650666741736e-05 3.01045101754926e-05 -1.52911019500411e-05 -1.80111541748291e-06 0.00027002619577309 0.000155988531946262 0.000175126991243388 0.000386686213647342 0.000353754624606322 6.23046526170304e-05 0.000269079958483286 0.000559011757850855
"140" 0.00029151251906299 -1.75427546744764e-05 9.29497171943127e-05 -5.2625485256853e-05 -8.95105707304038e-06 4.04948804790477e-05 -1.42435029244855e-05 -4.76566702360316e-06 0.000278133795632449 0.000164127423813421 0.000184632474733061 0.000399814057658219 0.000365911126599053 7.60651913827646e-05 0.000273288130123828 0.000562268805697819
"141" 0.000284129177558075 -2.39303045166373e-05 9.16775963429842e-05 -3.47782132796596e-05 -7.93851748688311e-06 5.05224324477226e-05 -1.4118024338375e-05 -8.30021559580003e-06 0.000286819108069008 0.000172623205020235 0.000194400185808656 0.000412482376620081 0.000377709357544337 9.03494929189455e-05 0.000277634991483388 0.000564882845975774
"142" 0.000275551384601814 -3.09361298720567e-05 8.98092991517159e-05 -1.66839961383743e-05 -7.33500483937226e-06 6.01284110663962e-05 -1.49352801013566e-05 -1.23606168989206e-05 0.000295996291359212 0.000181411418156925 0.000204352614657576 0.000424594986337364 0.000389040703740048 0.000105038366249509 0.000282069269259664 0.000566813306174945
"143" 0.000265812831005562 -3.85247745671483e-05 8.73281756478113e-05 1.55475531164135e-06 -7.14654277000784e-06 6.9264433263432e-05 -1.66823067468217e-05 -1.68892720441269e-05 0.000305589140146756 0.000190442851464671 0.000214408752970826 0.000436067779347166 0.000399808865936656 0.000120021491564452 0.000286537868012375 0.000568029208841879
"144" 0.000254954705361254 -4.66539172167454e-05 8.42311748660596e-05 1.98328954049665e-05 -7.37608353317738e-06 7.78864336580511e-05 -1.93507086801029e-05 -2.18274732166834e-05 0.000315506047407918 0.000199653017186409 0.000224488409850964 0.000446816868648381 0.000409913518503946 0.000135174812102882 0.00029098802000904 0.000568501094859796
"145" 0.000243027376635209 -5.5277094464448e-05 8.05148467857838e-05 3.80480333759188e-05 -8.01068700819001e-06 8.59570346598728e-05 -2.29139181903528e-05 -2.71051031627256e-05 0.000325667244796265 0.000208993627736475 0.000234515909305134 0.000456777880824007 0.000419268096238469 0.000150386679460805 0.000295366068297192 0.000568207854003015
"146" 0.000230098634868096 -6.43421883641491e-05 7.61885273618885e-05 5.60903251657272e-05 -9.04938424587445e-06 9.34349496339909e-05 -2.73418524404391e-05 -3.26482547187753e-05 0.000335980106023129 0.000218406158899249 0.000244408162775276 0.000465879802995693 0.000427785667759326 0.00016553573516076 0.000299618783120123 0.000567131410989402
"147" 0.000216253574693713 -7.37772671773207e-05 7.12706955356217e-05 7.38718025321382e-05 -1.04684148094149e-05 0.000100304770655873 -3.2577803174334e-05 -3.83731114889764e-05 0.00034636286501993 0.000227843614237003 0.000254094824490209 0.000474080767664578 0.000435395830623939 0.000180508239843276 0.00030369334248528 0.000565263879065534
"148" 0.000201573144843261 -8.35228599615345e-05 6.57724564519202e-05 9.12857370362647e-05 -1.22576497294678e-05 0.000106535643058162 -3.85759473433219e-05 -4.42070932099921e-05 0.00035672725879678 0.000237256363655161 0.000263496614480617 0.000481332936880359 0.000442028854474316 0.000195192845000376 0.000307538009714822 0.000562596939748629
"149" 0.000186176239069278 -9.34960988255329e-05 5.97330886850732e-05 0.000108251818966089 -1.43817024946705e-05 0.000112124241596122 -4.52589173659723e-05 -5.00497949770221e-05 0.000366990764028341 0.000246606801895922 0.000272550294088013 0.000487618992546786 0.00044763467589293 0.000209473493277875 0.000311106113628185 0.000559133992023419
"150" 0.000170158047101967 -0.000103622394994387 5.31752550735019e-05 0.000124671850358696 -1.6821998498949e-05 0.00011705244348717 -5.25650616893131e-05 -5.58247135123412e-05 0.000377069133444112 0.000255847254628185 0.00028118668988679 0.000492916010164901 0.000452160315433237 0.000223247233835312 0.000314347299560636 0.000554881262660746
"151" 0.000153650944742 -0.000113813910655695 4.61491511061762e-05 0.000140479356900693 -1.9535000875968e-05 0.000121334567588161 -6.03989068221441e-05 -6.14308941405686e-05 0.000386878543623199 0.000264948051421182 0.000289347170307784 0.000497220673625533 0.000455576258282625 0.000236403992213921 0.000317216104236284 0.000549851253058208
"152" 0.000136774251272938 -0.000123988606776854 3.86940412134934e-05 0.000155592968233085 -2.24956284314839e-05 0.000124963507214166 -6.86763173309334e-05 -6.67883513014375e-05 0.000396345293499831 0.000273874919050649 0.000296972820196382 0.000500544803548744 0.000457856292579107 0.000248852805174075 0.000319673427987158 0.000544064743318037
"153" 0.000119679850153227 -0.000134043640889542 3.08736400192368e-05 0.00016995432629016 -2.56488381138187e-05 0.000127968590453226 -7.72930840569997e-05 -7.17968711665453e-05 0.000405395767685143 0.000282615128880675 0.00030402031612933 0.00050291599917539 0.000458995169992436 0.000260500429420678 0.000321678978589688 0.000537549285643326
"154" 0.000102500769402378 -0.000143896992872652 2.27369810501648e-05 0.000183506563202861 -2.8958096977601e-05 0.00013036344579916 -8.61460964198597e-05 -7.63726904938404e-05 0.000413955199091135 0.000291135032123068 0.000310441918656934 0.000504360627994141 0.000458981728546898 0.000271256774332697 0.000323197195087379 0.000530331794552445
"155" 8.53943231086578e-05 -0.000153444077429444 1.43538971092701e-05 0.000196205979911406 -3.23723830402658e-05 0.00013217977618076 -9.5127062981801e-05 -8.04261888915078e-05 0.000421962985357019 0.000299431927424767 0.000316202277379153 0.000504933289783326 0.000457838431574019 0.000281045431970803 0.000324198925439939 0.000522452119390689
"156" 6.85066767359732e-05 -0.00016259520280144 5.7887417814077e-06 0.000208006623468243 -3.58461831266719e-05 0.000133450256530812 -0.000104120094945432 -8.38792238709856e-05 0.00042935031279531 0.000307491558545766 0.000321271056563593 0.000504686934667201 0.000455583338020733 0.000289792504432697 0.000324655218704395 0.000513950772993199
"157" 5.19967978306193e-05 -0.000171250964523694 -2.87819477588699e-06 0.000218892336764803 -3.93220638939673e-05 0.00013422026911377 -0.000113004499883234 -8.66488720282964e-05 0.000436070585293324 0.00031531510227047 0.000325624199654238 0.000503698786587272 0.000452258393575838 0.000297440155594719 0.000324545753662631 0.000504875303713852
"158" 3.60153090476967e-05 -0.000179321136122799 -1.15845013073521e-05 0.000228833651569458 -4.27505554733459e-05 0.000134531828897637 -0.000121668968718099 -8.86638060496153e-05 0.000442064844238458 0.000322905841522956 0.000329247768970098 0.000502044632890327 0.000447903729875726 0.000303927610152373 0.000323850644290944 0.00049527610692302
"159" 2.07151680878073e-05 -0.000186717389981442 -2.02445335180314e-05 0.000237824159652444 -4.60788126591517e-05 0.000134433664337132 -0.000129991874169874 -8.98607737411156e-05 0.000447295324292241 0.00033026864206662 0.000332128310259629 0.000499814168113144 0.000442576955231734 0.000309212280500277 0.000322556053755924 0.00048520599961883
"160" 6.25435702886921e-06 -0.000193343992722495 -2.87765037619177e-05 0.000245864954533215 -4.92472806777673e-05 0.0001339874384758 -0.000137852180912246 -9.01751949910704e-05 0.000451721289365348 0.000337420859812258 0.000334271132479982 0.000497111011401306 0.000436349760352343 0.000313259792483898 0.000320660484468481 0.000474728028242366
"161" -7.2259617524334e-06 -0.000199122990508605 -3.71064627651148e-05 0.000252963887429623 -5.22077238809287e-05 0.000133244152729943 -0.000145137802557872 -8.95578027957764e-05 0.000455313671803623 0.000344378431709204 0.000335674720957779 0.000494031438164812 0.000429290758395119 0.000316041969024159 0.000318153437094841 0.000463898260534694
"162" -1.95762614111453e-05 -0.000203971206500416 -4.51523647206634e-05 0.000259136461326841 -5.49067090862073e-05 0.000132273412968117 -0.00015173262290527 -8.79622397405433e-05 0.000458044372660179 0.00035116238135623 0.000336349855485366 0.000490692457390663 0.0004214888355984 0.000317540878519358 0.000315043370738171 0.000452783870753825
"163" -3.06666555058623e-05 -0.000207826241537112 -5.28364937750432e-05 0.000264400270336422 -5.72981040697271e-05 0.000131128061358178 -0.000157533959380628 -8.53634701770996e-05 0.000459895723833262 0.000357793472551373 0.000336318124579807 0.000487201091703837 0.000413032595915375 0.000317750003962852 0.000311330493528646 0.000441445999712968
"164" -4.03641931051076e-05 -0.000210606399940844 -6.00771729871962e-05 0.000268799659677833 -5.93227858095378e-05 0.000129880188495816 -0.000162430822659119 -8.17241643631582e-05 0.000460861578104665 0.000364308688639272 0.000335598638584931 0.000483684933301775 0.000404020152816314 0.000316673001774165 0.000307032052719419 0.000429955184774697
"165" -4.85562166772129e-05 -0.000212265277616968 -6.68013886295696e-05 0.000272362331476112 -6.09436979520535e-05 0.000128593193541313 -0.000166330217359969 -7.7040484596465e-05 0.000460931688006761 0.00037073580663442 0.000334222220165437 0.00048025431229449 0.000394557287335631 0.000314324676769308 0.000302164070655695 0.000418376857054018
"166" -5.51314447949468e-05 -0.000212749394660273 -7.29394960982222e-05 0.000275135934708469 -6.21153703623697e-05 0.000127328803883653 -0.000169142174165405 -7.12992192949455e-05 0.000460110805303917 0.00037710090805354 0.000332219450517078 0.000477027073388761 0.000384745756342804 0.000310722114009445 0.000296743547897596 0.000406774738923269
"167" -5.99879986975861e-05 -0.000212013179534212 -7.84145463038924e-05 0.000277171453044551 -6.27983974623409e-05 0.000126155369602966 -0.000170784297225528 -6.45108309701022e-05 0.000458409437663056 0.000383444895616768 0.000329631682489401 0.000474124864556116 0.000374696208755119 0.00030589942684153 0.000290797398075905 0.000395221000652506
"168" -6.30527990379542e-05 -0.000210028291113469 -8.31711530037089e-05 0.000278517496959391 -6.29627792662115e-05 0.000125128306787553 -0.000171189272311745 -5.66902956099804e-05 0.00045584432751413 0.000389796519732385 0.000326497588397481 0.0004716556179017 0.000364520757871552 0.000299898760818965 0.000284355337740511 0.00038377779865
"169" -6.42533969353178e-05 -0.000206772327006559 -8.7147915405388e-05 0.000279231148591842 -6.25731771278196e-05 0.00012431299168015 -0.000170292560496747 -4.78648818930646e-05 0.000452429481247928 0.000396190099044055 0.000322860984447711 0.000469723764676741 0.000354323923628081 0.000292760028998106 0.000277447554138784 0.000372506775371328
"170" -6.35309713115876e-05 -0.000202230406447138 -9.02915821250765e-05 0.000279373344987791 -6.1608920096007e-05 0.000123761757080503 -0.000168041255275288 -3.8067428607151e-05 0.000448200578257527 0.000402657999012224 0.000318770468777976 0.000468432735010108 0.000344221015098783 0.000284545791296976 0.000270109506703688 0.000361472301101344
"171" -6.08468412563948e-05 -0.000196405437965762 -9.25592767486491e-05 0.000279002012433288 -6.0051038935277e-05 0.000123525006162158 -0.000164398041265009 -2.73493475022187e-05 0.000443183174749298 0.000409226821518009 0.000314272513644422 0.000467869731937388 0.000334309628013478 0.000275314840630375 0.000262380003851431 0.000350728074284494
"172" -5.6173197674713e-05 -0.000189296110259692 -9.3901111829289e-05 0.000278186872565656 -5.787569718184e-05 0.000123660937834371 -0.000159329071313115 -1.57582709261223e-05 0.000437419368709009 0.00041593116316476 0.000309424167684619 0.0004681271664795 0.000324700743154625 0.00026513577993368 0.000254299767734769 0.000340336984422483
"173" -4.95047755882795e-05 -0.000180929774493232 -9.42980962360161e-05 0.000276981443039682 -5.5085796780156e-05 0.000124201355919028 -0.000152824782818004 -3.36906625685002e-06 0.000430947875944958 0.000422788243789958 0.000304266507662938 0.000469266680003748 0.000315488340560654 0.00025408156698706 0.00024591015093585 0.000330344156663873
"174" -4.08456002255209e-05 -0.000171330832686815 -9.37142444882482e-05 0.000275451970615701 -5.16694708416813e-05 0.000125193098878954 -0.000144873880421411 9.75671012654378e-06 0.000423814890340308 0.000429824216121371 0.000298853997766933 0.000471351794161357 0.000306760744602476 0.000242229972090095 0.000237254958119275 0.000320800107038769
"175" -3.02221816274591e-05 -0.000160543733334333 -9.21429445714097e-05 0.000273655716950866 -4.76376950806449e-05 0.000126661030708211 -0.000135490754300021 2.35316754666245e-05 0.00041606414202189 0.000437050340245277 0.000293238144538718 0.000474427240908237 0.000298605904111998 0.000229660529333518 0.000228375030460078 0.000311746201838218
"176" -1.76689332815337e-05 -0.000148610128826314 -8.95634035714255e-05 0.000271656408123659 -4.29865881363348e-05 0.000128640492534517 -0.000124687386186643 3.78723370298808e-05 0.000407753414134197 0.000444483606497776 0.000287467610264746 0.000478531569470271 0.000291098532141319 0.000216462039525045 0.000219320216063773 0.000303222569123199
"177" -3.24463459144462e-06 -0.000135600254665956 -8.5983465823536e-05 0.000269502233135186 -3.77402108906056e-05 0.000131145700616529 -0.000112498457413992 5.26860423136409e-05 0.000398932984892128 0.000452122047894787 0.00028158714401115 0.000483676409134285 0.000284303400445598 0.000202717010800729 0.000210132348679049 0.000295260314980862
"178" 1.29852891892375e-05 -0.000121576073654133 -8.14064703976536e-05 0.000267252136546528 -3.19101232180463e-05 0.000134196954955447 -9.89663015925264e-05 6.78781251373283e-05 0.000389653119188914 0.000459973481457489 0.000275643168923893 0.000489869547600621 0.000278280878629236 0.000188509166887989 0.000200854089092013 0.000287888230974645
"179" 3.09315965996097e-05 -0.00010661719425746 -7.58473424168104e-05 0.000264952585201704 -2.55213869955907e-05 0.000137796542467458 -8.41472735316572e-05 8.33452226151668e-05 0.000379973148969729 0.000468028029953832 0.000269676605356114 0.000497098083044745 0.000273076481195815 0.000173929107922176 0.000191529563268849 0.000281131345180407
"180" 5.04931697832308e-05 -9.08105796404585e-05 -6.93292175152547e-05 0.000262647642972568 -1.86038249676418e-05 0.000141949580928423 -6.81043746997797e-05 9.89862085466217e-05 0.000369942395207413 0.000476275252655007 0.000263727884928191 0.00050533020405692 0.000268723509517505 0.000159059413315472 0.000182197640418945 0.000275004618358575
"181" 7.15619421475452e-05 -7.4250872831905e-05 -6.18791096895903e-05 0.000260378864991427 -1.11876364121323e-05 0.00014665146416125 -5.09159027979938e-05 0.000114696623126146 0.000359620113593746 0.000484693465671705 0.00025783168431834 0.000514528566367569 0.000265251532133566 0.000143981339315865 0.000172900139885704 0.000269519029940526
"182" 9.40137878852815e-05 -5.7038168530606e-05 -5.35398256926581e-05 0.000258181623638255 -3.3095647874704e-06 0.000151892851280004 -3.26605388694142e-05 0.000130371283645197 0.000349056894426497 0.000493261742931801 0.000252016741981762 0.00052463158859764 0.000262666145096566 0.000128778654946576 0.000163674558706038 0.000264684207431605
"183" 0.000117710102901532 -3.92782058379399e-05 -4.43520161128574e-05 0.000256088383130376 4.98813054996042e-06 0.000157654891642868 -1.34388230776761e-05 0.000145909083402043 0.000338304951339472 0.000501948018000487 0.000246313197811237 0.000535569550980455 0.000260974887832972 0.000113531026598126 0.000154551999720791 0.000260499366478686
"184" 0.00014250641845096 -2.1082227304058e-05 -3.4364987549561e-05 0.000254123112627706 1.36675695410085e-05 0.000163916638881436 6.65124197387111e-06 0.000161205386719269 0.000327413394022421 0.000510716094777819 0.000240743636338995 0.000547251931308248 0.000260163742884501 9.8307342584487e-05 0.000145569484891094 0.000256960319144123
"185" 0.000168248627177389 -2.56722593578358e-06 -2.36394759226421e-05 0.000252308647700428 2.26765598065206e-05 0.0001706498122026 2.74986852736837e-05 0.000176166705977085 0.000316427501914424 0.000519520475298858 0.000235326213160301 0.0005595790433216 0.00026021055699452 8.31821113165159e-05 0.000136748725819909 0.000254058793597816
"186" 0.000194764731237345 1.61439897211425e-05 -1.22376620708246e-05 0.000250652483450924 3.19650135148993e-05 0.000177818294547105 4.89849476743446e-05 0.00019069110422465 0.000305391443076906 0.000528310430599544 0.000230073031394059 0.000572430475510539 0.000261079565387935 6.82129002159591e-05 0.000128117946184823 0.000251776360345444
"187" 0.000221901981747218 3.49368360170244e-05 -2.24380549021942e-07 0.000249171785116161 4.14919289863436e-05 0.000185385972384274 7.09958980925781e-05 0.000204700328361183 0.000294347266945143 0.000537041864383845 0.000224997806318393 0.00058569047818992 0.000262730917967329 5.34667853317803e-05 0.000119699870453501 0.000250095863682454
"188" 0.000249470076227106 5.36855081471243e-05 1.23249946585568e-05 0.00024786540154067 5.11956807219693e-05 0.000193309388452062 9.33994329840989e-05 0.000218102599546115 0.000283331219107118 0.000545645737906887 0.000220103804668226 0.000599215509870058 0.000265103992075025 3.89954081436499e-05 0.000111511771783778 0.000248993909268841
"189" 0.000277301741074614 7.22695022088937e-05 2.53388933327794e-05 0.000246739013688032 6.10296522416094e-05 0.000201544806742881 0.000116074643943776 0.000230828308419847 0.000272378764594343 0.000554066059601912 0.000215391421870538 0.000612865427217717 0.000268138603365714 2.48452072218715e-05 0.000103565334626649 0.000248442454317324
"190" 0.000305215645047685 9.05655927711096e-05 3.87355629079076e-05 0.000245779700830319 7.09400332759601e-05 0.000210038815682029 0.00013888428712143 0.000242805865946325 0.000261519059051575 0.000562238610764461 0.000210856898024086 0.000626488600557655 0.00027176380451953 1.10627347127921e-05 9.58722029995766e-05 0.000248409932129157
"191" 0.000333036113360829 0.000108456143490346 5.24372776448111e-05 0.000244982985971772 8.08734121535337e-05 0.000218739947623223 0.000161700114545378 0.00025397532896511 0.000250779103425146 0.000570092845278405 0.000206490635836697 0.000639926218173859 0.000275893052280411 -2.31436172904212e-06 8.84401427332343e-05 0.000248861093145839
"192" 0.000360583162601322 0.000125829944695195 6.63626325086052e-05 0.000244332794411277 9.07786730485674e-05 0.000227594053176796 0.0001843937782099 0.00026429142609312 0.00024018570565526 0.000577559373341299 0.000202287023684669 0.000653021929913774 0.000280442600851737 -1.52561168164729e-05 8.12742033909101e-05 0.000249759238159015
"193" 0.000387684313186607 0.000142567886215504 8.04244027577548e-05 0.000243809973027047 0.000100607368999135 0.000236542382334446 0.000206832253481475 0.000273705537410093 0.000229753546257566 0.000584572746240773 0.000198227135527396 0.000665610785278734 0.00028531427926832 -2.77363648157235e-05 7.43723082863865e-05 0.000251060446477548
"194" 0.00041416588404245 0.000158563119997673 9.4536344836839e-05 0.000243387461871296 0.000110300643316271 0.000245520566257403 0.000228883927549403 0.000282187003649821 0.000219500651116262 0.000591056749318469 0.000194291338073551 0.000677524998718328 0.000290411374885348 -3.97285447927835e-05 6.77296433264972e-05 0.00025272354138165
"195" 0.000439868516375618 0.000173721295207577 0.000108620159790518 0.00024304811027962 0.000119819097765992 0.000254479409465276 0.000250429355092398 0.000289716694960093 0.000209444731436995 0.000596947881211804 0.000190464094386988 0.000688614078678552 0.000295636229502423 -5.12185934158358e-05 6.13450465690036e-05 0.000254706567088949
"196" 0.000464634881949661 0.000187948211569233 0.000122595247760777 0.000242761512872055 0.00012911785141998 0.000263351484402761 0.000271346731931155 0.000296277461760879 0.000199591203446144 0.000602175581674922 0.000186721002014611 0.000698720716538182 0.000300878546439684 -6.21939124199997e-05 5.52064552677001e-05 0.000256962185625575
"197" 0.000488317249405606 0.00020115514315089 0.000136376525168226 0.000242494177002293 0.000138149091650797 0.000272080852138859 0.000291520299538444 0.000301864366666316 0.000189952002419526 0.000606679632099911 0.000183035446202733 0.000707690513051093 0.000306038067779489 -7.2643022395436e-05 4.93017982694349e-05 0.000259442456063265
"198" 0.000510778461666767 0.000213265456896704 0.000149892270528185 0.000242218133880721 0.000146876162741892 0.000280607924041813 0.000310843180608065 0.000306488340261301 0.000180531990460253 0.000610399502710842 0.000179382580704095 0.000715386302434615 0.00031100835265599 -8.25591324294994e-05 4.36216851845313e-05 0.000262105020377649
"199" 0.000531889382055291 0.000224213553010538 0.000163061893182509 0.00024189881918792 0.000155258945868077 0.000288877942731665 0.000329209684016372 0.000310156906674837 0.000171334507307258 0.00061328125223567 0.000175733051064257 0.000721677252316948 0.000315686732890363 -9.19436021830725e-05 3.8147511920208e-05 0.0002649011607682
"200" 0.000551534048079565 0.000233938238133909 0.000175816672809102 0.000241504613196979 0.000163266023244997 0.000296832732537494 0.000346527863282998 0.00031289387579716 0.000162363167139368 0.000615274140374067 0.000172064325493816 0.000726439237304612 0.00031997063623396 -0.000100795587999718 3.28670077907697e-05 0.000267784321362085
"201" 0.000569619605522692 0.000242395212218467 0.000188096006734734 0.000241001726151008 0.000170869377667836 0.000304423888147766 0.000362711431909029 0.000314730863627261 0.00015362179375459 0.000616337028916182 0.00016834397200048 0.000729575544929546 0.000323770262261351 -0.000109112042767538 2.77595241969089e-05 0.000270713338833147
"202" 0.000586044233793219 0.000249539879723113 0.000199828046623453 0.000240354873513832 0.000178036975833971 0.00031160183549502 0.000377677422531567 0.000315702835394122 0.000145107233033763 0.000616431150632069 0.000164545698595768 0.000730983054535471 0.000326987729894687 -0.000116900457867955 2.28072544221165e-05 0.000273642031683403
"203" 0.000600741490555462 0.000255351084909821 0.00021096490802751 0.000239539866034759 0.000184752100147589 0.000318320242159305 0.000391366290419253 0.000315852152814176 0.000136824721378853 0.00061553209413111 0.000160646288917629 0.000730594094990719 0.000329545348877389 -0.000124164998468734 1.79918941207222e-05 0.000276529759323716
"204" 0.00061365371245913 0.000259812547010029 0.000221452267041544 0.000238521721929526 0.000190992618348451 0.000324540193987144 0.000403714582425478 0.000315231372335507 0.000128770703531545 0.00061362088983236 0.000156615572182028 0.000728352624910881 0.000331368276939449 -0.00013091446729549 1.32980650896069e-05 0.000279338656569151
"205" 0.000624739050950821 0.000262919618866839 0.000231250408553192 0.000237279849551691 0.00019674635407892 0.00033022846496155 0.000414676454099673 0.000313891560504935 0.000120949507331516 0.000610687540890015 0.000152437012161597 0.000724216064780197 0.000332381398192162 -0.00013715401610985 8.70233973869706e-06 0.000282031991725663
"206" 0.000633959517379201 0.000264673448216145 0.000240317161436647 0.00023578596288287 0.000202000391375895 0.000335347539249869 0.000424212465586005 0.000311889305897256 0.000113363738062383 0.000606729074619974 0.000148084155508452 0.000718165734024445 0.000332531057389976 -0.000142883739239111 4.19269389118958e-06 0.000284572874946279
"207" 0.000641306620047864 0.000265096923055642 0.000248623846217938 0.000234022391267178 0.000206747592213443 0.000339877525759594 0.000432297372462591 0.000309285598567928 0.000106013061468799 0.000601759531899109 0.000143545522583597 0.000710204045514424 0.000331772168532124 -0.000148117066579789 -2.49602298211139e-07 0.000286933270263674
"208" 0.000646782942436905 0.000264214391551859 0.000256145487995519 0.000231974087296128 0.00021098773353132 0.000343793284014577 0.000438911360325102 0.000306143711729002 9.88998575400467e-05 0.000595794797679074 0.00013880296323403 0.000700343808159634 0.000330059123550224 -0.000152862136958945 -4.64007415313484e-06 0.000289083223397406
"209" 0.000650408197213688 0.00026206424426206 0.00026286515775476 0.000229629193841059 0.000214717900672059 0.000347083609098513 0.000444051996261043 0.000302527341635728 9.20333824268655e-05 0.000588862306413802 0.000133841479783918 0.000688628088171148 0.000327367196302158 -0.000157121517777891 -8.99182738843086e-06 0.000290995684963196
"210" 0.00065220284449349 0.000258689310209263 0.000268766173333166 0.000226979500068828 0.000217939563637477 0.000349736047747192 0.000447718433780553 0.000298493767943007 8.54149846589736e-05 0.000580998408451905 0.000128655658566579 0.000675110424482369 0.000323681172561438 -0.000160899886189483 -1.33193302847594e-05 0.000292650076237537
"211" 0.000652222908276879 0.000254153788180161 0.000273858938086049 0.000224029497957974 0.000220669021440973 0.000351752286422081 0.00044993059468415 0.00029411902108164 7.90569647553043e-05 0.000572258927564487 0.000123240262327402 0.000659875670358176 0.000318998937851087 -0.000164205551789303 -1.76305968100049e-05 0.000294028015051277
"212" 0.000650520169940802 0.000248521773552706 0.000278132066610598 0.000220779823484961 0.000222909698589962 0.000353134520205442 0.000450708267950131 0.000289456757640131 7.29677669374409e-05 0.000562696394528191 0.000117594904813338 0.000643016314314032 0.000313327026191736 -0.000167035665486278 -2.19330732313626e-05 0.000295114620810921
"213" 0.000647168664121575 0.000241863233739191 0.000281605514997049 0.000217238944952272 0.000224680217735292 0.00035389123085128 0.000450085000592666 0.000284569002720272 6.71610811705068e-05 0.000552378067267568 0.000111723909494208 0.000624644642173448 0.00030668079758074 -0.000169402219937166 -2.62342152088677e-05 0.00029589505457312
"214" 0.00064224786109361 0.000234260532861807 0.00028429018308323 0.000213425186573176 0.000225990219873582 0.000354036851397193 0.000448102632828925 0.000279512496067241 6.16480154224354e-05 0.000541379763795395 0.000105631459052035 0.000604890587160752 0.000299095307136617 -0.000171303517865212 -3.05379155924032e-05 0.000296362941477621
"215" 0.000635854234812922 0.000225803607407841 0.00028620946096845 0.000209356303267985 0.000226859947052457 0.000353594740730737 0.000444810158534196 0.000274339856397083 5.6440176777023e-05 0.000529779480841942 9.9332278129279e-05 0.000583893682915291 0.000290603419736623 -0.000172744616150503 -3.48467155493986e-05 0.0002965090786374
"216" 0.000628086453798964 0.00021657989702861 0.000287391067709994 0.000205059101017281 0.000227313268990393 0.00035258897875529 0.000440268603332329 0.000269104964442012 5.15634533076236e-05 0.00051767074881403 9.2839658887377e-05 0.000561816386728827 0.000281264935891286 -0.00017372412326475 -3.91560132084263e-05 0.00029633349191068
"217" 0.000619058692498874 0.000206694429382604 0.000287871205048918 0.000200566512807098 0.000227368568324282 0.00035105479204568 0.000434542786462076 0.000263849636969919 4.70308033115606e-05 0.000505150231275279 8.61706017170474e-05 0.000538827440791518 0.000271133863837475 -0.000174244867291558 -4.34644789640794e-05 0.000295834939614178
"218" 0.000608884381231434 0.000196244344384235 0.000287682666117647 0.000195914452737547 0.000227049532084161 0.000349025570081773 0.000427700336816007 0.000258614236671852 4.28640720869958e-05 0.000492317688638747 7.93524269095218e-05 0.000515104882967123 0.000260286080678859 -0.000174305231290138 -4.77666032505007e-05 0.000295014053023052
"219" 0.000597688218832508 0.000185333792733787 0.00028687004209828 0.0001911426072132 0.000226381116201185 0.000346544061802354 0.000419822479747705 0.000253432124352912 3.90832170297303e-05 0.000479274814118701 7.24096797586865e-05 0.000490834546490422 0.000248792069357947 -0.000173911386308003 -5.20550173237793e-05 0.000293876875924039
"220" 0.000585602898790727 0.000174075346351611 0.000285482513720115 0.000186297520568469 0.000225390451905178 0.000343659041632912 0.000410989909543275 0.000248336373649264 3.57159929149668e-05 0.000466138549274181 6.53729694120779e-05 0.000466215480621287 0.000236745254079719 -0.000173056837372987 -5.63149948507054e-05 0.000292432626925752
"221" 0.000572754755013738 0.00016257296929841 0.000283566561219076 0.000181429379684947 0.000224105388086428 0.000340415149747255 0.000401285756869667 0.000243347334039052 3.27846082353421e-05 0.000453015418540364 5.82750435027759e-05 0.00044144467514822 0.000224233484033005 -0.000171744706492068 -6.05353366646346e-05 0.000290687872287577
"222" 0.000559277212391554 0.000150932647974218 0.000281170766924863 0.000176587391575411 0.00022254309518704 0.000336865526275879 0.000390802822213915 0.000238478848390523 3.03084073098072e-05 0.000440015371587208 5.11494951058264e-05 0.000416714687051354 0.000211350308900846 -0.000169979884858703 -6.47042307928973e-05 0.000288653077852064
"223" 0.000545305751408721 0.000139263688596512 0.000278353411271944 0.000171826853995596 0.000220734157201894 0.000333067659198521 0.000379631217420038 0.000233746339071398 2.83197002295743e-05 0.000427257630106118 4.40356083514966e-05 0.000392233279132659 0.00019820305648969 -0.000167760722301259 -6.88004027193752e-05 0.000286343003800138
"224" 0.000530972750970996 0.000127674527727246 0.000275172266642195 0.000167207399684663 0.000218705829243591 0.00032907757301828 0.000367865700226282 0.000229151615585627 2.68415828250632e-05 0.000414851405451772 3.69780349501333e-05 0.000368196810826655 0.000184894656610546 -0.000165088860015509 -7.28084868679128e-05 0.000283769838796685
"225" 0.000516407647869814 0.000116264627413889 0.000271674034587858 0.000162782572378828 0.000216481452162776 0.000324952886167975 0.000355600938342292 0.000224695005667394 2.59006603282735e-05 0.000402905816904813 3.00158742946399e-05 0.000344800182294718 0.000171531065039656 -0.000161966394947933 -7.67070419916176e-05 0.00028095021606058
"226" 0.000501745950513957 0.000105135641543117 0.000267924878515395 0.000158617685562808 0.00021408438194564 0.000320757676713755 0.000342931804329672 0.000220374356818496 2.55235777828829e-05 0.000391534144789342 2.31917338018663e-05 0.000322236270216979 0.000158222703166687 -0.000158398121960359 -8.0471683455967e-05 0.000277900497957328
"227" 0.000487109786099278 9.43845152135279e-05 0.000263973540331899 0.000154765001852395 0.000211536946448475 0.000316544659433745 0.000329949138455669 0.000216171137119385 2.57288358433518e-05 0.000380832597002139 1.65500348999068e-05 0.000300678943346233 0.000145071778436669 -0.000154389289117386 -8.40823700156285e-05 0.000274633882721375
"228" 0.000472611458412603 8.40966811097388e-05 0.000259877488288441 0.000151284086867977 0.000208858589750873 0.000312377074347244 0.000316748422954711 0.000212070754534203 2.65485177699828e-05 0.000370903477969003 1.01390634259903e-05 0.000280306952863653 0.000132186458367086 -0.00014994739402807 -8.75162556638617e-05 0.000271171014135319
"229" 0.000458373557716315 7.43652114619103e-05 0.000255693551765027 0.000148234906401088 0.000206073971910906 0.000308317695226275 0.000303426255771028 0.000208057181623846 2.80020465753483e-05 0.00036184130939251 4.00310230454758e-06 0.000261281987275151 0.000119674051369744 -0.000145075384351688 -9.07428070575198e-05 0.000267530162016815
"230" 0.000444488850827105 6.52609103026189e-05 0.00025146430295341 0.000145663630607334 0.000203194222312475 0.000304416107110041 0.00029006211873798 0.00020409727815786 3.01068744087692e-05 0.000353725667988709 -1.81645047283594e-06 0.000243745691577189 0.000107627297785856 -0.000139789192124371 -9.37440382165733e-05 0.000263725078118598
"231" 0.00043107086492161 5.68598831090594e-05 0.000247247209224117 0.00014363037534518 0.000200243942613907 0.000300733342329845 0.000276748246857182 0.000200167397355033 3.28889916082954e-05 0.000346641334544727 -7.27121988478686e-06 0.00022784285937088 9.61471870029431e-05 -0.000134088737383337 -9.64904359388848e-05 0.000259777746170547
"232" 0.000418197311939164 4.92219988403439e-05 0.000243079572479464 0.000142173346266242 0.000197231484664587 0.000297319441220675 0.000263559105783755 0.000196235641620276 3.63572334979671e-05 0.000340654393852335 -1.23196918845804e-05 0.000213685310836734 8.53204402311714e-05 -0.000127995467816028 -9.89579615304207e-05 0.000255700945673104
"233" 0.000405953014801239 4.24098158680909e-05 0.000239007194233683 0.000141341746120908 0.000194169939865121 0.000294227607718832 0.000250580709881544 0.00019226958618432 4.05293875702079e-05 0.00033582605984416 -1.6919913470844e-05 0.00020138165142425 7.5232373161454e-05 -0.00012152468026831 -0.000101122172226102 0.000251513342466908
"234" 0.000394416542660914 3.64682585097306e-05 0.000235075175053814 0.000141175616891513 0.000191077130399441 0.00029150351959338 0.000237883079748157 0.000188237905218756 4.54189901749995e-05 0.000332207519790778 -2.10346414054479e-05 0.000191016121996238 6.59585551208108e-05 -0.000114686003487199 -0.000102957252399715 0.000247231190316662
"235" 0.000383638311041995 3.14398923932515e-05 0.000231307312690546 0.000141705353172384 0.000187959093740621 0.000289190021339265 0.000225534191917249 0.000184105138582087 5.10307101170417e-05 0.000329843434649748 -2.46209809654059e-05 0.000182661779917669 5.75666155323087e-05 -0.000107497035425594 -0.000104441401463727 0.000242872179305939
"236" 0.000373672401102956 2.73524314540894e-05 0.000227743018740192 0.000142957931615586 0.000184821243565881 0.000287321722560385 0.0002135949101704 0.000179833296434077 5.7364392705789e-05 0.000328756182942982 -2.76509373961307e-05 0.000176359168308749 5.01121627075097e-05 -9.9986564740399e-05 -0.000105553150936653 0.000238445575095478
"237" 0.000364565775416909 2.42335532095406e-05 0.000224404105283414 0.000144957736070849 0.000181676417241459 0.000285940344677524 0.00020212868064712 0.000175399828990677 6.44288677326096e-05 0.000328974428449181 -3.00905415786097e-05 0.000172149819454474 4.36536788729104e-05 -9.21672443042285e-05 -0.000106268947452544 0.000233971006300859
"238" 0.000356344675859841 2.20943140739789e-05 0.000221315682132187 0.000147717172369696 0.000178525318807872 0.000285068403461955 0.000191182864095984 0.000170761707332078 7.22136096463697e-05 0.000330499660887938 -3.19094813884571e-05 0.00017003907608825 3.82224431004447e-05 -8.40682101809001e-05 -0.000106571015248414 0.000229458688096769
"239" 0.000349028909707679 2.09396522136658e-05 0.000218491987535193 0.000151250171211684 0.000175376421367111 0.000284734818808888 0.000180804682922949 0.000165899402802964 8.07119840798687e-05 0.000333332687070248 -3.30851499434531e-05 0.000170020251884186 3.38522117009628e-05 -7.5712771996542e-05 -0.000106444368965059 0.000224922385103358
"240" 0.000342632829471204 2.07680261600654e-05 0.000215950930753966 0.000155554378984575 0.000172228851980889 0.00028495803702173 0.000171037291732432 0.000160785036964317 8.99125320817752e-05 0.000337461449747596 -3.35951586458355e-05 0.000172070231561726 3.05657926098322e-05 -6.71317395023509e-05 -0.000105869952625417 0.000220370313747736
"241" 0.000337157449077527 2.15677031021291e-05 0.000213696286650068 0.000160628247416355 0.000169087588491117 0.000285748907763756 0.000161911243828964 0.000155398735482887 9.97962374904505e-05 0.000342859079692681 -3.34252720249297e-05 0.000176137425194637 2.836763857663e-05 -5.83540331126831e-05 -0.000104837865643793 0.000215815714253934
"242" 0.000332594728512756 2.33194934742045e-05 0.000211736096019055 0.0001664588760871 0.000165956307375216 0.000287121398422409 0.000153455723379762 0.000149722336881531 0.000110342476449232 0.000349491085640556 -3.25590645217329e-05 0.000182162469487116 2.72597725250505e-05 -4.94052740123457e-05 -0.000103337258979982 0.000211266976488756
"243" 0.00032892670112873 2.59949468555376e-05 0.00021006884659854 0.000173030295555063 0.000162834469064435 0.000289074381581004 0.000145692713645725 0.000143744746356797 0.000121525455375125 0.000357316281082162 -3.09880254401184e-05 0.000190065859028907 2.72323351307972e-05 -4.03226366256815e-05 -0.00010135855008798 0.00020673217717449
"244" 0.000326130644973163 2.95648141421096e-05 0.000208696004407285 0.000180317932221995 0.000159722339984685 0.000291606946069653 0.000138642637864036 0.000137461286830559 0.000133309159321623 0.000366271559245141 -2.87101607753977e-05 0.000199741112510716 2.82610519578842e-05 -3.11440015809816e-05 -9.89002205138469e-05 0.000202217517389029
"245" 0.000324180214381252 3.39828048972238e-05 0.000207611085058267 0.000188291249283453 0.000156628707300763 0.000294715968354758 0.000132313365393958 0.00013087315153183 0.000145663562779611 0.000376300588691863 -2.57239223052983e-05 0.000211078937336013 3.03163520388576e-05 -2.18949468578873e-05 -9.59554471659544e-05 0.000197732254333144
"246" 0.000323029441458907 3.91997295058081e-05 0.000206799394228367 0.000196911849218266 0.000153545547217515 0.00029838119528989 0.000126710028582898 0.000123980640516919 0.000158542389720185 0.0003873226010033 -2.20365732550197e-05 0.000223946914282747 3.33545768228885e-05 -1.26201897849096e-05 -9.25306323821299e-05 0.000193281194699675
"247" 0.000322633215986847 4.51701873570374e-05 0.000206250265358049 0.000206140431048659 0.000150482504226956 0.000302590141730083 0.00012183626670197 0.000116800397564732 0.000171903422644397 0.000399261811952061 -1.7656931039697e-05 0.000238202746682658 3.73289636416865e-05 -3.35203936253304e-06 -8.86242153209343e-05 0.000188867305061572
"248" 0.00032295243979291 5.18294918854902e-05 0.000205951188462831 0.000215931264269803 0.000147439743918418 0.000307321776197503 0.000117684836967052 0.000109349605892866 0.000185695947649185 0.000412029738966625 -1.25942230824198e-05 0.000253692414388437 4.21814246087432e-05 5.87324613409064e-06 -8.42469869147351e-05 0.000184499042598116
"249" 0.000323922336639832 5.91171595868901e-05 0.00020588470596718 0.000226229285873169 0.000144420554691175 0.00031254705386691 0.000114248234418128 0.000101649344122099 0.000199864717488681 0.000425524441493088 -6.87389586401805e-06 0.00027024161680365 4.78397636729137e-05 1.50113893867445e-05 -7.94108006373862e-05 0.000180175307906456
"250" 0.000325482146374654 6.69624252523854e-05 0.000206022445270485 0.000236974491596285 0.000141425527091701 0.000318228057793687 0.000111506847369173 9.37292472216595e-05 0.000214346493032955 0.000439645891305219 -5.16115015451599e-07 0.000287672077009532 5.42277938965907e-05 2.40273883539748e-05 -7.41298770229943e-05 0.000175899974935038
"251" 0.000327579734795963 7.53015960961259e-05 0.000206354649281573 0.000248115909277319 0.000138466205662494 0.000324340665526601 0.000109450595794386 8.56325224610373e-05 0.000229090523124421 0.000454292829165406 6.45105421081543e-06 0.000305806217928733 6.12765900477933e-05 3.28851464710698e-05 -6.84173323680012e-05 0.000171675145233294
"252" 0.000330148032796231 8.40554746371755e-05 0.000206851979892107 0.000259584663743917 0.000135544858589451 0.00033084081457128 0.000108050903035209 7.73931784767775e-05 0.000244022459851178 0.000469350208633073 1.39977436562632e-05 0.000324448543860909 6.88875079210688e-05 4.15412507283528e-05 -6.22959024268798e-05 0.000167505272695323
"253" 0.000333124509766006 9.31542835142089e-05 0.000207495402481561 0.000271316377261356 0.000132670434625212 0.000337686003004819 0.000107287283946427 6.90606197361106e-05 0.000259073772023816 0.00048470550684561 2.20855499343497e-05 0.000343400218197251 7.69691389697345e-05 4.99614833224269e-05 -5.57913788377783e-05 0.000163387548605429
"254" 0.00033643889336741 0.000102518532610825 0.000208257920886662 0.000283243493687032 0.0001298453895662 0.000344828296324634 0.000107125614566596 6.06833759860391e-05 0.000274175027310078 0.000500243572892735 3.06765283577615e-05 0.000362463224807128 8.5429114009943e-05 5.81076505781311e-05 -4.89285911116273e-05 0.000159322794785888
"255" 0.000340028048182048 0.000112072888403547 0.000209118056225285 0.000295295052519557 0.000127082319931221 0.000352220830361018 0.000107534665410627 5.23147814365727e-05 0.000289251550355215 0.000515843557242324 3.97235181364308e-05 0.000381436691291253 9.41654290526405e-05 6.59388585173487e-05 -4.17393432883084e-05 0.000155314295291617
"256" 0.000343833566101007 0.000121744944345424 0.00021005268299544 0.000307404841106893 0.000124392835312501 0.000359815426876686 0.000108487097248235 4.40180473802543e-05 0.000304226307640931 0.000531393431500205 4.91829307473223e-05 0.000400122197350486 0.000103076313105314 7.34233512317811e-05 -3.42576201478843e-05 0.000151357142228829
"257" 0.000347783845543286 0.000131453178000991 0.000211038189903085 0.000319501239259953 0.000121784423276591 0.000367557692712191 0.000109936243100864 3.58492035938223e-05 0.000319020453124025 0.000546776122007637 5.90021082724908e-05 0.000418320509561222 0.000112053317460018 8.05257110085025e-05 -2.65189989504285e-05 0.000147452860184655
"258" 0.000351828979186683 0.000141132385150904 0.0002120553556588 0.000331516181773343 0.000119272905833453 0.00037539367133575 0.000111849892066606 2.78729557564052e-05 0.000333556976867114 0.000561874662591194 6.91237967604389e-05 0.000435840733818275 0.000120997229017453 8.72087748784767e-05 -1.85658972726434e-05 0.000143598318164691
"259" 0.000355902198666856 0.000150699922578041 0.000213081497816797 0.000343382821123052 0.000116865422352707 0.000383270047119236 0.000114188267650074 2.01520554168724e-05 0.000347753129038869 0.000576579179577326 7.94957432349476e-05 0.000452494214452986 0.000129802067522683 9.34425936760333e-05 -1.04372907254228e-05 0.00013979206863654
"260" 0.000359950104230008 0.000160092581598544 0.000214093107810237 0.000355030299338637 0.000114577043736783 0.000391130576815633 0.000116901161611951 1.27483538431035e-05 0.000361529543107827 0.000590779202447051 9.00548115304695e-05 0.000468099124574567 0.000138358184400259 9.91927380727764e-05 -2.18224770390355e-06 0.000136032678954566
"261" 0.000363930675737247 0.000169243802854825 0.000215075466272981 0.000366402197268507 0.00011242151943153 0.000398921111196395 0.000119957237732048 5.72814185611118e-06 0.000374806533565609 0.00060437187382699 0.000100743579589192 0.00048248884532963 0.000146570755547696 0.000104430002711452 6.15396572766785e-06 0.000132314153159685
"262" 0.000367785233917762 0.000178089239588837 0.000216017397852657 0.000377432291470943 0.000110412941498966 0.000406586170087752 0.000123310346146735 -8.47518942221981e-07 0.000387505109817391 0.0006172597872986 0.000111489479102298 0.000495504227356727 0.000154338891257997 0.000109125036853435 1.45226650804187e-05 0.000128635601997341
"263" 0.000371486113600908 0.000186572316902365 0.00021690071477845 0.000388067445466406 0.000108562923185392 0.000414069382322078 0.000126913964599725 -6.91348370000209e-06 0.00039954638397611 0.000629348353989692 0.000122235043107341 0.000506995402571705 0.00016156697301841 0.000113252949727063 2.2869198211862e-05 0.000124991508793933
"264" 0.000374984936294677 0.000194636841454931 0.000217709971295978 0.000398248801716633 0.000106890955691015 0.000421321080831164 0.000130724554360786 -1.24170494943267e-05 0.000410853453184419 0.000640550103405733 0.000132908536601711 0.000516828333038615 0.000168167625180188 0.000116783827353737 3.11391340649543e-05 0.000121376891442346
"265" 0.000378255795872707 0.000202236821959962 0.000218441109969199 0.00040793214284526 0.000105404171151213 0.000428285917069339 0.000134702952276985 -1.72994279914978e-05 0.000421353906697206 0.000650786794232676 0.000143444767898871 0.000524884421996369 0.000174048882735678 0.000119697151858207 3.92782405777125e-05 0.00011778898053366
"266" 0.000381264320629417 0.000209321310483941 0.000219081546754779 0.000417064528677732 0.000104115000642627 0.00043491271077641 0.000138802290397604 -2.15151754427856e-05 0.000430971933859398 0.000659982596713922 0.000153767650710387 0.000531055465954787 0.000179135238579228 0.000121967075732693 4.7225129238776e-05 0.000114217551211221
"267" 0.000383992534795306 0.000215856644125683 0.000219627776084547 0.000425611097611661 0.00010304172972403 0.000441155273241515 0.000142979051087058 -2.50148935963226e-05 0.000439643723900752 0.000668079148990156 0.000163813696337909 0.000535256650479383 0.000183352605026523 0.000123575615104287 5.49282233298677e-05 0.000110660500186103
"268" 0.000386427885742686 0.000221807359731054 0.000220073612508646 0.000433536079844556 0.000102191861154733 0.000446970152214771 0.000147199123881024 -2.77560983898363e-05 0.000447301236144231 0.000675017097932467 0.000173513905899814 0.000537414754187376 0.000186637774686165 0.00012449889248261 6.23247291129505e-05 0.000107108563208878
"269" 0.000388553180131065 0.000227144021206464 0.000220423371530897 0.000440808957742407 0.000101578501166647 0.000452310675562161 0.000151415244197616 -2.97061275658339e-05 0.000453887048576096 0.000680750068469209 0.000182796013534504 0.000537474870849506 0.000188929539080725 0.000124722333436069 6.93548779074123e-05 0.000103555042215462
"270" 0.000390357903241867 0.000231841788147912 0.000220671419526643 0.000447398682216623 0.000101207483079705 0.000457138160850891 0.000155590395409197 -3.08360283697081e-05 0.000459342177149153 0.000685238501081405 0.000191592567604044 0.00053539573229236 0.000190176247205048 0.000124229257647554 7.5960637821962e-05 9.99924161624194e-05
"271" 0.000391845022917933 0.000235887937873774 0.000220823494066329 0.000453290634120719 0.00010108912631687 0.000461418467415592 0.000159687932088219 -3.11240311550867e-05 0.000463618420356464 0.000688455005311162 0.000199836969789252 0.000531165196966556 0.000190339383629918 0.000123007985793268 8.20831849441666e-05 9.64119538027577e-05
"272" 0.000393022419221675 0.000239268535624596 0.000220883285912574 0.000458472046815824 0.000101236511424264 0.000465120224961535 0.000163676123438087 -3.05503956987817e-05 0.000466671782444358 0.00069037909083798 0.000207468744752616 0.000524779918809819 0.000189390393829846 0.000121044798731758 8.76670080382954e-05 9.28063348248032e-05
"273" 0.000393887750427073 0.00024198218265917 0.000220856579932889 0.000462929754806902 0.000101645701662457 0.000468212932512182 0.000167517365997567 -2.91108626279263e-05 0.000468462822099783 0.000690999842391029 0.000214417062476613 0.000516252682543136 0.000187302154240876 0.000118330554109846 9.26531162932337e-05 8.91668297877451e-05
"274" 0.000394451827837149 0.000244021185569179 0.000220748145810309 0.000466657261803472 0.000102321955899744 0.000470668928439953 0.000171180566429053 -2.68046211827967e-05 0.000468956736549271 0.000690313652269234 0.000220627798941569 0.00050561492046467 0.000184062140518523 0.000114853404234193 9.69814524787121e-05 8.54832527709046e-05
"275" 0.000394732799451298 0.000245396367169854 0.000220569931810827 0.000469659730034861 0.00010327030635613 0.000472473191686938 0.000174637785845696 -2.36363691222807e-05 0.000468129238250328 0.000688325629723553 0.000226041353106138 0.000492918321764441 0.000179664831858331 0.000110612088810566 0.000100605433785784 8.17487804366852e-05
"276" 0.000394748507212498 0.000246117230036593 0.000220328382054697 0.000471936496551423 0.000104486178964449 0.00047360718311722 0.000177863351501798 -1.96255412252673e-05 0.000465959784248982 0.000685051942106795 0.000230605666499043 0.000478221118951163 0.000174115587058126 0.000105597133590921 0.000103472250734229 7.79512776483333e-05
"277" 0.000394515841408214 0.00024619468763259 0.000220037875051343 0.000473503004554211 0.000105969412715009 0.000474058179045161 0.000180835485165087 -1.4786268087607e-05 0.000462436542272851 0.000680510413661483 0.000234266199584085 0.000461604285279962 0.000167426330727303 9.98105283914073e-05 0.000105529506290598 7.40844379950005e-05
"278" 0.00039406332725725 0.000245652609194122 0.000219705564857176 0.000474369912542848 0.000107716640892142 0.000473820827639323 0.000183527642836729 -9.15310549928947e-06 0.000457553627802606 0.00067473610371634 0.000236979471535252 0.000443156310474384 0.00015962464013223 9.32480821952372e-05 0.000106735714532426 7.01387443180425e-05
"279" 0.000393413568887302 0.000244513958435406 0.000219346214730195 0.000474552882090292 0.000109719445622592 0.000472893355504414 0.000185926509715281 -2.76046731103051e-06 0.000451315511926818 0.00066776314201127 0.000238705411510925 0.000422985762390774 0.000150744905007233 8.59165542978942e-05 0.000107050379797749 6.61059148414695e-05
"280" 0.000392591548987339 0.000242805623506751 0.000218973339731929 0.000474079488692801 0.00011197386489952 0.000471279139815885 0.000188016917416392 4.35005228815558e-06 0.000443730968469989 0.000659634985873121 0.000239405588840494 0.000401205581506592 0.000140822564916991 7.78193592315994e-05 0.000106437644306363 6.19800348097003e-05
"281" 0.000391633289510117 0.00024056038362476 0.000218595069525702 0.00047296931643263 0.000114465195454908 0.00046898230951472 0.000189783975910814 1.21297279143598e-05 0.00043481505067972 0.000650400203815759 0.000239046642798453 0.000377938511344789 0.000129909551177848 6.89589004022353e-05 0.000104855801370607 5.77532081226055e-05
"282" 0.000390558344869896 0.000237809765669573 0.000218221152309596 0.00047124688039196 0.000117183880592692 0.000466016722399318 0.00019121853933067 2.05201031209969e-05 0.000424595335649179 0.000640114649232989 0.000237605890997972 0.000353318560605412 0.000118064417367437 5.93541062129593e-05 0.000102285895974901 5.34204272599833e-05
"283" 0.000389401743548755 0.000234594694856359 0.000217869873134109 0.000468947988221247 0.000120116683493671 0.000462395879989935 0.000192315450513449 2.94622526774842e-05 0.000413102153561994 0.000628839154630135 0.000235061510031676 0.000327487755765369 0.000105351031824597 4.90117159712067e-05 9.87008367449144e-05 4.89758303218638e-05
"284" 0.000388189142908251 0.00023095328872255 0.000217547185861234 0.00046610075859705 0.000123243652783871 0.000458140494195419 0.000193073276207239 3.88890680865184e-05 0.000400372859632892 0.000616631033809769 0.000231399537907972 0.00030058634883403 9.1839462072795e-05 3.7944468107433e-05 9.40813787929983e-05 4.44172402544571e-05
"285" 0.000386958511473259 0.000226929191493725 0.000217265614679876 0.000462739885502548 0.000126552671253196 0.000453280293106938 0.000193491118804687 4.87342099518386e-05 0.000386455609110627 0.000603562737248649 0.000226611529143987 0.000272770108128976 7.76086671462715e-05 2.61740564639612e-05 8.84179485214927e-05 3.97418546264897e-05
"286" 0.000385730439974744 0.000222563979391034 0.00021703123326607 0.000458898172671404 0.000130023619037377 0.000447837652426838 0.000193570260313581 5.89178167669349e-05 0.000371397933306672 0.000589702687704755 0.000220692564717188 0.000244186173368925 6.27422309475313e-05 1.37216710546787e-05 8.17011191339008e-05 3.49508015441938e-05
"287" 0.000384535863009604 0.000217903031840028 0.000216856394349177 0.000454613181683104 0.000133640978781983 0.000441847250660586 0.0001933190513181 6.93713400000563e-05 0.000355263701835526 0.000575124724459852 0.000213649877186856 0.000214995158236937 4.73286726754722e-05 6.07749703486972e-07 7.39346690380388e-05 3.00434170766869e-05
"288" 0.000383397870064893 0.000212987433243111 0.000216743865301883 0.000449914571049725 0.000137375363983957 0.000435344109404579 0.000192742139157803 8.00044012226216e-05 0.000338111846733652 0.000559899411503045 0.000205495151992157 0.000185341216922027 3.14558156770057e-05 -1.31371250101888e-05 6.51186583124708e-05 2.5025425067891e-05
"289" 0.000382348124092258 0.000207869325647924 0.000216703101951236 0.000444850925782722 0.000141216679015093 0.000428372155165256 0.000191862826249469 9.07504586830794e-05 0.000320018028460999 0.000544103815990389 0.000196245067435326 0.000155385730236544 1.52269908007032e-05 -2.74849031999131e-05 5.52688540614424e-05 1.98999297316469e-05
"290" 0.00038140439567519 0.000202589870992822 0.000216738810042319 0.000439445361140868 0.000145137835910176 0.000420969199425597 0.000190683903782447 0.000101518897192853 0.000301052671585387 0.000527815755354455 0.00018592451825549 0.000125277146989285 -1.26728529444957e-06 -4.23986117822518e-05 4.440324923342e-05 1.46755884517805e-05
"291" 0.000380589218466295 0.000197196251142443 0.0002168518660971 0.000433742172945239 0.000149117469697707 0.000413185728489283 0.000189227384699489 0.000112233602287029 0.000281293049932705 0.000511105250701738 0.000174562436018006 9.51564130234359e-05 -1.7924174320109e-05 -5.7848891215756e-05 3.25435934248089e-05 9.36299960467094e-06
"292" 0.000379917768305372 0.000191731279606846 0.000217049072363005 0.000427776023840625 0.000153139382023303 0.00040506890317198 0.000187517306521729 0.000122815302438621 0.000260823966383395 0.00049405026224205 0.000162194679272295 6.51726421230674e-05 -3.46404570890394e-05 -7.37909364879035e-05 1.9725953151099e-05 3.9729360093579e-06
"293" 0.000379412862273927 0.00018623876988589 0.000217325415847242 0.000421577164729103 0.000157174527021899 0.000396665769386664 0.000185569149087832 0.00013318582673721 0.000239730438415476 0.00047672598014097 0.000148867977786433 3.54591953265306e-05 -5.13143423349199e-05 -9.0182934126252e-05 5.98105332429681e-06 -1.47895330982806e-06
"294" 0.000379083560016034 0.000180757444152362 0.000217684181593602 0.000415183010677644 0.000161206215200965 0.000388034019398523 0.00018341304824036 0.000143268216537219 0.000218103357558751 0.000459201112853528 0.000134628422921806 6.14356740112384e-06 -6.78461836367095e-05 -0.000106979114430095 -8.64384715963792e-06 -6.97688646313768e-06
"295" 0.000378938558900845 0.000175327504934359 0.000218122102988689 0.00040862353233355 0.000165214789579638 0.000379225709432399 0.000181070643112327 0.000152994724395246 0.000196032304673802 0.000441546785304442 0.000119533282203058 -2.26513343709457e-05 -8.41375818570456e-05 -0.000124132210991773 -2.4100617557607e-05 -1.24998738264588e-05
"296" 0.000378998873750298 0.000169989541456231 0.000218640168954147 0.000401936369152798 0.000169183086176185 0.000370299001419815 0.000178571614881299 0.000162300519186884 0.000173611610551266 0.000423836479774208 0.000103640355052627 -5.0804380633846e-05 -0.000100082569658443 -0.000141588200578716 -4.03353198900889e-05 -1.80275660077264e-05
"297" 0.000379256043794704 0.000164774377618507 0.000219228349721883 0.000395145421725192 0.000173092672495523 0.000361305241409632 0.000175944863161785 0.000171119194851196 0.000150934253922639 0.000406128857315729 8.70148441190859e-05 -7.82152353887357e-05 -0.000115592828673006 -0.00015929360603529 -5.72866387572843e-05 -2.35332468089004e-05
"298" 0.00037972096479865 0.000159716269697101 0.000219887269948957 0.000388282872389148 0.000176925875256436 0.000352303440665722 0.000173218006715654 0.000179394843800998 0.000128088907642404 0.000388487356493636 6.97311284531879e-05 -0.000104785800386215 -0.00013057152506282 -0.00017719162397003 -7.48925910419097e-05 -2.89953789756587e-05
"299" 0.000380397054651648 0.000154844283456475 0.000220611188714169 0.000381375932277998 0.000180671990332167 0.000343350839039097 0.000170427253018429 0.000187082134067033 0.000105180260576029 0.000370978560880894 5.18588716567484e-05 -0.000130420615670511 -0.000144926078202852 -0.000195218594747176 -9.30792730751606e-05 -3.43799569324044e-05
"300" 0.000381276526175574 0.000150183590107759 0.000221388763086914 0.000374450137827777 0.000184313141729999 0.000334505233454113 0.000167596613014356 0.000194132687068687 8.22895366542997e-05 0.000353651811548944 3.34776604673485e-05 -0.000155049696295068 -0.000158577917650968 -0.000213316877951427 -0.00011177508319676 -3.96589540824796e-05
"301" 0.000382365476923091 0.000145758202081847 0.000222218537729086 0.000367532064998297 0.00018784368490024 0.000325820469510145 0.000164761206005483 0.000200511532788865 5.95174378646203e-05 0.000336563356632727 1.46714986921548e-05 -0.000178594428265581 -0.000171440435605505 -0.000231417249826494 -0.000130903234288425 -4.48001476506121e-05
"302" 0.00038365031637249 0.000141588766928442 0.000223089398884534 0.000360644781577914 0.000191251452415375 0.000317347888355201 0.000161948950079098 0.000206186394208006 3.6950053116956e-05 0.000319763346654122 -4.47743406130234e-06 -0.000201000334577475 -0.000183438063505815 -0.000249458267519687 -0.000150379029713631 -4.97682222426901e-05
"303" 0.000385129586470409 0.000137694861718635 0.000223995554500869 0.000353813011039621 0.000194534750373883 0.000309145964195416 0.000159195314826709 0.000211142713351944 1.46783053483279e-05 0.000303298498095468 -2.3883002367501e-05 -0.0002222085871838 -0.000194503139528076 -0.000267364291844352 -0.000170119943914056 -5.45280488891052e-05
"304" 0.000386796541642293 0.000134086165832787 0.00022493238030132 0.000347061755933831 0.000197687224832151 0.000301264994845958 0.000156525261727803 0.000215361553502289 -7.21593629308398e-06 0.000287214010343491 -4.34533841338463e-05 -0.00024217813979627 -0.000204566369415226 -0.000285071210330068 -0.00019003894689107 -5.90454429022848e-05
"305" 0.000388631815565454 0.00013077070695281 0.000225886567372922 0.000340406234351323 0.000200702773190909 0.000293750463269386 0.000153962272900834 0.00021883281847925 -2.86474634418992e-05 0.000271544983267619 -6.3102110409656e-05 -0.000260876775354647 -0.000213575323987117 -0.000302505557757129 -0.000210046310065311 -6.32786840043642e-05
"306" 0.000390634274881696 0.000127761032979691 0.000226852080965779 0.000333873901383344 0.000203587180474238 0.000286654668750494 0.000151540613215181 0.000221565095523481 -4.95424231450359e-05 0.000256330489418171 -8.27342147233984e-05 -0.000278281069532304 -0.000221478812238683 -0.000319599727721374 -0.000230053566100488 -6.71949126619701e-05
"307" 0.000392787635547222 0.000125056251590468 0.00022782552951243 0.000327480568225863 0.000206341088410661 0.000280013675571714 0.00014927714430571 0.000223559905724514 -6.98199338520849e-05 0.000241604585805846 -0.000102262669212925 -0.000294367793758903 -0.000228223836254307 -0.000336276084480145 -0.000249967805761505 -7.07528727434191e-05
"308" 0.000395080233413662 0.000122662355820862 0.000228799306995557 0.000321250471636004 0.000208969390576208 0.000273873352161133 0.000147202317079286 0.00022483716876787 -8.94125781358934e-05 0.000227395905875916 -0.000121591970422328 -0.000309129611684039 -0.000233780205998399 -0.000352466580634277 -0.000269698079268275 -7.39160073436699e-05
"309" 0.000397490693183731 0.000120570436570087 0.000229758600068703 0.00031519850096679 0.000211472564168116 0.000268264034479911 0.000145326675326414 0.000225412128185313 -0.00010825636634069 0.000213732003011588 -0.000140639609467843 -0.000322568820975389 -0.000238116870455823 -0.000368098743623947 -0.000289156231017336 -7.66473824854173e-05
"310" 0.000400012526838505 0.000118780503346832 0.00023071226129142 0.000309349668839514 0.000213865400796276 0.000263227385528703 0.000143674072837227 0.000225317014882589 -0.000126285082686367 0.000200638022588758 -0.000159311962542944 -0.000334681209351609 -0.000241202418724319 -0.000383099754618461 -0.000308246041526647 -7.8909949409382e-05
"311" 0.000402635094906672 0.000117284306172233 0.00023164670981222 0.000303721646512015 0.000216155702354 0.000258788050413012 0.00014225849234512 0.000224586517566173 -0.000143443341812878 0.000188133376031304 -0.000177527623200747 -0.000345483669243956 -0.0002430285715037 -0.000397401317935055 -0.000326883358152515 -8.06712903616329e-05
"312" 0.000405333613954575 0.000116069465738258 0.000232563947134182 0.000298338532086622 0.000218353629146564 0.000254974930222077 0.000141085828574192 0.000223259530678087 -0.000159679111612996 0.00017623760935134 -0.000195198568025373 -0.000354988809499541 -0.000243581228668072 -0.000410936132922419 -0.000344981398042517 -8.18968066905253e-05
"313" 0.000408099249047402 0.000115123741820118 0.000233453546004971 0.000293214424573956 0.000220468514489487 0.000251800800450734 0.000140167729069159 0.000221373466209189 -0.00017495117914519 0.000164966321099519 -0.000212251586916698 -0.000363223313698017 -0.000242861204314838 -0.000423638725837098 -0.000362453938417134 -8.25592199071944e-05
"314" 0.000410911042836823 0.000114432434455935 0.000234315818519468 0.00028837274716493 0.000222515107227144 0.000249288496314972 0.000139508696256894 0.000218980263981848 -0.000189210126355765 0.000154333231895917 -0.000228605188163268 -0.000370213591158551 -0.000240871275555197 -0.000435442208546649 -0.000379218629304166 -8.26275247550549e-05
"315" 0.000413763739700137 0.000113978047102586 0.000235153142575246 0.000283836759690051 0.000224508055369493 0.000247450054417543 0.000139109477928973 0.0002161313941528 -0.000202426422343999 0.000144351029832561 -0.00024419104629111 -0.00037598765495969 -0.000237624785137613 -0.000446290769731478 -0.000395201021655997 -8.20786550076219e-05
"316" 0.000416635912175548 0.000113744396998205 0.000235961355430663 0.000279622819493505 0.000226462772262834 0.000246289377820884 0.000138964777124923 0.000212875017701973 -0.000214562189214564 0.000135026155257673 -0.000258937705481429 -0.000380582801221242 -0.000233137519273463 -0.000456118363373487 -0.000410321589766018 -8.08911069505117e-05
"317" 0.000419510870431941 0.000113705107192687 0.000236742938727073 0.000275753549973985 0.000228385345194642 0.000245810468384532 0.000139073421776219 0.000209266595144201 -0.000225598351222251 0.000126367736727506 -0.000272788879059932 -0.000384036281176419 -0.000227438480134082 -0.000464881086459355 -0.000424516932515472 -7.90483321372373e-05
"318" 0.00042237711028254 0.000113844196388583 0.000237494101167295 0.000272249338119418 0.000230295135463135 0.000246012537675965 0.000139420274231877 0.00020536020953669 -0.000235513585398923 0.000118378486164715 -0.000285685059826865 -0.000386396280712465 -0.000220562061531369 -0.000472524358228697 -0.000437718977211875 -7.65358146179482e-05
"319" 0.000425225819159102 0.000114140029534954 0.000238223515908947 0.000269136297467143 0.000232203032384016 0.000246888258423561 0.000139999765954312 0.000201216147420312 -0.000244293260381374 0.000111062039718791 -0.000297575160677492 -0.000387699709738967 -0.000212543352358108 -0.000479007205078905 -0.000449872134777908 -7.33479243511265e-05
"320" 0.000428035874233543 0.000114564636036472 0.000238926521776149 0.000266433560571804 0.000234123051579906 0.000248424719420175 0.000140791201093504 0.00019688207277968 -0.000251925397922204 0.000104421239086527 -0.000308414819392407 -0.000387996264687326 -0.000203424167239556 -0.000484286098828394 -0.000460918751538074 -6.94795979267761e-05
"321" 0.000430801197706311 0.00011510011887979 0.000239613184198716 0.000264161509029398 0.000236065164201782 0.000250612369191037 0.000141780814940689 0.00019242032268896 -0.000258404919716261 9.8456207609172e-05 -0.000318166676218618 -0.00038732911246816 -0.000193257837317367 -0.00048832443491538 -0.000470814280274176 -6.49325500836873e-05
"322" 0.000433499925327784 0.000115717021571336 0.000240278203512778 0.000262340750202421 0.000238039374686892 0.000253421709181264 0.000142939628167121 0.000187877168249495 -0.000263735817957248 9.31641342489694e-05 -0.00032679823896124 -0.000385755627305649 -0.000182101891672655 -0.000491095789123439 -0.000479515097444701 -5.97145134231597e-05
"323" 0.000436131999060041 0.000116397063725273 0.000240933325346276 0.000260994623785459 0.000240058011037455 0.000256840710433821 0.000144253868682201 0.000183306999228006 -0.000267918905112897 8.85418700117633e-05 -0.000334282482621694 -0.000383316120252694 -0.00017001092076289 -0.000492574917697299 -0.000486984650505427 -5.38356509458776e-05
"324" 0.000438674764787732 0.000117111897359437 0.000241577848010038 0.000260139204353391 0.000242122438263734 0.000260832259963524 0.000145687591094642 0.000178754413879476 -0.000270967260681955 8.45840757912357e-05 -0.000340601350317582 -0.000380072370340359 -0.00015705883221698 -0.000492744029859305 -0.000493198976263228 -4.73182761000601e-05
"325" 0.000441120665528356 0.000117838317105962 0.000242210371623903 0.000259794997238049 0.000244240469755666 0.000265365940687035 0.000147215998335086 0.000174265550787305 -0.000272893611131164 8.12813195370546e-05 -0.000345747821061916 -0.000376070060414543 -0.00014330680189107 -0.000491596240614677 -0.000498138025571494 -4.01832102300455e-05
"326" 0.000443457645052327 0.000118556521938942 0.000242841929630652 0.000259981364007316 0.000246416631569433 0.000270406462300761 0.000148810456726582 0.000169881733514643 -0.000273720175665378 7.86269423925437e-05 -0.000349713527762866 -0.000371361896316008 -0.000128833610334448 -0.000489122100997107 -0.000501783905930295 -3.2465619992205e-05
"327" 0.000445672276492685 0.000119240942030601 0.0002434702481569 0.00026071354708985 0.000248648869725306 0.000275917218871134 0.000150439784121379 0.000165638883259963 -0.000273466592586323 7.66127640475526e-05 -0.000352499183842887 -0.000365999065848035 -0.000113715592000392 -0.000485323817829483 -0.000504131650600472 -2.41953681002191e-05
"328" 0.000447757739959593 0.000119870909921824 0.000244100664241859 0.000262000855582771 0.000250938497746361 0.000281853618881788 0.000152068848054848 0.000161570656505497 -0.000272165625343365 7.52223466907298e-05 -0.000354118042754945 -0.000360040293781814 -9.80348743237926e-05 -0.000480216133749775 -0.000505182525865958 -1.54221237593475e-05
"329" 0.000449692538473442 0.000120424554015092 0.000244729051025107 0.000263859124664191 0.0002532785339708 0.000288167550864974 0.000153663744894119 0.000157706313736965 -0.000269844522938979 7.44435290581776e-05 -0.00035458661052189 -0.000353532179078413 -8.18707903864971e-05 -0.000473812428211503 -0.000504943109428233 -6.18907951020264e-06
"330" 0.000451478536698746 0.000120889331786792 0.000245365402594919 0.000266303591789909 0.000255667413381793 0.000294820389735151 0.000155196643578051 0.000154074148194135 -0.000266537169674655 7.42632707609231e-05 -0.000353923017842991 -0.000346523035642889 -6.53091181663748e-05 -0.000466131412471821 -0.000503427058463388 3.45029531153997e-06
"331" 0.000453097846466634 0.000121245841621152 0.000246003110238773 0.000269335278149392 0.000258095684933884 0.000301757056034295 0.000156635181925167 0.000150691684696712 -0.000262284556751067 7.46640273938665e-05 -0.000352160688420848 -0.000339069090687424 -4.84362271100865e-05 -0.000457206928603004 -0.000500656275380369 1.3433213241814e-05
"332" 0.0004545331793564 0.000121470347940587 0.000246641683678993 0.000272956329987004 0.000260550552175974 0.000308922588985095 0.000157940945435598 0.000147573345335589 -0.000257131040126862 7.56237315003322e-05 -0.000349332103500316 -0.000331219901210875 -3.13418719445338e-05 -0.000447074047726286 -0.000496659617569318 2.37002006529253e-05
"333" 0.000455776077235783 0.000121552730563208 0.000247277012972411 0.00027717181984365 0.000263020182310096 0.000316266472204769 0.000159084189148853 0.000144732130980876 -0.000251120401844916 7.71238246959876e-05 -0.000345478382084413 -0.000323028048545852 -1.41174796491052e-05 -0.000435781274670456 -0.000491471685174265 3.41757198794716e-05
"334" 0.000456822035644797 0.000121484250670607 0.000247914042604141 0.000281982731574731 0.000265492804442566 0.000323738406450479 0.000160038865997658 0.000142178006624455 -0.000244299978121588 7.9143502610801e-05 -0.000340645631639689 -0.000314536847982598 3.15646365730591e-06 -0.000423368461094335 -0.000485133829829741 4.47911176069457e-05
"335" 0.00045765938244685 0.000121252392081817 0.000248543151493416 0.000287379861103366 0.000267950055812439 0.000331281590855377 0.000160782785274647 0.000139916161154768 -0.000236720450876986 8.16548394558328e-05 -0.000334886361564207 -0.000305798752290173 2.03843946245013e-05 -0.000409902853507069 -0.000477693847256151 5.54677930592465e-05
"336" 0.000458269421263111 0.000120847165736234 0.000249162373271327 0.000293353014235443 0.000270373319584351 0.00033883893464953 0.000161277342543254 0.0001379396128794 -0.000228433293158253 8.46345340274082e-05 -0.000328255220873554 -0.000296860798581725 3.74835010800791e-05 -0.000395439623532116 -0.000469202469235373 6.61223927032059e-05
"337" 0.000458635234602755 0.000120257116363925 0.000249755452835723 0.00029988571155196 0.000272738646703688 0.000346351714004368 0.000161508586750168 0.000136251799838288 -0.000219502812196931 8.80517763375565e-05 -0.00032081443288421 -0.000287773912015932 5.43598107361417e-05 -0.000380053138851436 -0.000459723565733688 7.66734071991952e-05
"338" 0.000458764720548539 0.000119485870067097 0.00025032925102293 0.000306971854009755 0.000275032324171788 0.000353777584191987 0.000161461694467925 0.000134846126147211 -0.000209976332094568 9.18797093122124e-05 -0.00031262595364993 -0.000278574527132885 7.09398716659904e-05 -0.000363812800788761 -0.000449314706131649 8.70335271050892e-05
"339" 0.000458629936029766 0.000118523615879392 0.000250860371904757 0.000314578150168127 0.000277225952455034 0.000361048892600505 0.000161112269680901 0.000133708504026644 -0.000199919328135605 9.60844078050071e-05 -0.000303760697437044 -0.000269318236793849 8.71270823616168e-05 -0.000346800574439754 -0.000438048956387526 9.7113614790269e-05
"340" 0.000458224981600984 0.00011737285292711 0.000251347903304803 0.000322684483775162 0.00027929824664917 0.000368119516761927 0.000160451247126594 0.000132830440201119 -0.000189395168801974 0.000100633177908948 -0.000294284781809824 -0.000260045023572807 0.000102852412172157 -0.000329101611822237 -0.000425992411880149 0.000106823364450184
"341" 0.00045754314362376 0.00011603364430764 0.000251782211129248 0.000331259418748312 0.000281225266055307 0.000374938450080362 0.000159475894813824 0.000132199681855997 -0.000178464335276617 0.000105488608855328 -0.000284270945827015 -0.000250799555124309 0.000118034165208351 -0.00031080506148059 -0.000413228688478258 0.000116075768253425
"342" 0.000456570995559644 0.000114509656772518 0.000252145012335902 0.000340268687294279 0.000282981301773649 0.000381455995940404 0.000158176695304272 0.000131798563512348 -0.000167188210134519 0.000110620291388356 -0.000273794265072536 -0.000241622393288501 0.00013260004041549 -0.000291997896186261 -0.000399826692527925 0.000124780040631992
"343" 0.00045529721946825 0.000112799669081412 0.000252423526200818 0.000349671984990717 0.000284538994154984 0.000387620952029634 0.000156557036664512 0.000131612384492578 -0.000155633839597202 0.000115983815068751 -0.00026293409111643 -0.000232558859658053 0.000146480709132489 -0.00027278207559968 -0.000385877199203107 0.000132846939127153
"344" 0.000453715541293825 0.000110919269852476 0.000252605813857528 0.0003594279431595 0.000285881750601958 0.000393395554200781 0.000154621771402676 0.000131624147144188 -0.000143866847534296 0.000121542834024922 -0.000251761431435553 -0.000223643125599168 0.000159607134516777 -0.000253252864482233 -0.00037145749346731 0.000140193146992578
"345" 0.000451814288324635 0.000108871767246998 0.000252677115046302 0.000369486116530431 0.000286977527636864 0.000398733737905254 0.000152379475821614 0.000131815181691645 -0.000131951912919619 0.000127254364788627 -0.000240354079203113 -0.000214920249318176 0.000171920748165106 -0.000233508854970889 -0.000356652623559366 0.000146730817228525
"346" 0.000449583431537398 0.000106662189296398 0.000252619457360535 0.000379797913999456 0.000287803747766249 0.000403594524652503 0.000149842720103695 0.000132166353391236 -0.000119957650365386 0.000133075536957505 -0.000228787428493824 -0.000206427900451507 0.00018336486330153 -0.000213656199577194 -0.000341552088528078 0.000152381945050236
"347" 0.000447032762811137 0.00010431681092451 0.000252426271824981 0.000390313552589929 0.00028834750785859 0.000407955944310572 0.000147042557726828 0.000132666034070429 -0.000107946567414209 0.000138969834102086 -0.000217137940020963 -0.000198195036436937 0.000193887010194722 -0.000193795701448636 -0.000326235709236997 0.00015707006055049
