"V1" "V2" "V4" "V5" "V7" "V8" "V10" "V11" "V13" "V14" "V15" "V17" "V18" "V20" "V21" "V23"
"1" -0.000787004314836747 -0.000979431594821055 -0.000325024108902265 -0.0005265659873439 -0.000554719734261839 -0.000621187505303774 -0.000501006196670706 -0.0002999750555368 -0.000898671411664405 -0.000761797578199512 -0.000185084062064424 -0.000682137306532882 -0.0012829929013577 -0.000789177734948007 -0.000990857475753852 -0.000670359084086321
"2" -0.000832283806879049 -0.000994437258997967 -0.000320443498680436 -0.000548364650783432 -0.000563083395595206 -0.000630727213715868 -0.000523086162673753 -0.000298074063144936 -0.000891801794033396 -0.000748435886719856 -0.000179937022896634 -0.000690988156939896 -0.00129224158294267 -0.000809017207251828 -0.00100267966331226 -0.000651959774758509
"3" -0.00087703549676538 -0.00100962540574184 -0.000315354977429969 -0.000569949361659601 -0.000571282264222954 -0.00064039546895079 -0.000545103370897021 -0.000295899157346475 -0.000883882225411908 -0.000733255288745682 -0.000174787911629422 -0.000698482099909881 -0.00129902672889168 -0.000830911727853022 -0.00101375252311629 -0.000631681707008523
"4" -0.00092112519083948 -0.00102491048717872 -0.000309773095737116 -0.000591220047238711 -0.000579288778393217 -0.000650144216327653 -0.000566989532008978 -0.00029345264696055 -0.000874847576867832 -0.000716419450633946 -0.000169689891541743 -0.000704586360390046 -0.00130326020473267 -0.000854727670310952 -0.00102391550817057 -0.000609852218508523
"5" -0.000964421007961242 -0.00104019808623472 -0.000303712813339747 -0.000612077968614245 -0.000587075482841115 -0.000659912356169136 -0.000588673264523202 -0.000290743314257904 -0.000864628998327618 -0.000698110298130954 -0.00016470408256332 -0.000709281273800754 -0.00130486465412192 -0.00088031579131457 -0.00103299394520006 -0.000586808129675111
"6" -0.00100680303914928 -0.00105538742827565 -0.000297192018690165 -0.000632425171072655 -0.000594610300644417 -0.000669639556051671 -0.000610081253461328 -0.000287781908580794 -0.000853165913084491 -0.000678516971595795 -0.000159880294005998 -0.000712556534026072 -0.00130377718032311 -0.000907505749918948 -0.00104082152487656 -0.000562886212962919
"7" -0.00104814352129794 -0.0010703877471893 -0.000290231153901389 -0.000652167062843908 -0.000601861877763101 -0.000679261813477473 -0.000631139854408762 -0.000284576052570583 -0.000840409571869129 -0.000657847925905847 -0.000155278515610826 -0.000714403215670733 -0.00129994477621732 -0.000936127626428419 -0.00104723824065739 -0.000538429559233095
"8" -0.00108832267579957 -0.00108508743512283 -0.000282850899017934 -0.000671214157738266 -0.000608797367125233 -0.000688707723649007 -0.000651776274716382 -0.000281135460171368 -0.000826311807886179 -0.000636306937319012 -0.00015094896995416 -0.000714830177826828 -0.00129333115207985 -0.000965978960975588 -0.00105207650064343 -0.000513775293896027
"9" -0.00112722280469834 -0.00109938516004298 -0.000275079726467866 -0.00068948042053779 -0.00061538057931008 -0.00069790207348465 -0.000671911257896496 -0.000277471723810063 -0.000810835689618328 -0.000614113694106866 -0.000146939377036489 -0.000713843533064929 -0.00128390829779801 -0.000996859851981914 -0.00105518153263958 -0.000489255432474859
"10" -0.00116473011215496 -0.00111317598312306 -0.000266942584333962 -0.000706882125820949 -0.000621578506976202 -0.000706766627172168 -0.000691468107210152 -0.000273596078995002 -0.000793948276583282 -0.00059148576784838 -0.000143297751453396 -0.000711462933366172 -0.00127166566650754 -0.00102854454465679 -0.00105640018850638 -0.000465185493658094
"11" -0.00120073006124725 -0.00112634764486144 -0.00025846605211071 -0.00072333985792027 -0.000627349743056959 -0.000715223736599518 -0.000710372179714432 -0.000269519114187456 -0.000775630261931669 -0.000568647479074586 -0.000140068393845984 -0.00070771887243975 -0.00125660288462963 -0.00106081100469824 -0.00105559270949198 -0.000441865724303326
"12" -0.00123512009650881 -0.00113879148352154 -0.000249680500330528 -0.000738780873612268 -0.000632660559552454 -0.000723188724287463 -0.000728550166112903 -0.000265255227150673 -0.000755868077305442 -0.000545818768032836 -0.00013728625681269 -0.000702644031075189 -0.00123873482706674 -0.00109342424011695 -0.00105262549095236 -0.000419578137336868
"13" -0.00126778947376063 -0.00115040343866651 -0.000240613425508864 -0.000753135763828759 -0.00063747203092635 -0.000730578207483333 -0.000745926055953085 -0.000260809773644196 -0.000734662564485615 -0.000523219950830909 -0.000134993184163927 -0.000696278564117483 -0.00121809044249459 -0.00112615088349291 -0.00104738077413479 -0.000398583089457793
"14" -0.0012986413940269 -0.00116107152221515 -0.000231297424704429 -0.0007663426960729 -0.000641742394512488 -0.00073730800953202 -0.000762423089998195 -0.00025619904342938 -0.000712020676959674 -0.000501067815293276 -0.000133213667883272 -0.000688669548939041 -0.00119471011010699 -0.00115874339353558 -0.00103975351675349 -0.000379111280138881
"15" -0.00132757419429832 -0.00117068883040972 -0.000221763802365461 -0.000778343222415344 -0.00064543854223021 -0.000743293508758379 -0.000777977914204288 -0.000251428174460634 -0.000687954166897555 -0.000479562372749212 -0.000131976926155149 -0.000679874729669908 -0.00116864876746254 -0.0011909481024034 -0.0010296372965716 -0.000361364305741
"16" -0.00135449826957441 -0.00117915149646129 -0.000212043078982601 -0.000789085560107261 -0.000648518751531371 -0.00074845165965708 -0.000792517229270638 -0.000246511061647402 -0.000662498594235239 -0.00045890915583421 -0.000131301171233904 -0.000669953102099243 -0.00113997333722414 -0.00122253056121451 -0.00101696520663963 -0.000345514885584346
"17" -0.00137932180604684 -0.00118636138371685 -0.000202170779897121 -0.000798524742591634 -0.000650949349025771 -0.000752701683091839 -0.0008059853347837 -0.000241450799162815 -0.000635682111272881 -0.000439290240531844 -0.000131201300763185 -0.000658972090493968 -0.00110876693382119 -0.00125323650240414 -0.00100166359196257 -0.000331697188878517
"18" -0.00140195945651677 -0.00119221608166966 -0.000192174444248345 -0.000806619206626549 -0.000652690244652042 -0.000755962823825957 -0.000818309948330057 -0.000236260746511752 -0.000607557994006367 -0.000420876099198762 -0.000131690801797321 -0.000647000178995912 -0.00107511832116624 -0.00128282796301363 -0.000983689895415007 -0.000320016086614047
"19" -0.00142233338378459 -0.00119662525483579 -0.000182090186705353 -0.000813340581350297 -0.000653712412523115 -0.000758159288333469 -0.000829449830710813 -0.000230946992775118 -0.000578178213395399 -0.000403825603958208 -0.000132773278450589 -0.000634116850179906 -0.00103913797170396 -0.00131105454151613 -0.000963011366232957 -0.000310534956794712
"20" -0.00144036758118424 -0.00119950080101145 -0.000171944183969234 -0.0008186608308488 -0.000653976594925321 -0.000759219494517405 -0.000839343446260181 -0.000225511775727929 -0.00054761167038996 -0.000388280736210178 -0.000134448099407194 -0.000620402283905533 -0.00100093629274395 -0.00133769700817173 -0.000939619356954884 -0.000303287729290705
"21" -0.00145599243103096 -0.00120076306110144 -0.000161768833079558 -0.000822558431690884 -0.000653452736054243 -0.000759074344327597 -0.000847945479486417 -0.000219967170964776 -0.000515928083440953 -0.000374361827250217 -0.000136711767656495 -0.000605939128766323 -0.000960645096091025 -0.00136252443713773 -0.000913518533274951 -0.000298272147010879
"22" -0.00146914760388102 -0.00120033760829763 -0.000151594463137803 -0.000825023674777894 -0.000652116344723202 -0.000757662334764592 -0.000855223262722368 -0.000214311313210074 -0.000483212117624229 -0.00036216928099684 -0.000139556365845105 -0.000590814646578215 -0.00091840429860354 -0.00138532237890812 -0.000884732529794829 -0.000295451439115872
"23" -0.00147977491884681 -0.00119815971337054 -0.000141448174809521 -0.000826052612730712 -0.000649937397579829 -0.000754927439408032 -0.000861135466817318 -0.000208549398278899 -0.000449552555171459 -0.000351787259279445 -0.000142965650121697 -0.000575118723956131 -0.00087435720114597 -0.0014058866854773 -0.000853308313070302 -0.000294757146875499
"24" -0.00148782913616401 -0.00119416904935803 -0.00013135637487165 -0.000825640406570496 -0.000646893775690265 -0.000750820758767022 -0.000865656091653761 -0.000202691615709093 -0.000415043179457558 -0.000343272876401603 -0.000146921987704338 -0.000558939666912413 -0.000828664478340626 -0.00142402649889064 -0.000819306784693728 -0.000296093714829296
"25" -0.00149326384609283 -0.0011883264767286 -0.00012134332893923 -0.000823802649093405 -0.000642963963271241 -0.000745298941301099 -0.000868758016767236 -0.00019673437596894 -0.000379791125425935 -0.000336665055614503 -0.000151405516382236 -0.000542367971158642 -0.000781493214520261 -0.00143957695825886 -0.000782814204130168 -0.000299336595649328
"26" -0.00149605010212649 -0.00118059307250744 -0.000111432966487442 -0.000820546560076936 -0.000638128326109262 -0.000738330040331826 -0.000870433033536723 -0.000190684574178478 -0.000343899278437544 -0.000331979467691661 -0.00015639234128529 -0.000525500559248509 -0.000733020303217117 -0.00145236476957671 -0.000743927333934659 -0.000304337897334251
"27" -0.0014961586787536 -0.00117094480646199 -0.000101647439360475 -0.000815901247175805 -0.000632372647915012 -0.000729886119261989 -0.000870665550140929 -0.000184542063509774 -0.000307482027073879 -0.00032921674907397 -0.000161851439152157 -0.000508422194740324 -0.000683423891371679 -0.00146226671914846 -0.00070276866684151 -0.00031093615829046
"28" -0.00149357851103585 -0.00115937134354109 -9.2001528909322e-05 -0.000809889449167773 -0.000625686373844136 -0.000719949754398282 -0.000869455460631377 -0.000178316632628506 -0.00027065264480859 -0.000328344119959362 -0.000167757042857654 -0.000491227209423641 -0.000632893261858723 -0.00146915010783744 -0.000659471056985739 -0.000318945147780745
"29" -0.00148830102322518 -0.00114587553225739 -8.25147732469156e-05 -0.000802548192316104 -0.000618061184705582 -0.000708515452051779 -0.000866801529431156 -0.000172009621290424 -0.000233533986221034 -0.00032931778338025 -0.000174074944529728 -0.000474000248325419 -0.000581620450531497 -0.00147292942868388 -0.000614196384075631 -0.000328174619020648
"30" -0.00148032904526125 -0.00113047005787264 -7.31980940838336e-05 -0.000793915783316213 -0.000609490414230478 -0.000695584466470729 -0.000862716049367671 -0.000165625385121471 -0.000196240272699189 -0.000332077195361006 -0.000180770635629799 -0.000456830665093095 -0.000529808195706099 -0.00147351910445579 -0.000567108836248765 -0.000338418832909089
"31" -0.00146967660114041 -0.00111318708863186 -6.4063595899071e-05 -0.000784042390483479 -0.000599975895460565 -0.000681165373894922 -0.000857210627082844 -0.000159172904040503 -0.000158896913408356 -0.00033653724858949 -0.000187816617541641 -0.000439797880924754 -0.000477650445677564 -0.00147087851928037 -0.000518397389912414 -0.000349474387197412
"32" -0.00145636842732186 -0.00109406437167363 -5.51180742446558e-05 -0.000772980153332147 -0.00058951734555154 -0.000665281553574117 -0.000850308816207124 -0.000152658640419448 -0.000121618262018636 -0.000342600074468671 -0.000195168010631991 -0.000422981817764883 -0.000425357031029473 -0.00146496699625522 -0.00046825636780056 -0.000361131300895783
"33" -0.00144043748619161 -0.00107316507201025 -4.63657968516311e-05 -0.000760786428697029 -0.000578120998131126 -0.000647964556480522 -0.000842037181155005 -0.000146089783262975 -8.45338559735206e-05 -0.00035015823187413 -0.000202800955844151 -0.000406454261866034 -0.000373125405245649 -0.00145579833015835 -0.000416904319331953 -0.000373190665047699
"34" -0.00142193192174644 -0.00105055773212955 -3.78117898884819e-05 -0.000747523433429528 -0.000565795608212415 -0.000629253434610025 -0.000832423577687443 -0.000139476977437754 -4.77528080489829e-05 -0.000359084301990015 -0.000210672132825451 -0.000390285674110134 -0.000321161355630357 -0.00144338527962392 -0.000364558472906929 -0.000385451321524158
"35" -0.00140090727178814 -0.0010263255842428 -2.94530207149414e-05 -0.000733259287464552 -0.000552555822771654 -0.000609200112124483 -0.000821511824919278 -0.000132832953589259 -1.13951510302566e-05 -0.00036924661512887 -0.000218756746983958 -0.00037454017332894 -0.000269666946608937 -0.00142778154141482 -0.000311452130327021 -0.000397730954174413
"36" -0.00137743102763402 -0.00100057170357075 -2.12871817732231e-05 -0.000718069127693815 -0.000538414221885134 -0.000587866117083907 -0.000809337170355417 -0.000126169905349099 2.44314384896306e-05 -0.000380506125617018 -0.000227016454733813 -0.000359273165601816 -0.00021884122686416 -0.00140905912547225 -0.000257820272174864 -0.000409856542785953
"37" -0.00135158284458774 -0.000973406213447876 -1.33054170861625e-05 -0.000702026744271872 -0.000523392698760378 -0.00056532329807173 -0.00079595137207824 -0.000119503233714174 5.96172312100412e-05 -0.000392714324933607 -0.000235423847457546 -0.000344538305597547 -0.000168878203552933 -0.00138732163805003 -0.000203911179988943 -0.000421674315935364
"38" -0.00132345383001314 -0.000944954976944207 -5.50323967336181e-06 -0.000685212928097654 -0.000507514090049781 -0.000541647631592273 -0.000781401213504732 -0.000112849556509896 9.40572238583794e-05 -0.000405721488181111 -0.000243949380269441 -0.000330376906196819 -0.000119962644106704 -0.0013626966453265 -0.000149972305396578 -0.000433048225791165
"39" -0.00129314719615668 -0.000915351769076937 2.13203160815598e-06 -0.000667712805424239 -0.000490806231021178 -0.000516929344163472 -0.000765743309318414 -0.000106227757338099 0.000127659787506694 -0.000419376717586914 -0.000252565951216745 -0.000316828406093386 -7.22796406014128e-05 -0.00133531991298541 -9.62447076313538e-05 -0.000443859171277008
"40" -0.00126076975925039 -0.000884746538500529 9.61325796061705e-06 -0.00064960916932571 -0.000473293453585298 -0.00049126355022388 -0.000749033567923625 -9.96569707849263e-05 0.000160328285695588 -0.000433530522786502 -0.000261250468611052 -0.000303922867687371 -2.6001690405131e-05 -0.00130537552853934 -4.2980048873821e-05 -0.000454018976288625
"41" -0.00122644970619791 -0.000853294436622832 1.69555498294241e-05 -0.000630992731386127 -0.000455010413438788 -0.000464756077811119 -0.000731337427265092 -9.31582577722049e-05 0.000191980955579979 -0.000448035291328455 -0.000269980079221853 -0.000291685139910309 1.87071012610626e-05 -0.00127304299026738 9.583630333468e-06 -0.000463451149863994
"42" -0.00119031550285385 -0.000821159138821693 2.41730079200604e-05 -0.000611951596552202 -0.000435993757047721 -0.000437518115641339 -0.000712715602902417 -8.6758521709008e-05 0.000222542889811299 -0.00046274861579312 -0.000278732755587885 -0.000280131023612782 6.16963380268315e-05 -0.00123853378294478 6.12082211606992e-05 -0.000472111129517303
"43" -0.0011525126573366 -0.000788513614810694 3.12845713005821e-05 -0.000592575120387196 -0.000416283710228794 -0.000409666134174568 -0.000693235576387705 -8.04772497274073e-05 0.000251940458270266 -0.000477530903959739 -0.000287490938196106 -0.000269267573317444 0.000102822375979786 -0.00120207094621656 0.00011166921900015 -0.000479976287059186
"44" -0.00111319073015199 -0.000755536060916146 3.83081411132422e-05 -0.000572956150056629 -0.000395916209962462 -0.000381325448831492 -0.000672965956759558 -7.4343328879178e-05 0.000280108157029033 -0.000492258499441801 -0.000296242384330222 -0.000259097292510499 0.000141961492384213 -0.00116390355579074 0.000160745345862474 -0.000487045185161946
"45" -0.00107250996123243 -0.00072240730784489 4.52621846951848e-05 -0.000553185941508766 -0.000374937248688731 -0.000352620401716859 -0.000651979951943159 -6.83797860017096e-05 0.000306996757677269 -0.000506805250612154 -0.000304969554670095 -0.000249615267084776 0.000178998841142566 -0.00112427627059673 0.000208234622564811 -0.00049334156926522
"46" -0.0010306359395732 -0.000689309838623051 5.21636208127775e-05 -0.000533350486497401 -0.000353394701395638 -0.000323684356203059 -0.000630348888880389 -6.26162905862385e-05 0.0003325566612462 -0.000521059518178521 -0.000313659836638413 -0.000240810701169402 0.000213833643340975 -0.0010834502042726 0.000253951891092744 -0.000498908604867025
"47" -0.000987740593080783 -0.000656424780543249 5.90328766206744e-05 -0.000513543026334474 -0.000331332436738227 -0.000294648390014769 -0.000608141588199795 -5.70822322626274e-05 0.000356749594098053 -0.00053492814885325 -0.000322305071841128 -0.000232662314393366 0.000246384627722736 -0.00104170297273838 0.000297718578919277 -0.000503815645188993
"48" -0.000944006015601112 -0.000623938989008626 6.58893540116853e-05 -0.000493845286741243 -0.000308805236172893 -0.000265650163823772 -0.000585434903879513 -5.180229066121e-05 0.0003795379505665 -0.000548318351157493 -0.000330891226213452 -0.000225146192586984 0.000276584557906853 -0.000999310726667122 0.000339381244548755 -0.000508149448719545
"49" -0.000899614733703637 -0.00059202796572488 7.27488453866004e-05 -0.00047434290063615 -0.000285860346404122 -0.000236824848614217 -0.000562300708834854 -4.68068430700731e-05 0.0004009040851603 -0.000561148369618031 -0.000339415924623275 -0.000218230345627625 0.000304382826143976 -0.000956549562114507 0.000378804864506166 -0.000512013500854469
"50" -0.000854749866060298 -0.00056086613989458 7.96298805749141e-05 -0.000455114901778021 -0.000262554310615789 -0.000208304098444905 -0.000538815184832029 -4.21264033007771e-05 0.000420825938674473 -0.000573356815260898 -0.000347864170777743 -0.000211879561106292 0.000329745856234962 -0.00091369780667881 0.000415877979513611 -0.000515531941697879
"51" -0.000809601571631416 -0.000530620267397817 8.65453997907494e-05 -0.0004362400080439 -0.000238941592345108 -0.000180224546120782 -0.000515045706327946 -3.7781714663029e-05 0.000439297450294317 -0.000584880347056069 -0.000356228342424537 -0.000206050286427064 0.000352656231026963 -0.000871025693766253 0.000450510007057626 -0.000518834912701125
"52" -0.000764360558763003 -0.000501449972724147 9.35069915999881e-05 -0.000417785932802324 -0.000215076477463415 -0.00015271211291951 -0.000491063405338285 -3.38053672142038e-05 0.000456316587178545 -0.000595678939247054 -0.000364503500260286 -0.000200700641848059 0.00037311266762527 -0.000828809134226097 0.000482630406726755 -0.000522072161848543
"53" -0.000719215176402 -0.000473498646049025 0.000100529063556297 -0.000399821508183649 -0.000191017548211327 -0.000125891897547282 -0.000466940334029636 -3.02190231922618e-05 0.000471886292708525 -0.000605718957843715 -0.00037267603360941 -0.000195779776227137 0.000391134546487588 -0.000787305957529649 0.000512193978375995 -0.000525395024144349
"54" -0.000674350933631546 -0.0004469079558886 0.000107621159350149 -0.00038240772955201 -0.000166818377536694 -9.98840923313657e-05 -0.000442743441749466 -2.70511411064831e-05 0.000486017128572568 -0.000614977329787086 -0.000380736717451229 -0.000191234398721769 0.00040675276994106 -0.000746767002061304 0.000539179286691289 -0.000528962606482444
"55" -0.000629951868636288 -0.000421797917186098 0.000114788097087261 -0.00036559774030529 -0.000142539989372869 -7.47987056515663e-05 -0.000418539489930686 -2.43216993933378e-05 0.000498727748056119 -0.00062343128492354 -0.000388676817661415 -0.000187010309314232 0.000420015065954145 -0.000707433762571811 0.000563585108214367 -0.000532937231059712
"56" -0.000586196572202435 -0.000398277854606856 0.00012203688359607 -0.000349440512177536 -0.000118233934741146 -5.0742322918037e-05 -0.000394387455634659 -2.20526990800842e-05 0.000510034994023393 -0.000631082110293593 -0.00039647812068605 -0.000183044141971336 0.000430989882536683 -0.000669531784512046 0.000585438836445387 -0.000537476941763178
"57" -0.000543260533046683 -0.000376439643948231 0.000129370611113052 -0.000333975686416477 -9.39597470964857e-05 -2.78124740020774e-05 -0.000370344567848424 -2.02594964836596e-05 0.000519973227987861 -0.000637929662326569 -0.000404131774853978 -0.000179282583285929 0.000439749915260684 -0.000633268406441123 0.000604782500037839 -0.000542735981918928
"58" -0.000501305308722138 -0.000356361565685815 0.000136788267603548 -0.000319237288529258 -6.97723604912326e-05 -6.09262820422225e-06 -0.000346469018196141 -1.89650225200798e-05 0.000528571799120163 -0.000643978052885773 -0.000411616966315611 -0.000175665136472216 0.000446391366612044 -0.000598829966308122 0.00062168633587285 -0.000548861905996314
"59" -0.000460486433573699 -0.000338102774734682 0.000144286363895429 -0.000305250999250219 -4.57218912580666e-05 1.43434800090333e-05 -0.000322811594553361 -1.81752208823593e-05 0.000535866386288624 -0.000649248131974383 -0.000418915265502529 -0.000172128236535286 0.000451016097357874 -0.000566396208631848 0.000636233354458437 -0.000555993009162634
"60" -0.000420954656485857 -0.000321699415690763 0.000151861988634708 -0.000292036849707918 -2.18669101727354e-05 3.34277152747157e-05 -0.000299421540584948 -1.79049789759325e-05 0.000541901236448756 -0.000653750846105954 -0.000426005529928662 -0.000168615599450853 0.000453743823738113 -0.000536106541083579 0.000648535648452275 -0.000564247652158525
"61" -0.000382840952684724 -0.000307178086162609 0.000159507504341607 -0.000279604612388993 1.74813185153051e-06 5.11103734821411e-05 -0.000276338215378122 -1.81625281481673e-05 0.000546720298426001 -0.000657513633121614 -0.000432867796639026 -0.000165062925814463 0.000454701690731992 -0.000508093850647208 0.000658712095328011 -0.000573733625779621
"62" -0.000346266185896327 -0.000294542653074992 0.000167213589514429 -0.000267952858294299 2.50723771185735e-05 6.73537591100433e-05 -0.000253600644243464 -1.89500182494072e-05 0.00055036816472423 -0.000660562689003722 -0.000439474080429001 -0.000161412617016347 0.00045402591643251 -0.000482469240291807 0.000666899950624002 -0.000584535988332953
"63" -0.000311345360934612 -0.000283778139949134 0.000174969475847121 -0.00025707799393606 4.80609578920585e-05 8.21303157765827e-05 -0.000231242583627311 -2.02662566550446e-05 0.000552900128952526 -0.000662927975605006 -0.000445800122649853 -0.000157610298167571 0.000451863333791298 -0.000459309955175951 0.000673253044699854 -0.000596714808935588
"64" -0.000278165780611813 -0.000274850740709585 0.000182760535271667 -0.000246967041516939 7.06707435027047e-05 9.54245184666954e-05 -0.000209293752225457 -2.211295765454e-05 0.000554370105497083 -0.000664629244137746 -0.000451815597344422 -0.000153602792757124 0.000448369822240773 -0.0004386722760729 0.000677939305914706 -0.000610311115704139
"65" -0.000246811459633916 -0.000267710190918958 0.000190574599677599 -0.000237594729699371 9.2862476288239e-05 0.000107240875531254 -0.000187775831470736 -2.44798621073423e-05 0.000554828904125799 -0.000665707685067662 -0.000457491767206315 -0.000149335572963779 0.000443700625983981 -0.00042060341034654 0.000681125685142194 -0.000625338661300779
"66" -0.000217342869459378 -0.000262285999671782 0.000198390848729911 -0.000228935037400857 0.000114596737715809 0.000117589435392909 -0.000166707183774584 -2.73563586520188e-05 0.000554340273090882 -0.000666182118443854 -0.000462793595231995 -0.000144761761181081 0.000438026494676257 -0.000405105490487714 0.000682999019136663 -0.000641779478633796
"67" -0.000189807704115992 -0.000258498634748763 0.000206196976889411 -0.000220949266110683 0.000135847040512467 0.00012649944943588 -0.000146097951240427 -3.07292545771569e-05 0.000552957243591959 -0.000666090118199145 -0.000467693030874312 -0.000139831530053609 0.000431514553660954 -0.000392179584091415 0.000683745491820648 -0.000659593758152071
"68" -0.000164235295616388 -0.000256245216185223 0.000213971238726149 -0.00021359457884836 0.000156574337985928 0.000134006024570532 -0.000125957895429177 -3.45808609176215e-05 0.000550744513486689 -0.000665450876360154 -0.000472158689325674 -0.000134508073977905 0.000424338792268287 -0.000381784680920303 0.000683552571532081 -0.000678708535184635
"69" -0.000140644126362448 -0.000255414197311682 0.000221694096699808 -0.000206821974577205 0.000176761368973233 0.000140165651760931 -0.000106292473564866 -3.88852008174081e-05 0.00054775848557861 -0.000664294452556314 -0.000476150713092258 -0.00012875017454336 0.000416679144693446 -0.000373876994959181 0.000682614285550674 -0.000699024137419015
"70" -0.000119028375579693 -0.000255873400320238 0.000229347426627236 -0.000200571921506084 0.00019638034084872 0.000145038084459582 -8.70998803096717e-05 -4.36200015578608e-05 0.000544066429124675 -0.000662637727739016 -0.000479642323306294 -0.000122523884406898 0.000408702825640626 -0.000368373217779794 0.000681127111927548 -0.000720413920364699
"71" -9.93693513636284e-05 -0.000257489264738946 0.000236910624876865 -0.000194787696503391 0.000215414801584776 0.000148698604125716 -6.83657250386095e-05 -4.87526118764476e-05 0.000539723311678018 -0.000660508034174213 -0.000482599669995769 -0.00011579701921692 0.000400596280710425 -0.000365195173016053 0.00067927090616226 -0.000742729842850876
"72" -8.16355876488647e-05 -0.000260109688867884 0.000244360349660873 -0.000189400698221869 0.000233847074517927 0.00015123118130291 -5.00910902196949e-05 -5.42503155814303e-05 0.000534798220694629 -0.000657912019704423 -0.000484992929337222 -0.000108550069803973 0.000392528243350454 -0.000364214819390042 0.000677242860196011 -0.000765795371193036
"73" -6.5773903975158e-05 -0.000263583494976951 0.000251681524450806 -0.000184342664509149 0.000251669645770677 0.000152727243052594 -3.22498351604081e-05 -6.00755346761508e-05 0.00052934327370058 -0.000654873010001482 -0.000486792556403169 -0.000100750843403791 0.000384679425181185 -0.000365323139679765 0.000675215848054846 -0.000789416350209199
"74" -5.17250226808121e-05 -0.000267740832490417 0.000258851025141019 -0.000179541714491091 0.000268873146422875 0.000153289699530411 -1.48338723841454e-05 -6.61866087403884e-05 0.000523427309391952 -0.000651394329995256 -0.000487971066760565 -9.23874345003299e-05 0.00037722263874096 -0.000368361320352421 0.000673367374817871 -0.000813379189119724
"75" -3.94062957086201e-05 -0.000272420820641725 0.00026585218215432 -0.000174919846430494 0.000285452343908909 0.000153025285961178 2.18723008473196e-06 -7.25432449684579e-05 0.000517104552482436 -0.000647489893147878 -0.000488505955677575 -8.34414592102546e-05 0.000370327302063514 -0.000373193520494205 0.000671852931224086 -0.000837455001332168
"76" -2.8734756421559e-05 -0.00027744789175987 0.000272663752702169 -0.000170401848024766 0.000301408339026791 0.00015204888640046 1.88307682301654e-05 -7.90943047185426e-05 0.000510436215961493 -0.000643164242424834 -0.000488374251059787 -7.39057896932263e-05 0.000364159767998581 -0.000379633189935555 0.000670834099061264 -0.000861401064782278
"77" -1.96071315959513e-05 -0.000282649542794618 0.00027926729955517 -0.000165908945617414 0.000316740431741111 0.000150476381744562 3.51319257691571e-05 -8.57922739498411e-05 0.000503480825533737 -0.000638416928717587 -0.000487558357103325 -6.37736328002672e-05 0.000358883002563942 -0.00038751333386987 0.000670449445759113 -0.000884968995490982
"78" -1.19111597252564e-05 -0.00028785739533846 0.000285651396240998 -0.000161366291132373 0.000331454674311607 0.000148430845964945 5.11124396084448e-05 -9.25881242098086e-05 0.000496290901166746 -0.000633255768261212 -0.000486043044935458 -5.30404455557137e-05 0.000354657067559276 -0.00039664915692243 0.000670829405592885 -0.000907905994696484
"79" -5.53021832200753e-06 -0.000292899467418087 0.000291794153572447 -0.00015669184606671 0.00034555658690115 0.000146033855240846 6.68049411022626e-05 -9.9426635924059e-05 0.00048892628704085 -0.000627673531949634 -0.000483823159260664 -4.17026776336333e-05 0.00035163260896344 -0.000406845197157662 0.000672090691845369 -0.000929960138510493
"80" -3.39700515722033e-07 -0.00029761335372688 0.000297686493250818 -0.000151813207401376 0.000359054975827727 0.000143410726977712 8.22395620253161e-05 -0.000106256234428327 0.000481435761034039 -0.000621670499324394 -0.000480888647939531 -2.97695553212984e-05 0.000349958505679453 -0.000417910113260788 0.000674332138616588 -0.000950882583156272
"81" 3.79326319878196e-06 -0.000301838961023522 0.000303313026705618 -0.000146656584904178 0.000371964623176298 0.000140681792074268 9.74526746956716e-05 -0.000113015140368457 0.00047386896728868 -0.000615247188952696 -0.000477244413940592 -1.72437895174705e-05 0.000349773202182498 -0.000429644561362525 0.000677642141736272 -0.000970436407800888
"82" 7.00403587132204e-06 -0.00030542835826402 0.000308664138625361 -0.000141150001065504 0.00038429757130595 0.000137968770658997 0.000112473811092506 -0.000119653203976003 0.00046627237495067 -0.000608397947829188 -0.000472889936119864 -4.13271327036736e-06 0.000351218648935321 -0.000441862679384164 0.000682084489863937 -0.000988396709101377
"83" 9.42844179713852e-06 -0.000308235799951573 0.000313726964085037 -0.000135228967161096 0.000396067247882225 0.000135388700106026 0.000127332022104717 -0.000126112407655151 0.000458694645911973 -0.000601118669282011 -0.000467836592155298 9.55536399812595e-06 0.00035441281371475 -0.000454355226633775 0.000687720298563176 -0.00100455190212003
"84" 1.12073234534165e-05 -0.000310130704577588 0.000318497136580097 -0.000128828552058772 0.000407291833569183 0.000133053518794929 0.000142065897543209 -0.000132336151944782 0.000451177857274886 -0.000593408920230455 -0.000462097717766196 2.38045829819175e-05 0.000359483652357901 -0.00046694424955534 0.000694581770858959 -0.00101871371826644
"85" 1.24761693856495e-05 -0.000310993901227103 0.000322964961312517 -0.000121893067442306 0.000417983416292944 0.000131073174481661 0.000156697873935762 -0.000138267524405866 0.000443756749414484 -0.000585266016903661 -0.000455697550645625 3.8602655090624e-05 0.000366537753774727 -0.000479439178785042 0.000702689080350686 -0.00103071136661733
"86" 1.33734314186755e-05 -0.000310716555548864 0.00032712717268537 -0.000114370779163837 0.000428162363755174 0.000129545703789439 0.000171261920265437 -0.000143855880199117 0.00043647039281729 -0.000576691911951445 -0.000448656661659427 5.39371014063636e-05 0.000375678214132379 -0.000491668346000027 0.000712041709520594 -0.00104040589237267
"87" 1.40302127983167e-05 -0.000309209419903451 0.000330978390178759 -0.000106212357458675 0.000437842378144892 0.000128564925343826 0.000185779292681645 -0.000149046715239353 0.000429350264826404 -0.000567681371846162 -0.000441004239832969 6.9787946291581e-05 0.000387003347079804 -0.000503462646139516 0.000722632956472317 -0.00104767805062945
"88" 1.45795940183543e-05 -0.000306389850841395 0.000334517853628573 -9.73816707212296e-05 0.000447045215311673 0.000128215170344749 0.000200276674165007 -0.000153789731192865 0.000422424545595163 -0.000558245202331194 -0.000432776525251601 8.61437553878494e-05 0.000400593957916242 -0.00051467367331913 0.000734421284153277 -0.00105244035208647
"89" 1.51364417530885e-05 -0.000302200069296442 0.000337745476779765 -8.78424981608929e-05 0.000455783546926773 0.000128569980591569 0.000214774565821104 -0.000158038449679432 0.000415715141335886 -0.000548385204075396 -0.000424010378558638 0.000102988089463788 0.000416526382384405 -0.000525160123648755 0.00074736382904579 -0.00105463376938535
"90" 1.58224830878112e-05 -0.000296589329937883 0.000340664199712349 -7.75708333158019e-05 0.000464075615587541 0.00012969681245901 0.000229295292848241 -0.00016174676739179 0.000409244670524713 -0.00053810663973738 -0.00041474805381331 0.000120300455913999 0.000434866501756957 -0.000534797387142365 0.000761393346101693 -0.00105422947467983
"91" 1.67450595753226e-05 -0.000289530516587722 0.000343273096410482 -6.65483264138814e-05 0.000471934848195065 0.00013164461517319 0.000243848178507332 -0.000164874361791409 0.000403027196484032 -0.000527419711120005 -0.000405033443400927 0.000138066684101295 0.000455661179123841 -0.000543475511298899 0.000776431540211084 -0.0010512294857226
"92" 1.80014591087576e-05 -0.000281009554929148 0.000345580935302608 -5.4759305453185e-05 0.000479377094688539 0.000134458910519329 0.000258450690455534 -0.000167383394874204 0.00039707270391547 -0.000516336177311 -0.00039491750448038 0.000156271623055889 0.000478954834972792 -0.000551114677904309 0.000792379533031993 -0.00104566180155545
"93" 1.96841955038839e-05 -0.000271029330711251 0.000347592274878999 -4.22051200526578e-05 0.000486417402173731 0.000138171416611992 0.000273107618952341 -0.000169241658484265 0.000391386895520031 -0.000504868643623166 -0.000384447558026357 0.00017490025341655 0.000504772754688827 -0.000557637669433469 0.000809125216690287 -0.00103758759899899
"94" 2.18711847849341e-05 -0.000259607308343621 0.000349313983557193 -2.88843243159725e-05 0.00049306477991794 0.000142796179581325 0.000287823586502154 -0.000170421023537734 0.000385971250839652 -0.00049303070699144 -0.000373675912728554 0.000193937149076012 0.000533132289190474 -0.000562997905172476 0.000826546739464513 -0.00102709343531112
"95" 2.46348400561257e-05 -0.000246782220178987 0.000350754066630853 -1.48083235048133e-05 0.000499328954262004 0.000148342472083996 0.000302600067869301 -0.000170896125130344 0.000380821190855079 -0.000480834307396643 -0.000362653639493674 0.000213368258846258 0.000564030126410892 -0.000567168260399749 0.00084450830767432 -0.00101428777408721
"96" 2.80352227089905e-05 -0.000232601015592591 0.000351924086874283 5.39573793432615e-09 0.000505218835419751 0.000154805682086826 0.000317436713369996 -0.00017065137987454 0.000375927049661066 -0.000468298335899267 -0.000351434341646924 0.000233178922301379 0.000597454789966777 -0.000570137311030631 0.000862860485229756 -0.00099930780410492
"97" 3.21205100997212e-05 -0.00021713336365563 0.00035283709344601 1.55347797263637e-05 0.000510743326329334 0.000162160284616279 0.000332326979994776 -0.000169671924918298 0.000371269816620624 -0.000455436205882942 -0.000340071029208137 0.000253359011549558 0.000633376702082899 -0.000571933685783747 0.000881444184704862 -0.000982312382830105
"98" 3.69286835852674e-05 -0.000200458960638296 0.000353505718942345 3.17460391994957e-05 0.000515907211406052 0.000170382794182948 0.000347255193140989 -0.000167951117627033 0.000366833955118017 -0.000442261593705099 -0.000328610278957863 0.000273897603911783 0.000671742884285537 -0.000572588443938878 0.000900091791801158 -0.000963475036105451
"99" 4.24893111833425e-05 -0.000182665815856995 0.000353938270744189 4.86034735385522e-05 0.000520709901797077 0.000179424407590761 0.000362211925725245 -0.000165487266212437 0.000362592877333226 -0.000428786146459917 -0.000317099029769608 0.000294779554383525 0.00071249617420307 -0.000572160209509666 0.000918631832868791 -0.000942989034016683
"100" 4.88170672633372e-05 -0.000163863329675097 0.000354155214564578 6.60658812925274e-05 0.000525157156836581 0.000189231854416042 0.000377178937927014 -0.000162285350783688 0.000358514454409086 -0.00041502512785222 -0.000305584457155014 0.000315998363836004 0.000755549956607056 -0.000570743379666222 0.000936877864180765 -0.000921064828304618
"101" 5.59201410307826e-05 -0.000144162070233913 0.000354170229912982 8.40883655336313e-05 0.000529246227731707 0.000199738478588612 0.000392133784237613 -0.000158358552762333 0.00035456207556089 -0.000400983115290328 -0.000294105254383169 0.000337542190583698 0.000800809725306613 -0.00056843636501191 0.000954647651635673 -0.000897918050631576
"102" 6.37994832454923e-05 -0.000123689464744654 0.000353998759784384 0.000102614145857412 0.000532974383121367 0.000210866236781115 0.000407053049372994 -0.000153718734598736 0.000350695202329656 -0.000386666355124224 -0.00028269679358398 0.000359399954345709 0.000848148440751675 -0.000565366789091029 0.000971752550126904 -0.000873776651037528
"103" 7.24386178140964e-05 -0.000102574236209294 0.000353659005898788 0.00012159090496182 0.000536338567502152 0.000222531367002557 0.000421909504299984 -0.000148391162866046 0.000346870223037337 -0.000372071890395758 -0.000271391512120673 0.00038156133962392 0.00089743152393836 -0.000561678744506237 0.000988004420798055 -0.000848872706112118
"104" 8.18238005336861e-05 -8.09532150470961e-05 0.000353168333991033 0.000140959217134218 0.000539330630750879 0.000234633799481723 0.000436669396227556 -0.000142402107554689 0.000343034732721973 -0.000357197194147313 -0.000260211898953881 0.000404019719529658 0.000948499513825098 -0.000557541140336614 0.00100321223476913 -0.000823442454031976
"105" 9.19224641618168e-05 -5.89699717625015e-05 0.000352542292785403 0.00016065575711998 0.000541947318334127 0.000247070646114843 0.000451299446223402 -0.000135787447310037 0.000339138043862912 -0.000342025592182886 -0.000249179468222411 0.000426759105591614 0.00100117107365891 -0.000553133189297147 0.00101719062140474 -0.000797718755178524
"106" 0.00010270467441912 -3.67691221317738e-05 0.000351801888230274 0.000180618609950269 0.000544179255157605 0.000259730716438712 0.000465764776420035 -0.000128587563980331 0.000335121169683162 -0.000326547818372366 -0.000238299816750851 0.000449770648436735 0.00105524900547084 -0.000548658947909471 0.00102975322581767 -0.000771934587759964
"107" 0.000114124133922731 -1.44977491181741e-05 0.000350966834873175 0.000200780143954538 0.000546013339741839 0.000272491456024586 0.000480032558520875 -0.000120841198602322 0.000330923564961444 -0.000310734291043186 -0.000227582994058644 0.000473039297390898 0.00111050918019299 -0.000544323642656126 0.00104072597023019 -0.000746313791887444
"108" 0.000126140866248548 7.70414493341435e-06 0.000350048069477118 0.000221078470654558 0.000547442612464245 0.000285233589169756 0.000494058119131532 -0.000112606394347416 0.000326484296612622 -0.000294550468510879 -0.000217019038904981 0.000496547436307479 0.00116671297936081 -0.000540345962514921 0.00104993998979643 -0.000721069230771751
"109" 0.000138700725879717 2.96890748148187e-05 0.00034906946440602 0.000241444429380756 0.000548449616935007 0.000297827269993441 0.000507800359436508 -0.000103928669010609 0.000321741547914918 -0.000277960044024422 -0.000206602494529408 0.000520280785847002 0.0012235942000561 -0.00053695543539639 0.00105723121255764 -0.00069640360621342
"110" 0.000151753630328695 5.13210894845372e-05 0.000348048094607909 0.000261814041336279 0.000549025963598861 0.000310142954688811 0.000521219048404435 -9.48698851402828e-05 0.000316628545174129 -0.000260917615662023 -0.000196313544065735 0.000544216330243581 0.00128087453496331 -0.000534395324707998 0.00106244871251497 -0.000672503143863114
"111" 0.000165237368299789 7.2464907136741e-05 0.000346999097495571 0.000282121774031046 0.000549158659868569 0.000322049440441819 0.000534268339554543 -8.54930415534271e-05 0.000311081713202559 -0.000243361884982423 -0.000186123718918832 0.000568330189209104 0.00133825860695292 -0.000532899947889881 0.00106545434254381 -0.000649535690000085
"112" 0.000179099383939944 9.29965266634447e-05 0.000345936715510778 0.000302308697227484 0.000548831580401059 0.000333413999178198 0.000546910692234436 -7.58603331895681e-05 0.00030503949075472 -0.000225234170632627 -0.000175998835732777 0.000592598232486323 0.0013954252687788 -0.000532702642832479 0.00106612320467347 -0.000627645855093224
"113" 0.000193279313224445 0.00011279472145953 0.000344882472818363 0.000322315745900294 0.00054803560357323 0.000344105654593754 0.000559101888267636 -6.60397350194203e-05 0.000298435381474639 -0.000206463896525183 -0.000165903789329556 0.000616991491908364 0.00145204594000217 -0.000534049947159571 0.0010643407626582 -0.000606964582793085
"114" 0.000207713098415532 0.000131752553951974 0.000343845834872603 0.000342084246021985 0.000546754727312748 0.0003539987570514 0.000570796926092622 -5.60986786340844e-05 0.000291209459538649 -0.000186977622709274 -0.000155785552423175 0.000641473881182113 0.00150777410399278 -0.000537168318651915 0.00106000686520555 -0.000587585458708093
"115" 0.000222347113191414 0.000149774395993207 0.000342840506524704 0.000361561426702566 0.000544975447807289 0.000362970761265763 0.000581954836295272 -4.61110251563122e-05 0.000283313687277225 -0.000166684336194983 -0.000145593808669743 0.000666005404816124 0.00156225643906834 -0.000542268824862483 0.00105305138851936 -0.00056958199907011
"116" 0.000237123970965658 0.000166771427651047 0.000341879513494267 0.000380697924965664 0.000542687782824049 0.000370901155960848 0.000592538217104632 -3.61423331397724e-05 0.000274688361086745 -0.000145507491469642 -0.000135270875336259 0.000690547171689937 0.00161512612380749 -0.000549574775836911 0.00104340057185423 -0.000552999282975529
"117" 0.000251983630258308 0.00018266805434241 0.000340974459762481 0.000399452363925507 0.000539882946716275 0.000377680184302916 0.0006025032417377 -2.62693601101439e-05 0.000265287475424993 -0.000123348990595401 -0.000124751039108318 0.000715051265295938 0.00166601449911995 -0.000559274434533862 0.00103101124512365 -0.000537850437324505
"118" 0.000266874524925831 0.000197404978754446 0.000340135455392739 0.00041777831113663 0.000536547646488819 0.000383207909961247 0.000611816468504931 -1.65602273963216e-05 0.000255070955804448 -0.000100116390902123 -0.000113974820660141 0.000739465837564178 0.00171454646216703 -0.000571550596087041 0.00101585728044498 -0.000524118384709977
"119" 0.000281749581155627 0.000210934560484611 0.000339364014968801 0.000435643599186348 0.000532677802872691 0.00038738947334443 0.000620440115008358 -7.08598688193335e-06 0.000244001942852351 -7.57149903204004e-05 -0.000102867601702836 0.000763735323519362 0.00176034972652598 -0.000586559442865827 0.000997924194729642 -0.000511754594093752
"120" 0.000296557381941306 0.000223220699954495 0.000338673377538466 0.00045301266781318 0.000528261031922863 0.000390141811289929 0.000628344130678008 2.08694645727318e-06 0.000232052671522178 -5.00471003764109e-05 -9.13631677853517e-05 0.000787800519679754 0.00180306006478983 -0.000604441012928028 0.00097722126131063 -0.000500681068436444
"121" 0.000311257905544364 0.000234243808451544 0.000338061871643489 0.000469861458929347 0.000523297789111221 0.000391395052414544 0.000635500593609621 1.08920982818319e-05 0.000219205827400669 -2.30238901941443e-05 -7.93886652598128e-05 0.000811597102702208 0.00184231769495467 -0.000625301540415526 0.000953776218982616 -0.000490785931096062
"122" 0.000325809007923869 0.00024399840250679 0.000337534721100594 0.00048616471114416 0.000517783578669691 0.000391090150030603 0.000641875391384391 1.92665992344943e-05 0.000205453484529165 5.45065089406332e-06 -6.68742136487994e-05 0.000835055778574512 0.00187777461676966 -0.000649222388121116 0.000927636218798091 -0.000481930750429121
"123" 0.000340179207874871 0.000252489316830244 0.000337091076367702 0.000501907757448745 0.000511716117831139 0.000389183636181621 0.000647449488281983 2.71575830903318e-05 0.00019078926733745 3.54595330904113e-05 -5.37556425585291e-05 0.000858105585882493 0.00190910458051996 -0.000676270372098782 0.000898858626979417 -0.000473949385520791
"124" 0.000354336098363084 0.000259737936827913 0.00033672890442356 0.00051707127134536 0.000505097218953015 0.000385641106065773 0.000652203923561956 3.45022338247426e-05 0.000175219212228391 6.70795774253983e-05 -3.99681845893993e-05 0.000880672295192597 0.00193599810852429 -0.000706472344191117 0.000867522025392463 -0.0004666476035553
"125" 0.000368249276443136 0.000265772213451063 0.000336444748991418 0.000531647259611387 0.000497932134742807 0.000380447344666286 0.000656116164350682 4.12572273529468e-05 0.000158770148159335 0.000100381213611503 -2.54515187725247e-05 0.000902679405220799 0.00195816918120436 -0.00073981963927696 0.000833728525668402 -0.000459810120175329
"126" 0.000381899861909177 0.00027063523771575 0.000336233072634084 0.000545627223723356 0.000490225702326835 0.000373601253499909 0.000659177788397017 4.73735945267246e-05 0.000141459590036991 0.000135423759157265 -1.0148602304685e-05 0.000924046865716586 0.00197537013482052 -0.000776288056684251 0.000797583559825477 -0.000453199648001278
"127" 0.000395264878291578 0.000274382030835938 0.000336087152216885 0.00055900814665849 0.000481987936662795 0.000365114142010958 0.000661376129040908 5.28141478968499e-05 0.000123331780706193 0.000172249893375588 5.98436107347041e-06 0.000944695549492386 0.00198737330806178 -0.000815807549446904 0.000759218102661229 -0.000446558663309874
"128" 0.000408331593173346 0.000277077859608029 0.000335994567459105 0.000571790606923054 0.000473226512835441 0.000355012698194721 0.000662706862821548 5.75468352370866e-05 0.000104437657218796 0.000210896002960298 2.29873132180344e-05 0.000964539865097895 0.00199399406895035 -0.00085827588341998 0.000718777253737388 -0.000439622553464933
"129" 0.000421087039948945 0.000278787727373931 0.000335949112593981 0.000583974881990271 0.000463957704771069 0.000343337916812167 0.000663166173674517 6.15414906875447e-05 8.48272953520969e-05 0.000251370141248808 4.08931788799739e-05 0.00098350300590152 0.0019950852610256 -0.00090358065582377 0.000676404973317623 -0.000432115252145718
"130" 0.000433523058208942 0.000279596323419958 0.000335933694490781 0.000595563975294947 0.000454196796486852 0.000330147653698295 0.000662756356727148 6.4779763673543e-05 6.45770887137619e-05 0.00029367347251927 5.97230915621319e-05 0.00100150154505876 0.00199054081451106 -0.000951551248655314 0.000632278021001769 -0.000423750376478794
"131" 0.000445627159524945 0.000279586627104422 0.000335936348012015 0.000606561941980048 0.000443961968694285 0.000315508431268734 0.000661485492604154 6.72455113409622e-05 4.37623477693154e-05 0.000337782485464295 7.94839681899251e-05 0.00101845868463729 0.00198029798369659 -0.00100200602921317 0.000586570083636016 -0.000414245315962299
"132" 0.00045740407412747 0.00027884680950826 0.000335940238558939 0.000616976051689915 0.000433272428927958 0.000299505522802081 0.000659359201403891 6.89312547826744e-05 2.24733715696832e-05 0.000383652982262664 0.000100177918571624 0.00103429634523509 0.00196433835939572 -0.00105472557108141 0.000539472340600209 -0.000403323017241442
"133" 0.000468843785589152 0.000277467516073801 0.000335928588522398 0.000626812317357593 0.000422153919938494 0.000282229537013093 0.000656392845533968 6.98371936821726e-05 8.04270026694255e-07 0.000431220387351977 0.000121791648471545 0.00104894124083229 0.00194268501831614 -0.00110947053382811 0.000491178016889525 -0.000390708743787846
"134" 0.000479950794433172 0.000275545916505609 0.000335883838582451 0.000636078650800207 0.00041063370149537 0.000263788640337765 0.000652605437883733 6.99680869635569e-05 -2.11448672836643e-05 0.000480392390418085 0.00014430060716121 0.00106232457792689 0.0019154117611961 -0.00116597607748815 0.000441892927621365 -0.000376148136102539
"135" 0.000490725047141808 0.000273177566843403 0.000335784560046216 0.000644779896096922 0.00039873770234843 0.000244297868750386 0.000648013306838375 6.93341321737306e-05 -4.32584177600109e-05 0.000531059940208792 0.000167662338595782 0.00107437950755893 0.00188263426476945 -0.00122394633910087 0.000391827073469476 -0.00035939930395441
"136" 0.00050116592224664 0.000270454251264725 0.000335616284780336 0.000652922812058937 0.000386496549981747 0.000223880378232733 0.000642640402891956 6.79583424294386e-05 -6.54215205475609e-05 0.000583085977026572 0.000191827856880085 0.00108504821195783 0.00184451130234107 -0.00128307988535471 0.000341194123478585 -0.000340244055429602
"137" 0.00051127989172906 0.00026746801237938 0.000335354508176059 0.000660513491006709 0.000373942159470797 0.000202666314772508 0.000636517929862453 6.58579472031047e-05 -8.75118265606198e-05 0.000636310970664185 0.000216735722230948 0.0010942749032014 0.00180123788327846 -0.00134304898735495 0.00029021394230942 -0.000318492033347691
"138" 0.00052106363958044 0.000264311657901915 0.000334981255340207 0.000667556453430356 0.000361107064880687 0.000180793932127128 0.000629674607431276 6.30669169941447e-05 -0.000109398086961313 0.000690553677952911 0.000242310113307512 0.00110201410313459 0.0017530602187399 -0.00140350331223547 0.000239111414793972 -0.000293975413040343
"139" 0.000530526683250412 0.000261065711027557 0.000334474421897275 0.000674050924005057 0.000348030576762656 0.000158406407420504 0.000622140705248159 5.96179017982099e-05 -0.000130958847672311 0.000745605218433619 0.000268458580670899 0.00110822387638525 0.00170024551407248 -0.00146410280372449 0.00018810197463931 -0.000266563933586829
"140" 0.000539668297885616 0.000257811494693512 0.000333817930841241 0.00068000040018194 0.000334752458270801 0.000135646881134133 0.000613957437033844 5.55513886629781e-05 -0.000152061217848589 0.00080124212105316 0.000295084120481667 0.00111287190711331 0.00164310390034413 -0.00152448674505161 0.000137408142789177 -0.000236161445814873
"141" 0.000548494155731527 0.00025462474221456 0.000332988367773005 0.000685402870579704 0.000321305415463432 0.000112665215667635 0.000605160036130387 5.09090055689556e-05 -0.000172572711313803 0.000857217349421121 0.000322072805018994 0.00111593492864752 0.00158197440065414 -0.00158429277863148 8.72511812768995e-05 -0.000202707511052869
"142" 0.000557003035313969 0.000251570155039198 0.000331967768883498 0.000690257472616124 0.000307735632219747 8.96073333543891e-05 0.000595787928008599 4.57396734585408e-05 -0.000192362337792796 0.000913271109980017 0.000349310114646803 0.00111739291120676 0.00151721387388718 -0.00164315193220368 3.78470397766006e-05 -0.000166178756020659
"143" 0.000565202734262889 0.000248705702042649 0.000330740718594247 0.000694561253281037 0.000294079944862738 6.66187686457567e-05 0.000585887809420422 4.00936190551703e-05 -0.000211304384948527 0.000969119964415088 0.000376661773410462 0.00111723914215439 0.00144920633661668 -0.00170071311743822 -1.05979224404734e-05 -0.000126593992392295
"144" 0.000573091168341876 0.00024608351933785 0.000329291416917027 0.000698303862229819 0.000280387006475817 4.38456229362088e-05 0.000575498941239134 3.40226882337882e-05 -0.00022927157498466 0.00102448248437892 0.000403994778384098 0.00111547481454309 0.00137835288624734 -0.00175661189136979 -5.78741642250953e-05 -8.40100852958777e-05
"145" 0.000580672229408227 0.000243750307900842 0.000327599725845154 0.000701483155505977 0.000266692599444416 2.14266372939413e-05 0.000564671600439481 2.75814522645377e-05 -0.000246147610145138 0.00107905458449696 0.000431162934867739 0.00111210715628756 0.00130505976038213 -0.00181051740191743 -0.000103788456320037 -3.85250250388949e-05
"146" 0.000587949364642818 0.000241738781128229 0.000325658007991961 0.000704088658411655 0.000253043059683482 -5.02629317914127e-07 0.000553449234039835 2.08270129219539e-05 -0.000261817394886935 0.00113253787060589 0.000458021370952621 0.00110715093200989 0.00122975138616453 -0.00186209053555692 -0.000148150597945792 9.72642301462792e-06
"147" 0.000594923457099239 0.000240072258444397 0.000323451063363855 0.00070610845057082 0.000239481245855826 -2.18160964419368e-05 0.000541879110598759 1.38138030011281e-05 -0.000276179764973505 0.0011846237509449 0.000484420312330432 0.0011006343727625 0.00115284454370054 -0.00191103635054295 -0.000190789950623581 6.0567082195831e-05
"148" 0.000601598682752453 0.000238776227614436 0.000320971402370335 0.000707535026437619 0.000226046715399471 -4.23914445501762e-05 0.000530009537431618 6.60075722252913e-06 -0.000289129988980711 0.00123502209240646 0.000510208618819391 0.00109258958705459 0.0010747698238151 -0.00195704600973869 -0.00023153014903076 0.000113791963778283
"149" 0.000607977035617143 0.000237855938692392 0.000318208966539772 0.000708356448887994 0.000212785048771506 -6.2114441571492e-05 0.000517885457393287 -7.62329214564868e-07 -0.000300592139131706 0.00128343387479317 0.000535233382955808 0.00108306007433713 0.000995942238270781 -0.00199987987125066 -0.000270231483817064 0.000169151320858302
"150" 0.000614067120272199 0.000237316521910639 0.000315160468961269 0.000708563088583504 0.000199730063607344 -8.08815450189812e-05 0.000505557300161685 -8.21345040431312e-06 -0.000310484393151129 0.0013295861906579 0.000559353702216651 0.00107209337269539 0.000916772686849007 -0.00203929238289383 -0.0003067534832547 0.000226370100035059
"151" 0.000619870869158094 0.000237155745041336 0.000311823810128982 0.000708141415220753 0.000186925727227518 -9.86031893103708e-05 0.000493062863714032 -1.57077594143406e-05 -0.000318748090678114 0.00137321944263635 0.000582423296679195 0.00105974548580537 0.000837661784552072 -0.00207508257224058 -0.000340975243266977 0.000285141299013828
"152" 0.000625395727966198 0.000237358845519796 0.000308195953635316 0.000707084277250191 0.00017440438278575 -0.000115193516649298 0.000480457426688165 -2.31937417857965e-05 -0.000325336163931459 0.00141409609388585 0.000604307299006209 0.00104608341474399 0.000759000620776538 -0.0021070942359636 -0.000372795130760951 0.000345127275621445
"153" 0.000630656616906085 0.000237916882795155 0.000304281063409443 0.00070538110485657 0.00016220359790888 -0.000130585459812372 0.000467776403853349 -3.06262532428634e-05 -0.000330211101628838 0.0014520086397326 0.00062487890988428 0.00103117334762386 0.000681155779365256 -0.00213518374647566 -0.000402126841713393 0.000405972631769698
"154" 0.000635656795317578 0.00023880309634219 0.000300081135536545 0.000703026031382685 0.000150350199434656 -0.000144716999408561 0.000455063638734541 -3.79597704423963e-05 -0.000333357073077218 0.00148677641169656 0.000644024672365656 0.00101509207840046 0.000604475643559409 -0.00215927377578689 -0.00042890746598373 0.000467299515554605
"155" 0.000640416893649328 0.000239995837687613 0.000295605078518308 0.000700014953572962 0.000138874665908933 -0.000157544984376605 0.000442356758090889 -4.51585449854764e-05 -0.000334769142361756 0.0015182586391529 0.000661638149244564 0.00099792279502458 0.000529293478337965 -0.00217931100482336 -0.000453092301923419 0.000528715299388273
"156" 0.000644948613671857 0.000241468506826207 0.000290862599511862 0.00069634587317056 0.000127800032198941 -0.000169032101430063 0.000429696592144633 -5.21888075173632e-05 -0.000334461562433824 0.00154634969385583 0.000677628764184934 0.000979751228358227 0.000455913310117725 -0.00219529283271157 -0.000474655879056076 0.000589815532769936
"157" 0.000649275245681473 0.000243191308365579 0.000285863183963883 0.000692020051150275 0.000117149624243973 -0.00017916216565239 0.000417113238696127 -5.9020313519155e-05 -0.00033245886776487 0.00157099071959756 0.00069192247893851 0.000960663421784889 0.000384614568518185 -0.00220725049747103 -0.00049359493350647 0.000650182900346697
"158" 0.000653416539393189 0.000245128509517331 0.000280623034096828 0.000687040033211884 0.000106941605281535 -0.00018792485898808 0.000404636136734228 -6.56305146528811e-05 -0.000328812904180783 0.00159215937039616 0.000704462832166596 0.000940760452648915 0.000315652574874473 -0.00221527653761876 -0.000509928726163185 0.000709403480344706
"159" 0.000657400370720113 0.000247253580421471 0.000275160097039176 0.000681416997037042 9.7186026031575e-05 -0.00019532746386032 0.000392300819534065 -7.19977390880135e-05 -0.000323582851489738 0.00160988707340934 0.000715203112137451 0.000920133330461478 0.000249252190280561 -0.00221949363825099 -0.000523697361380504 0.000767056781149927
"160" 0.000661255262051866 0.00024953306811505 0.000269491090122034 0.000675163328325882 8.7897332821299e-05 -0.000201382819676788 0.000380127221977649 -7.81104523479119e-05 -0.000316843772872311 0.00162424417934208 0.000724124104326144 0.000898883149762425 0.000185607669095771 -0.00222006035698905 -0.000534960887962477 0.00082272920153543
"161" 0.000665009312646711 0.000251935664452585 0.000263640643050429 0.000668295448852414 7.90769843289563e-05 -0.00020612362822004 0.000368134414016462 -8.3959255582306e-05 -0.000308691040472968 0.00163534697805998 0.000731216824820548 0.000877111240269806 0.000124890421626653 -0.00221719918347291 -0.000543802594138953 0.00087601445136483
"162" 0.000668704124911035 0.000254436984091393 0.000257627475517035 0.000660836535569851 7.07297850077286e-05 -0.000209590896978307 0.000356348247484316 -8.95395052690825e-05 -0.000299227414877926 0.00164336792761194 0.000736502787150045 0.000854917263772478 6.7234479396268e-05 -0.0022111408457109 -0.000550316684432659 0.000926518453152279
"163" 0.00067237628753388 0.000257007050242138 0.000251483213720509 0.000652815729922192 6.28507227327537e-05 -0.000211838381885054 0.000344783095678127 -9.48565474136981e-05 -0.000288578792061416 0.00164850793699599 0.000740009149895802 0.000832401541611053 1.2747478076251e-05 -0.00220218508475485 -0.000554633392265122 0.000973861571500564
"164" 0.000676065092069704 0.000259624256875101 0.000245232682670709 0.000644263214764588 5.54333858680236e-05 -0.000212926921602294 0.000333448380274935 -9.99126070220012e-05 -0.000276874181114647 0.00165101837837756 0.00074178811083349 0.000809663497093194 -3.84928085535071e-05 -0.0021906379937516 -0.000556880902225605 0.00101768880878136
"165" 0.000679819081406632 0.000262270042308732 0.000238904623629577 0.000635217216555361 4.84706963989896e-05 -0.000212931533110457 0.000322353767259331 -0.000104721308043019 -0.000264257085045323 0.00165118271193423 0.000741907934647413 0.000786799946617486 -8.64457267925015e-05 -0.00217684717808021 -0.000557217687013125 0.00105766542748982
"166" 0.000683683017318283 0.000264931284111572 0.000232530035759611 0.000625721524894391 4.19448308030878e-05 -0.000211934474409351 0.000311508145233091 -0.000109294599476476 -0.000250878487007545 0.00164932789153757 0.000740457903795499 0.000763911014574829 -0.000131091102058073 -0.00216117739159985 -0.000555804890205608 0.0010934848601654
"167" 0.000687701899529383 0.000267595907766094 0.000226141471321411 0.000615823461871973 3.58464243692742e-05 -0.000210024859318983 0.000300914240274865 -0.000113654099986989 -0.000236903200449102 0.00164579997954438 0.000737534317735352 0.000741083951224002 -0.000172447090076656 -0.00214402480395491 -0.000552827939665853 0.00112487215911088
"168" 0.000691930224762741 0.00027025502681356 0.00021977334196544 0.000605577552740786 3.01511791193641e-05 -0.000207302077052656 0.000290574655275928 -0.000117819873289552 -0.000222499663038241 0.00164097006606322 0.000733259215450689 0.000718411549237258 -0.000210557605223362 -0.00212579685107436 -0.000548475802030569 0.00115158815152525
"169" 0.000696416660253701 0.000272907070414176 0.000213457574918674 0.000595039436022706 2.48397246026268e-05 -0.000203866669441081 0.0002804849044568 -0.000121814468626715 -0.000207835504391994 0.00163523611329978 0.000727754136924837 0.000695974864346443 -0.000245490506674993 -0.00210690453765428 -0.000542942994070471 0.00117342386995048
"170" 0.000701209888622538 0.000275554527112509 0.000207228063759111 0.000584271501409485 1.98881916412953e-05 -0.000199829079560324 0.00027064761316584 -0.000125667992678057 -0.00019308554329469 0.00162900475239793 0.000721165097282985 0.000673854651289375 -0.000277351192229225 -0.00208776731702125 -0.000536434216981141 0.00119021757536469
"171" 0.000706362053963083 0.000278204159543621 0.000201122455098785 0.000573338319247518 1.52705132209843e-05 -0.000195301901292305 0.000261055326125616 -0.000129406609997486 -0.000178426722661141 0.0016226910197071 0.000713638117655172 0.000652123414974382 -0.000306257956707643 -0.00206880363731373 -0.000529156448488302 0.0012018436274258
"172" 0.000711919357382797 0.000280868686729722 0.000195169611219872 0.000562308525391565 1.09588363340967e-05 -0.000190398333409768 0.000251697586104038 -0.00013305969293419 -0.00016402583149043 0.00161671130786747 0.000705328384347968 0.000630848160362489 -0.000332361465300558 -0.00205041781521782 -0.000521314195823459 0.00120822010621933
"173" 0.000717922337890612 0.000283555734624621 0.000189409126421972 0.000551251429822977 6.93217008159645e-06 -0.000185232063032497 0.000242571947522832 -0.000136656290342328 -0.000150061807995744 0.00161147878371111 0.000696395957574041 0.000610090347746937 -0.00035583071931939 -0.0020330288483151 -0.00051312025180458 0.00120930712441008
"174" 0.000724417868211505 0.00028628869133761 0.000183871717909757 0.000540239364742915 3.15746979622461e-06 -0.00017991907508661 0.000233663997921043 -0.000140223947811692 -0.000136690398076322 0.00160739986734516 0.000687009261032912 0.000589902778426536 -0.000376850853636154 -0.00201699909844039 -0.000504771544649908 0.00120511570856697
"175" 0.000731438840147168 0.000289082819025221 0.000178586703261751 0.000529349687885331 -3.95344098471951e-07 -0.00017457426751578 0.000224969384332149 -0.000143793093330589 -0.000124073935245114 0.00160485713557298 0.000677323940368358 0.000570336121882346 -0.000395630210776722 -0.00200269863682329 -0.000496467589294496 0.00119569247347581
"176" 0.000739020562036883 0.000291962276580493 0.000173588669864817 0.000518650763368027 -3.74649080449538e-06 -0.000169303392337416 0.000216474665781059 -0.000147388102573658 -0.000112359444153723 0.0016042140198066 0.000667507684745791 0.000551430183605715 -0.000412383643167827 -0.00199046470334306 -0.000488401314380654 0.00118113486345744
"177" 0.000747180800910991 0.000294948800726422 0.000168899519774211 0.000508218382257252 -6.93114658017922e-06 -0.000164216537251345 0.000208164357367476 -0.000151034263191611 -0.00010167779618777 0.00160581369003836 0.000657718745563744 0.000533212833733363 -0.000427346340462381 -0.0019805789729414 -0.000480745439974099 0.00116157869910301
"178" 0.000755941991869288 0.00029806531576488 0.000164550186091747 0.000498121631759826 -9.97358488499369e-06 -0.000159410816548345 0.000200030192983095 -0.000154749663258172 -9.21602090639512e-05 0.00160995713023036 0.000648106122267787 0.000515718095534479 -0.000440748266572588 -0.00197331823196386 -0.000473670582740156 0.00113720608119555
"179" 0.000765308570067337 0.000301338571114576 0.00016056009743371 0.000488431814214554 -1.28967867891721e-05 -0.000154981413199601 0.000192060215471589 -0.000158556994985665 -8.39097920837819e-05 0.00161691462597709 0.000638814619067462 0.000498959081000899 -0.000452838955083399 -0.00196889249873664 -0.000467324610291092 0.00110823683059423
"180" 0.00077528278081274 0.000304788751410961 0.000156952516491809 0.000479212082874325 -1.57265329349026e-05 -0.000151010393840845 0.000184246583748585 -0.000162465897907772 -7.70252484088509e-05 0.00162690643570663 0.000629979720781266 0.000482953304270193 -0.000463850897093893 -0.0019674901500604 -0.000461851823615701 0.00107492773999909
"181" 0.000785852022966551 0.000308439701362226 0.000153739779136811 0.000470524646934703 -1.84844750240613e-05 -0.000147575303485012 0.000176570344601211 -0.000166489259448092 -7.15805641483115e-05 0.00164011694258926 0.000621720920468727 0.000467707213088085 -0.000474029707552952 -0.00196922572415495 -0.000457364733197173 0.0010375743791007
"182" 0.000796997152973204 0.000312309373540029 0.000150936491389395 0.000462425085582217 -2.11924318616829e-05 -0.000144744247172552 0.000169022299679989 -0.000170630447453645 -6.76360144934863e-05 0.00165666494627266 0.000614150338281159 0.000453216182781379 -0.000483605546321942 -0.00197418627402612 -0.000453969984513839 0.000996497375900463
"183" 0.000808679745031363 0.000316412150761077 0.000148552076918785 0.000454965476858352 -2.38636355621107e-05 -0.000142567377902547 0.000161594191905306 -0.000174890990040269 -6.52318457547571e-05 0.00167662280237617 0.000607358943121288 0.000439477709066545 -0.000492802504969911 -0.00198239896553732 -0.000451748708425829 0.000952051278593774
"184" 0.000820860076240166 0.000320761262656126 0.000146590759971806 0.000448185794422635 -2.65192424170315e-05 -0.00014109101025275 0.000154276391657247 -0.000179262685506426 -6.43867199529518e-05 0.00170000261891099 0.000601422682772592 0.000426483591804646 -0.000501830619335281 -0.00199382894030695 -0.000450756415671397 0.000904613492857939
"185" 0.000833478552873522 0.000325366996328971 0.000145051862884802 0.00044212430619007 -2.91717470083443e-05 -0.000140346711592345 0.000147058067402767 -0.00018374000156108 -6.51032865620037e-05 0.00172675343294353 0.000596402571921363 0.000414213765159067 -0.000510884005376993 -0.0020083915991437 -0.000451036284762191 0.000854582781377002
"186" 0.000846464968927949 0.000330225315325382 0.000143930376474163 0.000436806818572448 -3.18281885933218e-05 -0.000140352098109813 0.00013993297983482 -0.000188303616677628 -6.73560355969511e-05 0.00175676096332201 0.000592340972115578 0.00040265059306827 -0.000520132625583716 -0.00202594820373034 -0.000452600516686655 0.000802371050651247
"187" 0.000859737713626478 0.000335333636850247 0.000143220209646045 0.000432252676568349 -3.44965874451516e-05 -0.000141115893457731 0.000132896954225719 -0.000192928561049674 -7.11139933544807e-05 0.00178983786392024 0.000589260974170432 0.000391770433648143 -0.000529735364910617 -0.00204631222393087 -0.000455445612560546 0.000748406000188696
"188" 0.00087320543149553 0.000340683063293405 0.000142906559268671 0.000428472616313464 -3.71829485124059e-05 -0.000142626462448608 0.00012594033941371 -0.000197591857712548 -7.63050168934718e-05 0.00182573902761162 0.000587161746818629 0.000381543758760043 -0.000539815595962262 -0.0020692207991055 -0.000459536804579089 0.00069311873266483
"189" 0.000886757029091943 0.000346252478023779 0.000142972790022911 0.000425462496165917 -3.98867709614517e-05 -0.000144868687372999 0.00011906817346644 -0.000202259699567921 -8.28568931437939e-05 0.00186413942623271 0.000586030936529862 0.000371947175494839 -0.000550475056112863 -0.00209438605478037 -0.000464826563213324 0.000636946903090318
"190" 0.000900278410393548 0.000352017313127528 0.000143394549302924 0.000423215929834619 -4.26074393087949e-05 -0.00014780977806321 0.000112264890506674 -0.000206888360179595 -9.06617218157575e-05 0.00190464857449337 0.000585830158512634 0.000362939489619177 -0.000561791953559808 -0.00212143804151035 -0.000471230413624669 0.000580325276364397
"191" 0.000913635784709678 0.00035793947205891 0.000144148453645027 0.000421707809272285 -4.53344563728504e-05 -0.000151405248508009 0.000105544556532568 -0.000211441154811538 -9.96097504045787e-05 0.00194680655506627 0.000586504269466711 0.000354495690147701 -0.000573806724922789 -0.00214999247519234 -0.000478655893839996 0.000523677948384526
"192" 0.000926697603115028 0.000363982530593454 0.000145202817009173 0.000420907601045445 -4.80641686245003e-05 -0.000155599097282982 9.88998012933144e-05 -0.000215865389524054 -0.00010955298860662 0.00199008865103532 0.00058798001298914 0.000346571252618444 -0.000586542562350321 -0.00217958734321886 -0.000486973557705816 0.000467425722191203
"193" 0.000939308088544245 0.000370091959253469 0.000146525828331408 0.000420774075003287 -5.07803870966537e-05 -0.000160328002243267 9.23371971790722e-05 -0.000220107219920594 -0.000120348281076672 0.00203389698022704 0.000590164728062746 0.000339138559152315 -0.000599979442651293 -0.00220975047221342 -0.000496048739372776 0.000411965681861419
"194" 0.000951314194493062 0.000376209625789276 0.000148078528988864 0.000421254620517463 -5.34697167437795e-05 -0.000165516819030845 8.58619878017911e-05 -0.000224114272156603 -0.000131823235468365 0.00207758562198097 0.000592948522381379 0.000332155749473527 -0.000614081431152023 -0.002239944338822 -0.000505711958968245 0.000357682258372154
"195" 0.000962555480885538 0.000382268582067811 0.000149824425394955 0.000422283956620275 -5.61147798230063e-05 -0.000171077966502002 7.9482954150609e-05 -0.000227822456695985 -0.000143801973230368 0.00212043874727731 0.000596211312192088 0.000325592820817729 -0.000628774624089658 -0.00226963465839668 -0.000515785976931388 0.000304931810237266
"196" 0.000972865337361378 0.000388195309696497 0.000151715465320547 0.000423788875375896 -5.86882545156502e-05 -0.000176920833396483 7.320568532702e-05 -0.000231173961713944 -0.000156090911128467 0.00216170311240394 0.000599806439614289 0.000319408519651132 -0.00064396356062238 -0.00229823563796238 -0.000526073485499411 0.000254048593997894
"197" 0.000982069669959692 0.000393908070457003 0.000153711233181219 0.000425687230739668 -6.11694513976163e-05 -0.0001829465447078 6.70394584807711e-05 -0.000234104389574924 -0.000168490415883018 0.00220057967914216 0.000603592465533518 0.000313573541990591 -0.000659524861055651 -0.00232515821260929 -0.000536362921868926 0.000205335621404724
"198" 0.000989995351771134 0.000399319088727588 0.000155764255946926 0.000427888537609404 -6.3534027230194e-05 -0.000189051288782028 6.09967839016046e-05 -0.000236546684468274 -0.000180798878018728 0.00223623881529167 0.000607397871157655 0.000308055992550798 -0.000675307395165448 -0.0023498012620669 -0.00054643079250947 0.000159058509827006
"199" 0.000996472260348364 0.000404336509008797 0.000157824444810893 0.00043028905426946 -6.57503865402958e-05 -0.000195123808085315 5.50930462477354e-05 -0.000238437491396463 -0.000192799494443269 0.00226783118031757 0.000611060807011787 0.000302825012764865 -0.000691145995002322 -0.00237156387047366 -0.000556049850691323 0.000115451681590649
"200" 0.00100133211750484 0.000408863403641093 0.000159843813673568 0.000432782574732263 -6.7791218307145e-05 -0.000201053614439321 4.93363478630483e-05 -0.000239716319155146 -0.000204285663612883 0.0022945016642758 0.000614397741862407 0.000297853975687573 -0.000706849961439646 -0.00238984032021504 -0.000564975807040791 7.47128624292956e-05
"201" 0.00100440577489032 0.000412800647143269 0.000161773942443569 0.000435255678200571 -6.9625173802916e-05 -0.000206725589723388 4.37395732517718e-05 -0.00024031964936305 -0.000215046409320076 0.00231540136185166 0.000617235790824473 0.000293119503646216 -0.000722213366937163 -0.00240406275186596 -0.00057297786143555 3.69936778966095e-05
"202" 0.00100553554579184 0.000416049775325233 0.00016356374495089 0.000437585326492969 -7.1225630181112e-05 -0.00021202768473807 3.83215057155067e-05 -0.000240192082133333 -0.000224876414015345 0.00232970271271818 0.000619389189737865 0.000288606346576311 -0.000737016276299232 -0.00241366711480474 -0.000579815502912576 2.41403569721563e-06
"203" 0.0010045745764599 0.00041850690447118 0.000165161869153024 0.000439649988327622 -7.25591415744173e-05 -0.000216841726925553 3.30937714549487e-05 -0.000239277131666566 -0.000233576643018788 0.00233661520151515 0.000620676876378203 0.000284291435932341 -0.000751023612631805 -0.002418129120387 -0.000585255612466907 -2.89517061096134e-05
"204" 0.00100137719322532 0.00042007590407308 0.000166524357129738 0.000441318371414563 -7.36018363581315e-05 -0.000221058510636611 2.80655694387301e-05 -0.00023752534193041 -0.000240958947550248 0.00233540082757631 0.000620930153876441 0.00028017245592066 -0.000763994606058712 -0.00241697663898046 -0.000589076139190329 -5.70738071302023e-05
"205" 0.000995819452516221 0.000420660217429719 0.000167602520469972 0.000442461604204471 -7.43280393763463e-05 -0.000224567394703777 2.32514011038365e-05 -0.000234895757035069 -0.00024684536408749 0.00232538918945821 0.000619972401355258 0.00027623737322762 -0.000775684724537917 -0.00240976982791622 -0.000591064524265455 -8.19570329691493e-05
"206" 0.000987790282723357 0.000420169853775208 0.000168350900605658 0.000442947963425901 -7.47148813526087e-05 -0.000227264142711579 1.86566362113763e-05 -0.000231351828207447 -0.000251072172267645 0.00230599714203407 0.000617648609450734 0.000272488389172447 -0.00078583729027017 -0.00239613491809465 -0.000591030217896419 -0.000103649992441279
"207" 0.000977190219718064 0.000418522721689942 0.000168727254320075 0.00044265250527833 -7.47415376686624e-05 -0.000229047395386603 1.43015349251151e-05 -0.000226863125477257 -0.000253496124270872 0.00227673503858912 0.000613814381293414 0.000268927917874025 -0.00079420263092473 -0.00237577756002254 -0.000588798935377268 -0.000122240218233182
"208" 0.000963944005755254 0.000415641417137793 0.00016869073033005 0.00044144503507622 -7.43913735611196e-05 -0.000229825803330459 1.01800321380972e-05 -0.000221409089422042 -0.000253991413024602 0.00223722902203488 0.000608330033815614 0.000265565992837064 -0.000800533260671018 -0.00234845172078876 -0.000584215122728616 -0.000137847584656254
"209" 0.000947995976569226 0.000411461161488394 0.000168205059701173 0.000439203576149927 -7.36542496949845e-05 -0.000229512482941998 6.30244677599803e-06 -0.000214980917597017 -0.000252452966307127 0.00218722731933882 0.000601086629544835 0.000262414006399354 -0.00080458521917919 -0.00231400421434547 -0.000577160180248459 -0.000150630330359518
"210" 0.000929311538318801 0.000405926873733398 0.000167239609523771 0.000435815452342439 -7.25199625494962e-05 -0.000228028716801582 2.67224648417006e-06 -0.000207571093186094 -0.00024879904382029 0.00212660254225311 0.000591987086601388 0.000259496608564526 -0.000806125216049621 -0.00227236342993951 -0.000567532228700684 -0.000160775602833994
"211" 0.000907874989662937 0.000399002060625682 0.000165764808096953 0.000431166721525046 -7.09901272856289e-05 -0.00022530381537836 -7.10951971231505e-07 -0.000199189626915077 -0.000242967037232527 0.00205537250928909 0.000580956095788379 0.000256829929340535 -0.000804931297343703 -0.00222352337513001 -0.000555263413041162 -0.000168494263098806
"212" 0.000883702567061345 0.000390653499930959 0.00016375730347252 0.000425165429494665 -6.90610188800282e-05 -0.000221283802640537 -3.85043161587249e-06 -0.000189854539224444 -0.00023492993936982 0.00197368643174734 0.000567942834872484 0.000254445174785172 -0.000800801743005048 -0.00216758872669092 -0.00054031737898665 -0.000174027121486763
"213" 0.000856831433358114 0.000380869474236461 0.0001612004998533 0.000417719103068034 -6.67425017386342e-05 -0.000215915528981638 -6.74279541592683e-06 -0.000179587401452695 -0.000224675954801502 0.00188183650628063 0.000552919328266435 0.000252365882143298 -0.000793547560540216 -0.00210473214952201 -0.000522690318754353 -0.000177625293179286
"214" 0.000827321974779963 0.000369652837616188 0.000158082578460528 0.000408753372951178 -6.40395801619512e-05 -0.000209163165743334 -9.40114669528391e-06 -0.000168428017806487 -0.000212224396776653 0.00178024809639263 0.000535885356668508 0.000250628519639709 -0.00078300402254044 -0.00203521586859364 -0.000502407664768594 -0.00017956181225699
"215" 0.000795266160984199 0.000357020650620305 0.000154397600421762 0.000398209371661088 -6.0965758024857e-05 -0.000201002858471897 -1.18270987906571e-05 -0.000156416697537889 -0.000197610767369709 0.00166947788079579 0.000516867618161832 0.000249259924053376 -0.00076903910393206 -0.00195937868036242 -0.000479524004177179 -0.000180114491688892
"216" 0.000760779261776732 0.000343004873385594 0.00015014794436858 0.000386041612866175 -5.75382901068614e-05 -0.000191418377125788 -1.40311494575977e-05 -0.000143608323964153 -0.000180909014987072 0.001550200133807 0.000495911697893872 0.000248291784410536 -0.000751541606019597 -0.00187763817993404 -0.000454125754305123 -0.000179564454999756
"217" 0.000723999533624448 0.000327654147017903 0.000145342308445804 0.000372219204665474 -5.37698694694937e-05 -0.000180411175067226 -1.60158970844495e-05 -0.000130065819327163 -0.000162208060755164 0.00142319576612375 0.000473101410103647 0.000247757428760494 -0.000730432494715284 -0.00179049550719232 -0.000426334144664254 -0.000178194480232868
"218" 0.000685098891920583 0.000311034090864628 0.000139995867586898 0.000356732537270249 -4.96822476271421e-05 -0.000167993284994393 -1.77925579948742e-05 -0.000115856846342753 -0.000141620113679052 0.00128934588014596 0.000448536990815882 0.000247680836977232 -0.000705677269576018 -0.00169849258974237 -0.000396284011186063 -0.00017627884260613
"219" 0.00064426590464991 0.000293226496547131 0.000134134208659189 0.000339587111791992 -4.52907100477283e-05 -0.000154188614842115 -1.93667335133128e-05 -0.000101056369758801 -0.000119276283106511 0.00114960637615122 0.000422348593031967 0.000248085738660985 -0.000677270797119979 -0.00160224378409486 -0.000364140133923912 -0.000174085699220614
"220" 0.000601715806405003 0.00027432656328473 0.000127788201717158 0.000320811105738545 -4.06170300910243e-05 -0.0001390324556177 -2.0749196702015e-05 -8.57478042491813e-05 -9.53351140102979e-05 0.00100500045901815 0.000394688574220387 0.0002489899308641 -0.000645253521062435 -0.00150241631926807 -0.000330088045010321 -0.000171864297208941
"221" 0.000557683380727403 0.000254443590822888 0.000120998359829368 0.000300449613099369 -3.56762831510825e-05 -0.000122577711679463 -2.19372397091779e-05 -7.00179865778925e-05 -6.996048813034e-05 0.00085660288533954 0.000365734206373032 0.00025040232337609 -0.000609703977705017 -0.0013997049848442 -0.00029433027629063 -0.000169848789539697
"222" 0.000512429954561543 0.000233701635768381 0.000113808579736778 0.000278565836567337 -3.04850944787509e-05 -0.000104887271678613 -2.29428436316251e-05 -5.39535303266144e-05 -4.33371705036461e-05 0.000705515946944146 0.000335680440074635 0.000252330982661062 -0.00057075488997543 -0.00129484681138347 -0.000257081990270727 -0.000168247422881297
"223" 0.000466228244649083 0.000212237956885168 0.000106277162527435 0.000255244516878831 -2.50554552764175e-05 -8.60324043784531e-05 -2.37611327717962e-05 -3.76509019768815e-05 -1.5663133674209e-05 0.000552861430892305 0.000304740630933337 0.000254771651772907 -0.000528570633620717 -0.00118860097059424 -0.000218578316851433 -0.00016724468631129
"224" 0.000419370113305865 0.000190197780261663 9.84632796564109e-05 0.000230587039618668 -1.93993537440583e-05 -6.60996860805054e-05 -2.4393648941078e-05 -2.12076222268763e-05 1.28519721644409e-05 0.000399764760861812 0.000273143344986619 0.000257714714169062 -0.000483372500149082 -0.00108174708798286 -0.000179056145574124 -0.000166997955473699
"225" 0.000372160726572912 0.000167741759825833 9.04372461071518e-05 0.000204712356963649 -1.35238621929965e-05 -4.51803364855417e-05 -2.48364462084366e-05 -4.71634865466734e-06 4.19958216155964e-05 0.000247342639993759 0.000241133326133003 0.000261134233354165 -0.000435426434326966 -0.000975054808461223 -0.000138755935760706 -0.000167634798130608
"226" 0.000324917746310068 0.000145040855098498 8.22698351543973e-05 0.000177761589677309 -7.43450311266633e-06 -2.33830202050417e-05 -2.50848529373923e-05 1.17261547531348e-05 7.15533887784228e-05 9.66860266988093e-05 0.000208964490293421 0.000265002499846968 -0.000385039642204494 -0.000869301495745363 -9.79289762182166e-05 -0.000169249826366705
"227" 0.000277969714522934 0.000122269147408627 7.40410864820122e-05 0.000149881751846203 -1.12978406650954e-06 -8.15300650057335e-07 -2.51298547019664e-05 2.80222679397591e-05 0.000101297291049411 -5.11434051569793e-05 0.000176893448007624 0.000269279874648362 -0.000332565864290391 -0.000765255005743712 -5.68200158488638e-05 -0.000171912382671967
"228" 0.000231643202520476 9.96105387773077e-05 6.58358628234222e-05 0.0001212438852808 5.3941519446039e-06 2.23994824022651e-05 -2.49619275113049e-05 4.40791269630026e-05 0.000131007436644016 -0.00019512663358782 0.000145183704813893 0.000273916496604466 -0.000278401539653117 -0.000663662460595858 -1.56793316427586e-05 -0.000175653537473963
"229" 0.000186275525156496 7.72545573036478e-05 5.77377192242885e-05 9.20252088092825e-05 1.21395048415047e-05 4.61410847742975e-05 -2.45618655497676e-05 5.98053899479093e-05 0.000160465697946366 -0.000334294590882818 0.000114104021236679 0.000278852753299164 -0.000222974157216743 -0.000565237654338368 2.52537787009432e-05 -0.000180481408240179
"230" 0.000142198791968374 5.54014366097678e-05 4.98375068744433e-05 6.24175991513463e-05 1.91170030963061e-05 7.02815028466946e-05 -2.39219209057998e-05 7.51125416117366e-05 0.000189455966150553 -0.000467729912716118 8.39149516405787e-05 0.000284020892139083 -0.000166755016262553 -0.000470669342100193 6.57450225821425e-05 -0.000186367385839589
"231" 9.97431160589522e-05 3.4240601616193e-05 4.22254798751431e-05 3.26177927309903e-05 2.63418016205663e-05 9.46878488177706e-05 -2.30154075046304e-05 8.99193658752893e-05 0.00021776738015752 -0.0005945809731219 5.48734219213869e-05 0.00028935047990506 -0.000110237122707078 -0.000380611807026889 0.000105564188434667 -0.000193261592766433
"232" 5.92335810650717e-05 1.39762640031346e-05 3.4991386418875e-05 2.8363031024479e-06 3.38271105555496e-05 0.000119231604597458 -2.18318748753742e-05 0.000104149496029266 0.000245206282621573 -0.00071404906985637 2.72312558052086e-05 0.00029475410832753 -5.39359247407829e-05 -0.000295653201505882 0.000144495695456438 -0.000201086037597109
"233" 2.09875064975472e-05 -5.19430097537548e-06 2.82244840891692e-05 -2.67181751078409e-05 4.15878831475479e-05 0.000143779525714008 -2.03470636536822e-05 0.000117727731081239 0.00027158405685511 -0.000825405930732208 1.22709169118635e-06 0.000300149900184681 1.60807058722907e-06 -0.000216352050155993 0.000182333836394557 -0.000209738693729876
"234" -1.46914909288567e-05 -2.30717626235165e-05 2.20121140689494e-05 -5.58272606228261e-05 4.9643739376834e-05 0.00016820905322796 -1.85410122137456e-05 0.00013059098317237 0.000296717142887068 -0.000927995910461493 -2.29150572926455e-05 0.000305443806785609 5.5854248527184e-05 -0.000143205492010614 0.000218881355183637 -0.000219103249778242
"235" -4.75181405634012e-05 -3.94612301859448e-05 1.64388739377196e-05 -8.42780767640706e-05 5.80130183831403e-05 0.000192394643003436 -1.6391783354004e-05 0.000142682165270667 0.000320456628402638 -0.00102122389974609 -4.49825886242065e-05 0.000310541005506039 0.000108255157816845 -7.66409823707438e-05 0.00025396608233061 -0.000229035609141289
"236" -7.72164680825482e-05 -5.41672340126126e-05 1.15838122941276e-05 -0.000111855014017027 6.67150830267256e-05 0.000216219621058969 -1.38796738479342e-05 0.000153950322718184 0.000342653778457692 -0.00110456166268849 -6.47863699677698e-05 0.000315343642353671 0.000158271165615583 -1.70319571111533e-05 0.000287420590459005 -0.000239388416392226
"237" -0.000103536014599809 -6.70051362142976e-05 7.51970691569215e-06 -0.000138346970342162 7.57643517253535e-05 0.000239576015979161 -1.0984948825954e-05 0.000164352110757993 0.000363178939806635 -0.00117755980907563 -8.21560272055789e-05 0.000319753916074777 0.000205371882492421 3.53153815169017e-05 0.000319096877229345 -0.000249995238267431
"238" -0.000126248947290555 -7.78000420358834e-05 4.31886815447275e-06 -0.00016354485477739 8.51872785290883e-05 0.000262361364119446 -7.68708014772314e-06 0.000173855490458787 0.000381923970011718 -0.00123983039746702 -9.69423362103066e-05 0.000323680683328732 0.000249060780166589 8.01584930326255e-05 0.000348860433311117 -0.00026069131552483
"239" -0.000145145365908847 -8.63784295694043e-05 2.03853655982308e-06 -0.000187250363192177 9.49940558584472e-05 0.00028448761113953 -3.96582783370981e-06 0.000182433052424203 0.000398799059298183 -0.00129106102103177 -0.000109017944879054 0.00032702904329928 0.000288863717358091 0.000117338066153111 0.000376597277577418 -0.00027130217797218
"240" -0.000160048922450328 -9.25792566008375e-05 7.33017277128109e-07 -0.000209271914733674 0.000105199647375975 0.000305875123776363 1.88650464662083e-07 0.000190074382392405 0.000413738125273739 -0.00133100269070153 -0.000118286957091852 0.000329708142570944 0.000324344595212013 0.000146759995912745 0.000402213029450385 -0.000281654749389087
"241" -0.000170802846000736 -9.62552025775625e-05 4.47384190162353e-07 -0.000229429704012349 0.000115820305950165 0.000326458092772237 4.79668045131318e-06 0.000196770732473643 0.000426690500210839 -0.00135948334837649 -0.000124673977312086 0.00033163584105968 0.000355118534387828 0.000168407185120047 0.000425627192760986 -0.000291580226543718
"242" -0.000177287144459136 -9.72731465271104e-05 1.21356112856289e-06 -0.000247555993351258 0.000126862332537611 0.000346186594679181 9.86440388038482e-06 0.000202522366158998 0.000437629366540166 -0.00137639831066555 -0.000128137520390834 0.000332736145772292 0.000380857357159268 0.000182330972597218 0.000446780403366734 -0.00030091646539907
"243" -0.00017940516455978 -9.55136081385717e-05 3.05961288088072e-06 -0.000263492088574022 0.000138332355807799 0.000365019297772955 1.54022593893207e-05 0.000207347169663655 0.000446549403298255 -0.00138171508184176 -0.000128661610600108 0.000332939315532188 0.000401287211196206 0.000188660033701932 0.000465631342971572 -0.000309512546014946
"244" -0.000177098541491166 -9.08709546746029e-05 5.99826339111268e-06 -0.000277101250374306 0.000150238832413421 0.000382932297311116 2.14155639848529e-05 0.000211265105603922 0.000453467765770394 -0.00137548278813863 -0.00012625677125618 0.000332185508242099 0.000416203726546208 0.000187599531709709 0.000482157482610556 -0.000317228208824057
"245" -0.000170334198747431 -8.32582353863211e-05 1.0035057773187e-05 -0.000288255543925163 0.000162580026981822 0.000399917356665755 2.79072974714306e-05 0.000214305518090228 0.000458422122556451 -0.00135781661296531 -0.000120967147685003 0.000330419349384603 0.000425461443225116 0.000179431631039201 0.00049636436299575 -0.000323943857646586
"246" -0.000159116957838894 -7.26138453499399e-05 1.5163083093244e-05 -0.000296849875940096 0.00017535796315038 0.000415978054468686 3.48816787929651e-05 0.000216510410833835 0.000461467108734022 -0.00132891581509701 -0.000112868760476739 0.000327607588035247 0.000428997009089483 0.000164489108190564 0.000508258201748616 -0.000329552848453077
"247" -0.000143475620675788 -5.88864677014655e-05 2.13671363842845e-05 -0.000302791998525552 0.000188562982687317 0.000431134003307385 4.23336287364043e-05 0.000217928621001018 0.000462686763212738 -0.00128906209726199 -0.00010205831178839 0.00032371462237244 0.000426817053619542 0.000143201322901292 0.000517887712285972 -0.000333974824479969
"248" -0.000123482687788672 -4.20534413375271e-05 2.86186364388724e-05 -0.000306014185013045 0.000202192295777584 0.000445414600390325 5.02548308470853e-05 0.000218617403710344 0.000462177596513902 -0.00123861447470642 -8.86712581374224e-05 0.000318723825854697 0.000418997147445548 0.000116049873487987 0.000525307559334102 -0.000337146642926223
"249" -9.92357925385339e-05 -2.21153815058372e-05 3.68803000856748e-05 -0.000306461997162562 0.000216232989653581 0.000458867207826091 5.86394822535257e-05 0.000218641540251509 0.000460060794016545 -0.00117802291451025 -7.28661216252316e-05 0.000312621659461141 0.000405683947343391 8.35897521907844e-05 0.000530596541878507 -0.00033903039035748
"250" -7.08654200402461e-05 9.0960427750399e-07 4.61066130669052e-05 -0.000304105912450894 0.000230672168397804 0.000471547860496616 6.74788327909193e-05 0.000218074747026561 0.000456470866259825 -0.00110782901021379 -5.48278512392325e-05 0.000305413521731723 0.000387090880809511 4.64301948660189e-05 0.000533857082597995 -0.000339610003630509
"251" -3.85333424066596e-05 2.69715316984278e-05 5.62417233071339e-05 -0.000298933238550265 0.000245498339305045 0.000483523864479106 7.67594060462167e-05 0.000216995310616994 0.000451563016136474 -0.00102866421470717 -3.47731525421708e-05 0.000297105601395 0.000363499150471242 5.24054576267542e-06 0.000535205051472022 -0.000338898258807266
"252" -2.43444170440174e-06 5.60003355542435e-05 6.72195508584775e-05 -0.000290953379201546 0.000260695885944353 0.000494872839504644 8.64678801685676e-05 0.000215488835881277 0.000445501926897484 -0.000941253326565567 -1.29393750473157e-05 0.00028772171373268 0.000335244130717644 -3.92633088646157e-05 0.000534781105588472 -0.000336931748673394
"253" 3.72119001523958e-05 8.78974082059312e-05 7.89664508849981e-05 -0.000280195253716222 0.000276243301041933 0.000505675983682318 9.65862173302376e-05 0.000213646795651255 0.000438477370205412 -0.000846419853930917 1.04158961522801e-05 0.00027728804265172 0.00030271527653274 -8.62956284612466e-05 0.000532744538189968 -0.000333763042911884
"254" 8.01552959549463e-05 0.000122540904021454 9.1403875155989e-05 -0.000266711213685605 0.000292124092893192 0.000516025918125945 0.000107094330556765 0.000211562065802521 0.000430677145802423 -0.000745086208000104 3.50077454319624e-05 0.000265844562788759 0.000266348971863159 -0.000135065813076857 0.000529271630436244 -0.000329478934227089
"255" 0.000126118793038867 0.000159782694682351 0.000104442176207816 -0.000250574216734181 0.000308317714051329 0.000526016798905834 0.000117974855467973 0.000209332081237077 0.000422311174514471 -0.000638269796364369 6.05395911731358e-05 0.000253433804015698 0.000226618590556666 -0.000184709551291974 0.000524561252734464 -0.00032417774376307
"256" 0.000174807150584583 0.000199446682874474 0.00011798852643721 -0.000231876958255333 0.000324804535120569 0.00053574620019625 0.000129202744843091 0.000207059719845069 0.000413590781817549 -0.000527077644233367 8.66983448355811e-05 0.000240104674746881 0.000184029453276958 -0.000234364820163502 0.000518820228452918 -0.000317984540618242
"257" 0.000225893048191982 0.00024133209839552 0.000131947245380965 -0.000210730257662063 0.000341559882693743 0.000545313364445536 0.00014075807419175 0.000204841214918332 0.000404733733433513 -0.000412717971827571 0.00011315638396978 0.000225914616900469 0.000139113702328114 -0.000283133309832229 0.000512280520708097 -0.000311038080186773
"258" 0.000279035044034461 0.000285220536653943 0.000146213528561493 -0.000187271313906442 0.000358561755606637 0.000554816093410437 0.000152611623339649 0.000202782584450114 0.000395961703051073 -0.000296477858073261 0.000139581109738624 0.000210922888124679 9.24121362536786e-05 -0.00033011763046535 0.000505180507307331 -0.000303500429266361
"259" 0.000333872495186192 0.000330862065463882 0.000160681726996035 -0.000161649253629544 0.000375785972527751 0.000564351119550122 0.000164739655236628 0.000200979365021288 0.000387494584108825 -0.000179718427839951 0.000165631411299853 0.000195196261830198 4.4479824922878e-05 -0.000374413710680437 0.000497768645311544 -0.000295536517682959
"260" 0.000390026855987146 0.000377991020822752 0.000175246050709641 -0.000134037752088338 0.000393209331110406 0.000574008384475601 0.000177117514922676 0.00019952796123524 0.00037955034184777 -6.38700831300702e-05 0.000190967905969096 0.000178802306081657 -4.12007784140371e-06 -0.000415142088639287 0.000490299995940289 -0.000287330401043854
"261" 0.00044710820225964 0.000426319798256848 0.000189794109098987 -0.000104627105892839 0.000410806025429559 0.00058387562315961 0.000189707618727591 0.000198522219321218 0.000372337579537713 4.95894723086779e-05 0.000215249263207281 0.000161813046839083 -5.28372925016979e-05 -0.000451438050681797 0.000483037294231606 -0.00027907027405772
"262" 0.00050471874966537 0.000475546233503634 0.000204216301196529 -7.36245301814568e-05 0.000428543739885627 0.000594032213621738 0.000202480256797149 0.000198046348988095 0.000366064549539023 0.000159155579819877 0.000238149768527323 0.000144303066078002 -0.000101124757947454 -0.000482469472061837 0.000476242515317668 -0.00027095283460218
"263" 0.000562447023909054 0.000525351101189407 0.000218404860806196 -4.12553117066037e-05 0.000446390448974598 0.000604547841373803 0.000215397569465616 0.000198180111507889 0.000360917955243187 0.000263299987424219 0.000259343091169278 0.000126348236600506 -0.00014845502797038 -0.000507462649181414 0.000470168306712679 -0.000263172229069321
"264" 0.000619882247945268 0.000575403694178723 0.000232246517122332 -7.75517774670821e-06 0.000464314615178985 0.000615483795730564 0.000228426388230459 0.000198994458589304 0.000357067725772074 0.000360519065443265 0.000278526333992276 0.000108028933690769 -0.000194313087817353 -0.000525709865148719 0.000465058021457424 -0.00025593095740106
"265" 0.000676608720191652 0.000625365157894864 0.000245638080257563 2.66205277692684e-05 0.000482273633644992 0.000626890485741668 0.000241522788877941 0.000200552461133706 0.000354673609207353 0.000449344229630076 0.000295411671024098 8.94295477341152e-05 -0.000238210428392915 -0.000536565458197321 0.000461146532456139 -0.000249419176324802
"266" 0.00073221651995419 0.000674891534755028 0.000258470901488959 6.16106480839205e-05 0.000500224997137056 0.000638807411920518 0.000254642329555327 0.000202898972083937 0.000353867002619232 0.000528366801080406 0.000309734113227518 7.06294638103901e-05 -0.000279682935484812 -0.000539479073053593 0.000458645606741847 -0.000243832071368964
"267" 0.000786298459019076 0.000723634519242613 0.00027064656890988 9.69389819092291e-05 0.000518115935515561 0.00065125969421102 0.000267730413978177 0.000206072945986098 0.000354754930080482 0.000596280129994293 0.000321252773343033 5.17181983207312e-05 -0.000318296831525361 -0.00053399960653396 0.000457742873759877 -0.000239350099067458
"268" 0.000838455602193481 0.00077124169837187 0.000282066899442821 0.000132327046649816 0.000535894449219654 0.000664258975749905 0.000280744239972739 0.000210101255426075 0.00035741237726938 0.000651892617150534 0.000329759053929011 3.27897611824584e-05 -0.00035364188161339 -0.000519803779011577 0.000458589163275584 -0.000236150546259048
"269" 0.000888303464726868 0.000817377721976647 0.000292637547642999 0.000167485513838729 0.000553494747949988 0.000677803480739754 0.000293619647223525 0.000214990469237079 0.000361896696017025 0.000694171186910812 0.000335077197182163 1.39301870482304e-05 -0.000385357293846945 -0.000496652643422024 0.000461319475613346 -0.00023439359775263
"270" 0.00093546581309839 0.000861701049342281 0.00030227151803769 0.000202125663940463 0.000570846566642919 0.000691875843305087 0.00030629190318178 0.000220737985890915 0.000368221801006528 0.000722247914518679 0.000337063420221497 -4.76028968206369e-06 -0.000413097423406194 -0.000464467459794967 0.000466012787338316 -0.000234231087571957
"271" 0.000979596594497689 0.000903891136015916 0.0003108919495336 0.000235958284978269 0.000587872763589119 0.000706446726284451 0.000318702676038155 0.000227326202135718 0.000376375935630118 0.000735463234108839 0.000335611242356239 -2.31843452607613e-05 -0.000436569585626073 -0.000423285085040296 0.000472721459087718 -0.000235794578398847
"272" 0.00102035865138834 0.000943631138866528 0.00031842331220416 0.000268696528631721 0.000604494221309593 0.000721467616663746 0.00033078303257093 0.00023471970501302 0.000386303555393062 0.00073336158079889 0.000330653591125992 -4.124221575216e-05 -0.00045551474564466 -0.000373294816916578 0.000481441724482915 -0.00023920047866764
"273" 0.00105744886606016 0.000980629114418363 0.00032480137465174 0.000300058771664043 0.00062061593069766 0.000736877937518421 0.000342452867242552 0.000242867954456066 0.000397928776972097 0.000715722316559494 0.000322163409339076 -5.88363133972065e-05 -0.000469716658606635 -0.000314800163248939 0.000492140101279682 -0.000244539275484105
"274" 0.00109058733334972 0.00101460698054062 0.000329967510330448 0.000329770397781518 0.000636145608325237 0.000752599918509964 0.000353644782204464 0.000251713627308024 0.000411138677005957 0.000682553561433137 0.000310151275625102 -7.58650301509187e-05 -0.000479005192658182 -0.00024825323512234 0.000504729378271321 -0.000251883390288937
"275" 0.00111952604750008 0.00104531130631873 0.000333877966240539 0.000357573581903535 0.000650980896085395 0.000768540989069153 0.000364272224063711 0.000261177890955445 0.00042578168542728 0.000634100870043556 0.000294670707255695 -9.22266218502106e-05 -0.000483250397160129 -0.000174237212943563 0.000519084729151584 -0.000261273006000266
"276" 0.00114404769933249 0.0010725068772305 0.000336495558779515 0.000383219760014825 0.000665017084044197 0.000784593692451008 0.000374261275155605 0.000271170678900188 0.000441682625479064 0.000570836403627709 0.000275814976130861 -0.00010782551907558 -0.000482379516228383 -9.34442498922823e-05 0.000535041154690524 -0.00027272576816489
"277" 0.00116397818317259 0.00109598693573499 0.000337793722677949 0.000406481203324963 0.000678154102537225 0.000800637146192772 0.000383532756029017 0.000281590972959044 0.000458636750664808 0.000493445804303423 0.00025371206773228 -0.000122568776432475 -0.000476369832986245 -6.69917918557322e-06 0.000552388343225773 -0.000286226687906658
"278" 0.00117916334696831 0.0011155692726871 0.000337762018947172 0.000427149667143126 0.000690283762911278 0.000816535118373595 0.000392007223539756 0.000292334917147611 0.000476410298222148 0.000402820048005519 0.000228529548748863 -0.000136367498606315 -0.000465247249864443 8.5087927067119e-05 0.000570886750780341 -0.000301728432549754
"279" 0.0011895028552819 0.00113110111599366 0.000336393704606616 0.000445042507493742 0.000701297121592653 0.000832142503684889 0.000399602904408459 0.000303278617686687 0.000494754327539233 0.000300022457321205 0.000200471780383305 -0.000149144337109576 -0.000449104153568022 0.000180920036698392 0.000590267966855063 -0.000319147768711465
"280" 0.00119492761010471 0.00114245650106073 0.000333703104497892 0.000459998222985789 0.00071109995810367 0.000847300031774524 0.000406249724878474 0.000314297710101218 0.0005133992266689 0.000186272938004405 0.000169770117424731 -0.00016082480632438 -0.000428083336671442 0.000279726702773389 0.000610238887304122 -0.000338370608099111
"281" 0.00119540999007127 0.00114953702805449 0.000329709461473744 0.000471885345115001 0.00071959145673757 0.000861834427922744 0.000411872161461579 0.000325264107767769 0.000532057755599322 6.29078061966017e-05 0.000136689225887647 -0.000171353168295952 -0.000402390712612367 0.0003803727000819 0.000630482938304747 -0.00035923946710384
"282" 0.00119095670167359 0.00115227585902913 0.000324446331238318 0.00048059972423918 0.000726680355767644 0.00087557384720958 0.000416406328197107 0.000336047024068419 0.00055043737684103 -6.86307640015005e-05 0.000101517152286942 -0.000180678666353659 -0.000372296090843252 0.000481699614988703 0.000650674102561576 -0.000381566972490826
"283" 0.00118162020363803 0.00115063420204694 0.000317961800373372 0.000486072307035811 0.000732287704858402 0.000888327634018623 0.000419790987051279 0.00034650709589122 0.00056823700198418 -0.000206841734222234 6.45646259989078e-05 -0.000188768925887754 -0.000338125528077117 0.000582511142993314 0.000670474507793472 -0.000405125409327951
"284" 0.00116747998950479 0.00114460510191601 0.000310313317925067 0.000488256779426381 0.000736331549501849 0.000899910846185083 0.000421964046976147 0.000356513158822004 0.000585154822433075 -0.000350180244727594 2.6161206192757e-05 -0.000195606313513764 -0.00030027285413782 0.000681615111765692 0.000689547953896409 -0.000429649964850483
"285" 0.00114866385778851 0.00113420938971654 0.000301566725811124 0.000487143986174797 0.000738752062718146 0.000910127805544685 0.000422881990739055 0.000365936635780458 0.000600890685922951 -0.000497094416009837 -1.3348850122993e-05 -0.00020118341989956 -0.000259182109787204 0.000777825517051589 0.000707556630960929 -0.000454846395014841
"286" 0.00112532672690613 0.00111949053057353 0.000291803043920336 0.000482753162591531 0.000739497327125443 0.000918789343803321 0.000422500249907294 0.000374646678286482 0.000615148795239219 -0.000646040979677303 -5.36152647320871e-05 -0.000205513087417908 -0.000215361082071946 0.000869967281551885 0.000724164563118312 -0.000480387456216805
"287" 0.00109765309174949 0.00110053475150187 0.000281103824660226 0.00047513581463308 0.000738521299022514 0.000925704724844313 0.000420783877277038 0.000382526144974167 0.0006276514680453 -0.00079550751552606 -9.42781026541071e-05 -0.000208624468239402 -0.000169361234486821 0.000956930852149004 0.000739057474373957 -0.000505913440887958
"288" 0.00106586384784198 0.0010774431806906 0.00026956986170751 0.000464369876268623 0.000735792746906544 0.000930687737555493 0.000417704840691905 0.000389460513897079 0.00063812489098176 -0.000944033271008345 -0.000134978123737021 -0.00021056127849256 -0.00012178834910525 0.00103763337571448 0.000751924983978146 -0.000531046095949075
"289" 0.00103019931654011 0.00105035192860535 0.000257296069354761 0.000450564829010223 0.000731289822438453 0.00093356153960491 0.00041324576984115 0.000395341380869327 0.000646330624765788 -0.00109021656499017 -0.000175350145979659 -0.000211383976315285 -7.32848685298835e-05 0.00111108382245919 0.000762493003014827 -0.000555378625185136
"290" 0.000990926341945305 0.00101942117134273 0.000244390209528112 0.000433855803674373 0.000725005121032552 0.000934161509222374 0.000407390861296789 0.000400078117320377 0.0006520307209072 -0.00123273635076129 -0.000215045372739379 -0.000211161851304141 -2.45227992921274e-05 0.00117634324242359 0.000770493829616483 -0.000578489646653508
"291" 0.000948331688504168 0.000984832465555494 0.00023095874241772 0.000414398243657573 0.000716944150457725 0.000932333883347194 0.000400137922804963 0.000403582692584556 0.000655022038003541 -0.00137035665277673 -0.000253720879786958 -0.000209984531627255 2.38032329133089e-05 0.00123256413684073 0.000775687078778044 -0.00059994978390993
"292" 0.000902714922231875 0.000946797395933487 0.000217114665129654 0.0003923738967896 0.000707120806648272 0.000927941488252579 0.000391486962639307 0.000405788027039647 0.000655132917924921 -0.00150192108941486 -0.00029103867758799 -0.000207949328977283 7.09820566527328e-05 0.00127900382330314 0.000777869410203371 -0.000619315234455543
"293" 0.000854393316530118 0.000905542282152955 0.000202970586419216 0.000367985491665352 0.000695558036616384 0.000920868271883881 0.000381455079365478 0.000406629631338183 0.000652203941076762 -0.0016263827879021 -0.000326690890782159 -0.000205158397887454 0.000116307764439098 0.00131498803366625 0.00077684628126007 -0.000636151310588764
"294" 0.000803690784373922 0.000861315522308172 0.00018863453280544 0.000341444900089568 0.000682290472059627 0.000911012923728236 0.000370054611229126 0.000406068475842957 0.000646121478223984 -0.00174277628583693 -0.000360378429784555 -0.000201731646112127 0.00015907622590903 0.00133999024247669 0.00077247778434296 -0.00065001478612993
"295" 0.000750934253202388 0.000814388444123079 0.000174217302251341 0.000312988299291848 0.00066736497932126 0.000898306671677674 0.000357309026401712 0.000404067119384281 0.000636796885256473 -0.00185024004299628 -0.000391821316869238 -0.000197784931827636 0.000198610798866838 0.00135355889382315 0.00076463581010043 -0.000660481780692459
"296" 0.000696459474868827 0.000765040551246991 0.000159822955956871 0.000282854467067036 0.00065083629243637 0.000882695498821394 0.000343256699589889 0.000400610204716103 0.000624171273241982 -0.00194800633640181 -0.000420769426169838 -0.000193442816484724 0.00023427133192451 0.00135536713236981 0.000753229643445192 -0.000667140250467595
"297" 0.000640596198041954 0.000713573452306229 0.000145551074230225 0.000251298449409899 0.000632759804967381 0.000864160946852013 0.000327930713520064 0.000395693210262959 0.000608226843012814 -0.00203539953421012 -0.000446998151824365 -0.000188828467585094 0.000265461449336576 0.00134520786479806 0.000738207610992412 -0.00066960141853177
"298" 0.000583673462897154 0.000660292028663588 0.000131498677034665 0.000218574732142794 0.000613211407380608 0.000842709327575212 0.00031137543397716 0.000389331454819605 0.000588967699826176 -0.00211183631295903 -0.000470306475963522 -0.000184061656083516 0.000291640250248811 0.00132297132452739 0.00071953283608585 -0.000667499146564827
"299" 0.000526009088601179 0.000605516358661177 0.000117754385858452 0.000184944602605342 0.000592261990136135 0.000818371113775693 0.000293638948286864 0.000381546893499025 0.000566441859837969 -0.00217682841231042 -0.000490519672165059 -0.00017926402001805 0.000312342035987296 0.00128867894420137 0.000697219661262184 -0.000660506722178161
"300" 0.000467919090713005 0.000549568004106601 0.000104393430898723 0.000150672199757165 0.000569993566854821 0.000791214293720538 0.00027477949484377 0.000372381662705139 0.000540726706443401 -0.00222997000326466 -0.000507504414007163 -0.000174548133319955 0.000327168335373741 0.00124246472798807 0.000671301697036171 -0.0006483251608528
"301" 0.000409702636117697 0.00049277399627849 9.14931276408748e-05 0.000116017300294663 0.000546500009441139 0.000761327319964121 0.000254860414086073 0.000361891209285229 0.000511923160953137 -0.00227094695259135 -0.000521144154111447 -0.000170015190920054 0.000335819187438731 0.00118455425377667 0.000641842230269501 -0.000630709039964082
"302" 0.000351643343752245 0.000435467225513657 7.91150952350371e-05 8.12360822397529e-05 0.000521868155843227 0.000728833292753041 0.000233941504032232 0.000350138427898942 0.0004801827085621 -0.00229952882530491 -0.000531363947860107 -0.000165765156381351 0.00033807455510606 0.00111531291681088 0.000608943180320122 -0.000607452220586454
"303" 0.000294015205315362 0.000377969697403109 6.73148035166174e-05 4.65814120849355e-05 0.000496195852948553 0.000693881941464829 0.000212103862685837 0.000337202290578887 0.000445662931180332 -0.00231556607276801 -0.000538119574914665 -0.000161879997721765 0.000333820786301023 0.00103517662938776 0.000572727187521115 -0.000578405338447315
"304" 0.000237075543100417 0.000320609842849654 5.61325087539866e-05 1.22943451863042e-05 0.0004695885349993 0.000656645362427935 0.000189414068512128 0.000323178451037302 0.000408571737073947 -0.00231899873745368 -0.000541396315726649 -0.000158438761024854 0.000323030559703735 0.000944716033345975 0.000533352167013747 -0.000543475162661534
"305" 0.000181056469190391 0.000263702220521809 4.56085085972784e-05 -2.13877678202317e-05 0.000442147947355233 0.000617323104569466 0.000165958036527041 0.000308169697148844 0.000369131141909905 -0.00230984784118285 -0.000541211331775606 -0.000155496393897274 0.000305790576795767 0.000844573364022164 0.000490998240469349 -0.000502625169896582
"306" 0.000126180376405812 0.000207553200299357 3.57656838747032e-05 -5.42401641747476e-05 0.000413983096919894 0.000576140655062546 0.000141825553934546 0.000292285232816518 0.000327589500547505 -0.00228822213703301 -0.000537623357880327 -0.00015310584330557 0.000282270945768982 0.000735494511230554 0.000445874736341556 -0.000455885923696104
"307" 7.26417767424652e-05 0.000152459252255524 2.66201733062962e-05 -8.60551155999769e-05 0.000385206264103238 0.000533337438306152 0.000117097970193175 0.000275651769805517 0.000284225099902162 -0.00225431633342204 -0.000530712826004289 -0.000151299895309652 0.000252741756596291 0.000618313882622291 0.00039821361116107 -0.000403350346616971
"308" 2.06209791617706e-05 9.8700959709328e-05 1.8179379347303e-05 -0.000116628251930587 0.000355931263802081 0.000489174374602357 9.18745163523656e-05 0.000258400303718569 0.000239333675306888 -0.00220841059127766 -0.000520597959362509 -0.000150102491462778 0.000217550585622624 0.000493940512245354 0.000348278007109118 -0.000345175188589992
"309" -2.97254820074822e-05 4.65457371336778e-05 1.04418680656395e-05 -0.000145776608572359 0.000326278355476352 0.000443931162069447 6.62522951907844e-05 0.000240666101092244 0.00019322839605176 -0.00215088426331011 -0.000507425400929054 -0.000149523064464975 0.000177138916297724 0.000363365274936256 0.000296346495740257 -0.000281583275516934
"310" -7.82576105380397e-05 -3.7563327605028e-06 3.39180953174137e-06 -0.000173333026730078 0.000296363169795286 0.00039789242740695 4.03264650875658e-05 0.000222599078291044 0.000146245860929629 -0.00208219543865179 -0.000491373672710572 -0.00014956119301911 0.000132004886690695 0.000227652791702824 0.000242729857510285 -0.00021286677314154
"311" -0.000124859720843718 -5.19786979163607e-05 -2.98325276818716e-06 -0.000199139495392479 0.000266306614915824 0.000351355602711714 1.42014545823153e-05 0.000204347626685163 9.87291918411221e-05 -0.00200291712404066 -0.000472644899441351 -0.000150201492942301 8.27174046256701e-05 8.79067187098681e-05 0.00018774762656212 -0.00013938073206332
"312" -0.000169432475820906 -9.79128054694652e-05 -8.71728380606762e-06 -0.000223058281569415 0.00023623360484219 0.000304629231891866 -1.20151254686896e-05 0.000186064514408814 5.10433360913708e-05 -0.00191370517035707 -0.000451475863073895 -0.000151426064924022 2.98912436205133e-05 -5.46824190332763e-05 0.000131750589162431 -6.15405814840334e-05
"313" -0.000211899985161863 -0.000141371353448611 -1.38376155888343e-05 -0.000244969323462758 0.000206269778498656 0.000258017044203624 -3.82194631525239e-05 0.000167908543523887 3.55342429070556e-06 -0.00181532422527612 -0.00042811957085269 -0.000153200396696565 -2.58119078975619e-05 -0.000198903360363772 7.50988293816124e-05 2.01724250583749e-05
"314" -0.000252201870229016 -0.000182193604092528 -1.83879422659211e-05 -0.000264767829492021 0.000176534967277244 0.000211829454448251 -6.4305383322333e-05 0.000150036214648096 -4.33651690677392e-05 -0.00170863664529201 -0.000402858186461289 -0.00015548773387213 -8.37112165056299e-05 -0.00034349720858632 1.81758372768251e-05 0.000105228752701173
"315" -0.000290295865063531 -0.000220240285860812 -2.24139456008057e-05 -0.000282365610171261 0.000147157931321899 0.000166369560356032 -9.01626606117725e-05 0.00013260842732217 -8.93271036697826e-05 -0.00159460753097392 -0.000375989813689968 -0.000158244436711899 -0.000143096479743954 -0.000487169212554925 -3.86226110665177e-05 0.000193044350571764
"316" -0.000326158369939656 -0.000255396085371107 -2.59636033132076e-05 -0.000297694041504405 0.000118267140298705 0.000121940627526342 -0.000115682858067385 0.000115783250371586 -0.000133959656917248 -0.00147430841557293 -0.000347835998515687 -0.000161419372066378 -0.000203251322051839 -0.000628629092864577 -9.48969352274354e-05 0.000282989080909203
"317" -0.000359778917163037 -0.000287576584825228 -2.9095721022841e-05 -0.000310700528317972 8.99824240781989e-05 7.88344980353092e-05 -0.00014075729418518 9.97110186047304e-05 -0.000176882070775409 -0.00134890590030611 -0.000318721537584833 -0.000164957033823876 -0.000263455315154579 -0.000766558089789783 -0.000150227185649078 0.000374396814294284
"318" -0.000391168420033508 -0.000316712379309506 -3.18670969322512e-05 -0.000321350817744646 6.24287270640577e-05 3.73348584663817e-05 -0.00016528642538969 8.45442596480384e-05 -0.000217722381729158 -0.00121966006324093 -0.000288997058234504 -0.0001688053945911 -0.000323004282006079 -0.000899649117301846 -0.000204196341768124 0.000466569928113549
"319" -0.00042034440648878 -0.000342762185604335 -3.43403992704168e-05 -0.000329629170258474 3.57274615108755e-05 -2.28913960589432e-06 -0.000189159811145901 7.04280131622594e-05 -0.000256118369021401 -0.00108791715270863 -0.000259006851002741 -0.000172904024897166 -0.000381200799085197 -0.00102661197556302 -0.000256377534539967 0.00055878485451207
"320" -0.000447344578540708 -0.000365713130612596 -3.65765503087529e-05 -0.000335533311972511 9.99952257931926e-06 -3.97793456346293e-05 -0.000212284827429271 5.74960968978654e-05 -0.000291722657579758 -0.000955103577707907 -0.000229108801600532 -0.000177192339190331 -0.00043737333582967 -0.00114619081099091 -0.000306355123409596 0.000650305953747623
"321" -0.000472213660391691 -0.000385569509751718 -3.86476072076003e-05 -0.000339081782727589 -1.46413614323009e-05 -7.48959914814967e-05 -0.000234553611355169 4.58777854362217e-05 -0.000324202707099919 -0.000822704711367467 -0.000199656272650245 -0.000181609838606321 -0.000490872703247493 -0.00125717535046132 -0.000353720445123371 0.000740386325116587
"322" -0.000495008507166406 -0.000402355147000148 -4.06143683670875e-05 -0.000340311206501361 -3.8086338627787e-05 -0.000107413326996446 -0.00025588523583066 3.56932678088032e-05 -0.000353249829343193 -0.00069225532633076 -0.000171002183783497 -0.000186094187255306 -0.000541084643669957 -0.001358402630248 -0.000398067888351295 0.000828290415337339
"323" -0.00051579717965633 -0.000416121145382608 -4.25453951246373e-05 -0.000339270161240899 -6.0230471561548e-05 -0.000137131192924277 -0.000276185775515748 2.7042012592364e-05 -0.000378577395548427 -0.00056531472988688 -0.000143484442665703 -0.000190579047085855 -0.000587426490845194 -0.00144880158411208 -0.000439022513784414 0.000913281256141946
"324" -0.000534650283239372 -0.000426933252307626 -4.4505357946378e-05 -0.000336028809753236 -8.09777492901969e-05 -0.000163862100178214 -0.000295373455542639 2.00235939316695e-05 -0.000399929174784478 -0.000443455108546989 -0.000117439498515244 -0.000195003157851019 -0.000629350328132396 -0.00152738416962215 -0.00047622627552 0.000994649353889293
"325" -0.000551653689104689 -0.000434872537245107 -4.65627757559033e-05 -0.000330665799291722 -0.000100239505229454 -0.000187444612968644 -0.000313378501420214 1.47075250286327e-05 -0.000417078199490217 -0.000328213932706846 -9.31777114405194e-05 -0.000199297018949964 -0.000666349083384423 -0.00159326236557301 -0.000509349029633193 0.00107170899036408
"326" -0.000566889183038406 -0.000440036191866448 -4.87768091624184e-05 -0.000323283141430618 -0.000117938533276053 -0.000207734492777455 -0.000330129161860432 1.11627440702566e-05 -0.000429835271145094 -0.000221090879706674 -7.099904781091e-05 -0.000203393491309352 -0.0006979534658073 -0.00164567156055161 -0.000538102189029816 0.0011438099332515
"327" -0.000580451537154065 -0.000442537239725411 -5.12117353289039e-05 -0.000313985344792726 -0.000134002101525389 -0.000224615566993237 -0.000345565894506384 9.42806629911409e-06 -0.000438049046125555 -0.000123503153802185 -5.11698336584225e-05 -0.000207219988792816 -0.000723734751377557 -0.00168397693061495 -0.000562233809367476 0.001210344479323
"328" -0.000592435023760319 -0.000442494886183988 -5.39241692755457e-05 -0.000302899524592274 -0.000148374667173758 -0.000237986242230077 -0.000359638923216847 9.53515464911817e-06 -0.000441613466494201 -3.67637092923002e-05 -3.39369324346896e-05 -0.000210700480554876 -0.000743302167571847 -0.00170769309325042 -0.00058153994362458 0.00127075518487182
"329" -0.000602930845104036 -0.000440042490968409 -5.69652535822953e-05 -0.000290159268743263 -0.000161010982583741 -0.000247777559826335 -0.00037230196512053 1.14909867829912e-05 -0.000440454087710351 3.79554735888427e-05 -1.9512569755921e-05 -0.000213761438195782 -0.000756307249265798 -0.00171647404689176 -0.000595862565839623 0.0013245430776692
"330" -0.000612036116672793 -0.000435323037787713 -6.03866053697482e-05 -0.000275907845133977 -0.000171874015706785 -0.000253936703841216 -0.00038351623561614 1.52852441654287e-05 -0.000434562692239085 9.96349720731653e-05 -8.08046250438668e-06 -0.00021631426649942 -0.000762443698627826 -0.00171016189587907 -0.000605110370960252 0.00137126510047858
"331" -0.000619843836331721 -0.000428481677147688 -6.42256850878188e-05 -0.000260299388392059 -0.000180943612752006 -0.000256441406671313 -0.000393259411824004 2.08904768136226e-05 -0.000423960318192232 0.000147452140100356 2.16688050774501e-07 -0.0002182748102334 -0.000761447006307869 -0.00168874816676298 -0.000609236137734959 0.00141055226600756
"332" -0.000626443892709512 -0.000419666197877545 -6.85256791059767e-05 -0.000243491725137171 -0.000188213303909138 -0.00025528492144185 -0.000401508835695473 2.82592383958635e-05 -0.000408718594171055 0.000180790115322035 5.2705692925963e-06 -0.000219554690320913 -0.000753093093488229 -0.00165238549900068 -0.000608254115860344 0.0014421029608411
"333" -0.000631923014435371 -0.000409038301946099 -7.33103406537902e-05 -0.000225647216198844 -0.000193676821105926 -0.000250491543687802 -0.000408249712272342 3.73262165516251e-05 -0.000388963447249517 0.000199247857882258 7.01335961880902e-06 -0.000220059652057652 -0.000737206433873384 -0.00160142348165965 -0.000602242875364854 0.00146569024917556
"334" -0.000636361765992757 -0.00039675142779826 -7.86027215995662e-05 -0.000206932096886035 -0.000197353787816426 -0.000242106962258888 -0.000413475353191573 4.80105623631558e-05 -0.00036486131106507 0.000202660453599322 5.41455803220703e-06 -0.000219694431805203 -0.000713655149793891 -0.00153636033792652 -0.000591334108851638 0.00148116055678146
"335" -0.000639835797575317 -0.000382965817528699 -8.44119834918123e-05 -0.000187514084751797 -0.000199262491281962 -0.000230200045632247 -0.000417194175769752 6.02130362091485e-05 -0.000336622346235766 0.000191097117906636 4.84956045639754e-07 -0.000218364491559771 -0.000682359026402911 -0.00145786055627923 -0.000575717269135891 0.00148843894551095
"336" -0.000642411793873094 -0.000367844315447583 -9.07403891031553e-05 -0.000167560183285187 -0.000199440524312443 -0.000214865203925993 -0.00041940262506011 7.38194112371412e-05 -0.000304502406296076 0.000164856427929133 -7.72004128165148e-06 -0.000215974034185343 -0.000643289353328386 -0.00136674863620338 -0.000555639333748792 0.00148752916934307
"337" -0.000644148791078864 -0.000351547178810018 -9.75805469366472e-05 -0.00014722814251528 -0.000197920458858803 -0.000196220403702136 -0.000420118170635478 8.87042132295846e-05 -0.000268801406575763 0.00012445937238693 -1.9115359342863e-05 -0.000212426683653385 -0.0005964705975759 -0.00126399048615106 -0.000531391716653792 0.00147850551964235
"338" -0.000645093733334105 -0.000334233284496994 -0.000104910053951362 -0.000126678423059936 -0.000194755966187704 -0.000174404808035157 -0.000419357862978253 0.000104727388062648 -0.000229846747940928 7.0634432251185e-05 -3.35697184096459e-05 -0.000207633138790161 -0.000541989446748346 -0.00115067907460883 -0.000503312527349644 0.00146151976149392
"339" -0.00064528809047726 -0.00031606068584668 -0.00011270110957388 -0.00010605739856804 -0.000189996566090874 -0.000149578220024224 -0.000417138323479768 0.000121741118868764 -0.000188003772688955 4.29811219530331e-06 -5.09206075552936e-05 -0.000201515012576875 -0.000479996312378842 -0.00102802247492997 -0.000471781151317893 0.001436792576486
"340" -0.000644758827075746 -0.000297188916445509 -0.000120908592418812 -8.55071150267657e-05 -0.000183700459211098 -0.000121931406749815 -0.000413484089218919 0.000139586686467728 -0.00014366843165568 -7.34728810966319e-05 -7.09719797187249e-05 -0.000193989175203121 -0.000410702788978523 -0.000897336731817755 -0.000437208914646783 0.00140461506616247
"341" -0.000643523497901538 -0.000277766510169866 -0.000129480861427781 -6.51566656610298e-05 -0.000175931711787881 -9.16644578111894e-05 -0.000408423206479022 0.000158100905069547 -9.72545196330167e-05 -0.000161460125535536 -9.34970752356159e-05 -0.000184995694661178 -0.000334390774540974 -0.000760011100376225 -0.000400033207819822 0.00136533637702644
"342" -0.000641589583898136 -0.000257946431573885 -0.000138354932816612 -4.51254173855254e-05 -0.000166752757731506 -5.90040628395801e-05 -0.00040198826143437 0.00017711633160793 -4.9194051797424e-05 -0.000258339109062525 -0.000118241137910719 -0.000174480706056022 -0.000251417741708178 -0.000617500786346028 -0.00036071362005021 0.00131936853582275
"343" -0.000638950955334211 -0.000237876178603347 -0.000147454316427542 -2.55163902515477e-05 -0.000156229860813815 -2.41961512311833e-05 -0.000394204694903566 0.000196463812416167 5.51514915532014e-08 -0.00036270877512914 -0.000144930484608565 -0.000162402802777345 -0.000162207282286098 -0.000471325737074463 -0.000319730255037105 0.00126717252988234
"344" -0.000635593940532603 -0.000217692247683083 -0.000156694488120488 -6.42229307404382e-06 -0.000144430945595569 1.25019460250989e-05 -0.000385117842083247 0.000215970581689671 5.00412156975835e-05 -0.000473104858365569 -0.000173268543712297 -0.000148739420511329 -6.72691253610471e-05 -0.000323006373455526 -0.000277557715822371 0.00120925486686986
"345" -0.000631495769074381 -0.000197533828454542 -0.000165984698806685 1.20814821398437e-05 -0.000131420089834255 5.08110665708622e-05 -0.000374760538133734 0.000235469516874121 0.000100300393261744 -0.000588051572669515 -0.00020294627939687 -0.000133483156489319 3.281946644725e-05 -0.000174098603687779 -0.000234690482482468 0.00114616430077255
"346" -0.000626620411106351 -0.000177526684028001 -0.000175221348199772 2.99333824141786e-05 -0.000117274750832308 9.04464638246825e-05 -0.000363178801585818 0.000254794468328381 0.000150371522010757 -0.000706066336281578 -0.000233637017270555 -0.000116648331001507 0.000137404667261607 -2.61388987633019e-05 -0.000191604071860889 0.00107847888115211
