"V1" "V2" "V4" "V5" "V7" "V8" "V10" "V11" "V13" "V14" "V15" "V17" "V18" "V20" "V21" "V23"
"1" -0.000135598547545766 -0.000203102139615664 0.000159698773449225 3.77891742168653e-05 -0.000107220005668835 -0.000252940526446965 -0.000309041274278688 -0.000280231183676806 0.00254154551568794 4.10806093553851e-05 0.000352523133151673 -0.000306445072999915 -0.000163659413390414 -0.00011493308217677 0.000327949539110426 8.21806414971876e-05
"2" -0.000141291617645874 -0.000210509828815015 0.000159559812028616 3.63727679429747e-05 -0.000107333786874721 -0.000254403146042207 -0.00031058516375292 -0.00028501958678758 0.00253757428604643 4.92502682938866e-05 0.000360234302041019 -0.000301467925465451 -0.00015373688098346 -0.000103568651044621 0.000326145388958334 8.4083192256725e-05
"3" -0.000145914193027767 -0.000216722240751214 0.000159837577677116 3.56266031121177e-05 -0.000106989152684495 -0.000255346384090828 -0.000310851923628111 -0.000289451530586742 0.00252212810108893 5.77728231934088e-05 0.000367743134855003 -0.000296216410094459 -0.000143384092749692 -9.25416592296321e-05 0.000323964924924184 8.64360767808434e-05
"4" -0.000149409509035539 -0.000221678431203321 0.000160522628317195 3.55552082015792e-05 -0.000106178954181034 -0.000255763961442614 -0.000309813295313542 -0.00029349126607891 0.00249529180862219 6.65773717435954e-05 0.00037499296646739 -0.000290736234093363 -0.000132601017788428 -8.19370515269841e-05 0.000321407895111174 8.92208201831804e-05
"5" -0.000151731054112918 -0.000225326185287398 0.000161604768007251 3.61621876972817e-05 -0.000104899342586622 -0.000255649540894251 -0.000307451650450355 -0.000297104178124976 0.00245724818693035 7.55915156509512e-05 0.000381929292983163 -0.000285064920231558 -0.000121388784188762 -7.18377346552167e-05 0.000318470680007072 9.2412082446023e-05
"6" -0.000152839216871005 -0.000227618417837513 0.000163073731919822 3.74416402050013e-05 -0.000103158059563141 -0.000255007247197045 -0.000303773329624728 -0.000300259446555689 0.00240824584658909 8.47230232116284e-05 0.000388493326110273 -0.000279252603596986 -0.000109758772207212 -6.23147835277796e-05 0.000315151665239613 9.5969254569543e-05
"7" -0.000152718360328961 -0.000228530289423361 0.000164901981212538 3.93810408018931e-05 -0.00010095849510024 -0.000253843952008368 -0.000298793407643902 -0.000302934060048368 0.00234862115501811 9.38820569713086e-05 0.000394625728593957 -0.000273356570645695 -9.77312790230502e-05 -5.34404551982149e-05 0.000311451153113394 9.98488756891535e-05
"8" -0.000151354828727536 -0.000228038429323543 0.000167067999629491 4.19640840425105e-05 -9.83158447427304e-05 -0.000252168875982655 -0.000292534191718412 -0.000305097358994674 0.00227878909865356 0.000102978740026413 0.000400269804586568 -0.000267428943310744 -8.53201692234573e-05 -4.52758096252234e-05 0.000307367583521022 0.000104000874274251
"9" -0.000148749847397349 -0.000226135355504856 0.000169538626914785 4.51664457454598e-05 -9.52523729174354e-05 -0.000250000180211309 -0.000285042739285196 -0.000306740244933438 0.00219923756224968 0.000111906572883216 0.000405369798683589 -0.000261532608437031 -7.25617879855258e-05 -3.78743167441746e-05 0.000302894256593584 0.000108365751949891
"10" -0.000144927713611513 -0.000222830679648313 0.000172283466145334 4.89598130680113e-05 -9.1789567463552e-05 -0.000247362819973711 -0.000276372143141054 -0.000307847656022323 0.00211053141659192 0.000120568465078187 0.000409868037739594 -0.000255730016063562 -5.94870085883411e-05 -3.1280954436254e-05 0.000298029897741769 0.000112879069921849
"11" -0.00013991430751306 -0.000218133949964944 0.000175261833520329 5.33057258526456e-05 -8.79643573191639e-05 -0.000244283314347795 -0.000266592420791564 -0.000308411605463089 0.00201330153862803 0.00012885757299901 0.000413716510553446 -0.000250085589161854 -4.61353144148327e-05 -2.55355744573824e-05 0.000292769149664821 0.000117470409604564
"12" -0.000133760499595534 -0.000212080241986243 0.000178430522198157 5.81644382441323e-05 -8.38086998907274e-05 -0.000240796500576455 -0.000255783319592691 -0.000308430048765666 0.00190824606953097 0.000136672063146766 0.00041685914892091 -0.000244667772441839 -3.25542551290929e-05 -2.06675895475278e-05 0.000287103333497919 0.000122063928454158
"13" -0.000126524425026403 -0.000204710536219553 0.00018174492098712 6.34864241103214e-05 -7.93666848188089e-05 -0.000236940312067087 -0.000244042367572939 -0.000307908041037225 0.00179612499429955 0.000143903233815848 0.000419252542935306 -0.000239540631180121 -1.87916088777849e-05 -1.66947515834427e-05 0.000281032638600106 0.000126579772276946
"14" -0.000118270235260124 -0.000196074021600732 0.000185156280665725 6.92223770235518e-05 -7.46860290521976e-05 -0.000232757924329771 -0.000231467210072 -0.000306857065629204 0.0016777517774411 0.000150450897293081 0.000420856116976533 -0.000234768819702316 -4.90209383533015e-06 -1.3632674720467e-05 0.000274544330528484 0.000130937845767207
"15" -0.000109088312869165 -0.000186234528276081 0.000188617075886804 7.5315368498989e-05 -6.9816191270164e-05 -0.000228294773797354 -0.000218179069957077 -0.000305290971725203 0.00155398698151639 0.000156217993677513 0.00042162903265565 -0.000230421566060202 9.05228246714117e-06 -1.14848963979613e-05 0.000267637287969813 0.00013505359786375
"16" -9.90731399723861e-05 -0.000175269318532967 0.000192075225785221 8.17047210132644e-05 -6.48118249806289e-05 -0.000223605102282754 -0.000204297783063059 -0.000303232736180942 0.00142573524568445 0.000161109207950412 0.0004215413905036 -0.0002265551678281 2.3014250573499e-05 -1.02448346598441e-05 0.000260304387651355 0.000138841170209995
"17" -8.83239344594351e-05 -0.000163261546267718 0.000195473114922015 8.83225633603088e-05 -5.97314258215089e-05 -0.00021874221826954 -0.000189956633608166 -0.000300711244887709 0.00129393223839799 0.000165033189216933 0.000420563649807793 -0.000223233294692413 3.69176180471029e-05 -9.90689817554259e-06 0.000252538687741001 0.000142216673154091
"18" -7.6960716173913e-05 -0.000150304265831566 0.000198760553846757 9.510375926381e-05 -5.46385629149722e-05 -0.000213764802209505 -0.000175290224301752 -0.000297758940821247 0.00115953986602474 0.000167906369589651 0.000418673808435493 -0.000220508252552409 5.06941394158574e-05 -1.04506825185063e-05 0.000244333639257223 0.00014509586127356
"19" -6.51037384227806e-05 -0.000136499197205042 0.000201887613936396 0.000101978370055286 -4.95942761641072e-05 -0.000208731825154776 -0.000160442355929074 -0.000294410200618059 0.00102353712608124 0.000169655753639653 0.00041586011929146 -0.000218428469779892 6.42790376538055e-05 -1.18441265823283e-05 0.000235689671238991 0.000147399630673078
"20" -5.28791960206336e-05 -0.000121954700409444 0.000204802152315555 0.000108876058073572 -4.4663699806733e-05 -0.0002037065477167 -0.000145555688059857 -0.00029071331770177 0.000886902300639921 0.000170213727498471 0.000412112484265 -0.000217040819185761 7.76016552644984e-05 -1.40590549714756e-05 0.000226600281830814 0.000149049503702566
"21" -4.04229482323263e-05 -0.000106789137725979 0.000207445921035229 0.000115723923149617 -3.9916179771839e-05 -0.00019875061663204 -0.000130780581727177 -0.000286714593432055 0.00075061735089304 0.000169521824339626 0.000407425880758355 -0.0002163845518846 9.05942591195936e-05 -1.70593576058084e-05 0.000217065239367174 0.000149972940476762
"22" -2.78746112222822e-05 -9.1119090333484e-05 0.000209779111834124 0.00012244620388767 -3.54153761492551e-05 -0.000193930910624094 -0.000116258562468679 -0.000282465129120268 0.000615644672598201 0.00016753457300305 0.000401808154178809 -0.000216489478282988 0.000103189803863275 -2.07968739785188e-05 0.000207083173227653 0.00015010232115297
"23" -1.53709356198941e-05 -7.50710962304502e-05 0.000211750876260208 0.000128973605182204 -3.12238831565237e-05 -0.000189308345883846 -0.00010213987686608 -0.000278020910409893 0.000482924974930468 0.000164210612183213 0.00039526944270613 -0.000217382262892815 0.000115317739239129 -2.52292108744757e-05 0.000196660189894444 0.000149375182956418
"24" -3.05551022131026e-06 -5.87743685377047e-05 0.000213316148575902 0.000135229982992604 -2.7411595648867e-05 -0.000184949967353941 -8.85654731762719e-05 -0.000273441236044219 0.000353353258212081 0.000159523411490655 0.000387826401826286 -0.000219083007439932 0.000126915297617399 -3.02997540888799e-05 0.000185796923068187 0.000147737684901163
"25" 8.93573617181194e-06 -4.23597192327307e-05 0.000214439288508283 0.00014115043853505 -2.40382616455606e-05 -0.000180917072649247 -7.56722404845682e-05 -0.000268787261967837 0.000227791688916763 0.000153460454393909 0.000379505422470919 -0.00022159664884669 0.000137917928051768 -3.59596224032048e-05 0.000174503498948372 0.000145146037157156
"26" 2.04581788692911e-05 -2.59551995840351e-05 0.00021507936832093 0.000146659609649453 -2.11622139383772e-05 -0.000177270729823842 -6.35928397695025e-05 -0.000264125232300998 0.000107036363071129 0.000146011366082965 0.000370332486448099 -0.000224934576577356 0.000148266636959082 -4.21479589549632e-05 0.000162784720056421 0.000141556385952676
"27" 3.13818385849889e-05 -9.69509143440114e-06 0.000215204679521159 0.000151695873384311 -1.88433128836631e-05 -0.000174071703993429 -5.24491182334403e-05 -0.000259522683402662 -8.17667589182177e-06 0.000137181696157903 0.000360340979537449 -0.000229094598500475 0.0001578957070759 -4.88166810514348e-05 0.000150652559881927 0.000136941916679442
"28" 4.15763327554568e-05 6.29047271701427e-06 0.000214791776167491 0.000156193640295123 -1.71355932431874e-05 -0.000171373615918504 -4.23615054074525e-05 -0.000255043117565764 -0.00011717427105778 0.000126987961347641 0.000349571730005267 -0.000234063089967899 0.00016675347997313 -5.59027046232591e-05 0.000138120581544686 0.000131279014671743
"29" 5.09207152612997e-05 2.18782542703691e-05 0.000213809331652392 0.000160095970749834 -1.60848270288267e-05 -0.000169232824145991 -3.34332706954348e-05 -0.000250755685266088 -0.000219374660673442 0.000115458936373698 0.00033807296642398 -0.000239823947714961 0.000174791479090162 -6.33485988739035e-05 0.000125206740633193 0.000124558783907295
"30" 5.92977396809315e-05 3.69392395819224e-05 0.000212244233031962 0.00016334607825678 -1.57345012261308e-05 -0.000167695909840314 -2.57599892179964e-05 -0.000246733325729746 -0.000314270120818179 0.000102626102140772 0.000325889873480223 -0.000246357158648249 0.000181958331618644 -7.11058930995803e-05 0.000111928771021764 0.000116778439284766
"31" 6.66037827915545e-05 5.13580482385201e-05 0.000210083142025537 0.000165894640547796 -1.61208524550971e-05 -0.000166808322465982 -1.94226817018313e-05 -0.00024303704107778 -0.000401451098067511 8.85375434187278e-05 0.000313076883789229 -0.000253627205991217 0.000188213224323805 -7.91142855970917e-05 9.83073397348533e-05 0.000107945387393371
"32" 7.27471372802077e-05 6.50248016635431e-05 0.000207315752475409 0.000167696214290808 -1.72784272672356e-05 -0.000166611025026861 -1.4492594453327e-05 -0.000239737289513697 -0.000480580452072802 7.32482929191986e-05 0.000299688312077903 -0.000261603305585451 0.000193518046992873 -8.73249944742946e-05 8.43707093985462e-05 9.80774193403005e-05
"33" 7.76378156101471e-05 7.78280424158419e-05 0.000203940477526473 0.000168714784149571 -1.9234119280429e-05 -0.000167138431583465 -1.10272147885574e-05 -0.000236893779512841 -0.000551422344794507 5.68183145389609e-05 0.000285783602777663 -0.000270248168554567 0.000197837144713886 -9.56894823776011e-05 7.01402027045611e-05 8.72009578213842e-05
"34" 8.12126837370268e-05 8.96694576960366e-05 0.000199955872381018 0.000168913717984452 -2.20008778167794e-05 -0.000168419608628425 -9.06518716015859e-06 -0.000234573425334571 -0.000613835352113584 3.93210580974296e-05 0.000271420232116636 -0.000279509830365229 0.00020114195558925 -0.000104165844622831 5.56476631339711e-05 7.53510320728402e-05
"35" 8.34118748218204e-05 0.000100463710017229 0.000195378042760934 0.00016827132355517 -2.55914642991658e-05 -0.000170476856803025 -8.63769652106468e-06 -0.000232832466189175 -0.000667755538425572 2.08369189825139e-05 0.000256667172272251 -0.000289337196578902 0.000203418746915828 -0.00011270392225803 4.09306955664655e-05 6.25774305493002e-05
"36" 8.41929605006597e-05 0.000110130381563565 0.000190212460475211 0.00016676793330578 -3.0013198435362e-05 -0.000173327718726343 -9.75192272128798e-06 -0.000231721356036504 -0.000713210256616138 1.44448950727838e-06 0.000241583160482516 -0.000299678701949752 0.000204643085714924 -0.000121269216629463 2.60176137083016e-05 4.89325166289096e-05
"37" 8.35297763048117e-05 0.000118597104384668 0.000184480886934238 0.000164388424720806 -3.52572210535359e-05 -0.00017698183535482 -1.24098349193512e-05 -0.000231293030369975 -0.000750307945506868 -1.87638978000949e-05 0.000226230506864123 -0.000310477921256214 0.00020480787404415 -0.000129830889400227 1.09495519409553e-05 3.44811346747263e-05
"38" 8.14078162002811e-05 0.000125807793342323 0.000178207392799785 0.000161133631017002 -4.13132408739562e-05 -0.000181444034331498 -1.65876041121353e-05 -0.00023158814476692 -0.000779243972897991 -3.96924965916103e-05 0.000210679888675193 -0.000321666976016812 0.000203914958243667 -0.000138351098863987 -4.23210471685612e-06 1.92913286391202e-05
"39" 7.78299821909691e-05 0.000131718016481266 0.000171422409715211 0.000157005606225138 -4.81618192001236e-05 -0.000186710479640218 -2.22578496620182e-05 -0.0002326496759954 -0.000800269458517979 -6.1239185350487e-05 0.000194989026142535 -0.000333186105292905 0.000201964762455595 -0.000146801536739313 -1.94861237636719e-05 3.4473252454157e-06
"40" 7.28150696967791e-05 0.000136287752315285 0.000164155963897517 0.000152014736328979 -5.57767929883937e-05 -0.00019276802826757 -2.93659346264193e-05 -0.000234503767446339 -0.000813711315283328 -8.3303853744523e-05 0.0001792267721905 -0.000344967700848985 0.000198969228237886 -0.000155160221163057 -3.4768220134553e-05 -1.29705300329826e-05
"41" 6.63966211417159e-05 0.000139501139191146 0.000156449967140421 0.000146182866864346 -6.41232234037193e-05 -0.000199601411857921 -3.78522331709844e-05 -0.000237179229760696 -0.000819938974697375 -0.000105778525156207 0.000163454704404531 -0.000356938938146888 0.000194948346528597 -0.000163400150488221 -5.00286590682764e-05 -2.98619996772174e-05
"42" 5.86223110292529e-05 0.000141345618894693 0.000148346709356018 0.000139534950356123 -7.31585015414074e-05 -0.000207185308709084 -4.76415331250023e-05 -0.000240692170428744 -0.000819389404199602 -0.000128558473396962 0.00014773276279985 -0.000369033873229642 0.000189928386812085 -0.00017150612155732 -6.52191818851846e-05 -4.71362154328784e-05
"43" 4.95558921613091e-05 0.000141826258364374 0.000139894508440781 0.000132111310020159 -8.28295492641383e-05 -0.000215485897314882 -5.86432922655034e-05 -0.000245050690527885 -0.00081252794305395 -0.000151529444588947 0.000132125617089742 -0.00038117851282006 0.000183946782566776 -0.00017945492622531 -8.02859242743153e-05 -6.46835062162247e-05
"44" 3.92780483936969e-05 0.000140957339386249 0.000131141796131853 0.000123947533189224 -9.30887225169006e-05 -0.000224466886546753 -7.07544012706474e-05 -0.000250260518867543 -0.000799866289560911 -0.000174582990992422 0.000116688247829509 -0.000393302156389602 0.000177038250744261 -0.000187232695160619 -9.51786781008085e-05 -8.23996307864543e-05
"45" 2.78741622190764e-05 0.000138768048019968 0.000122143138223626 0.000115100715115593 -0.000103865972215696 -0.000234080993845019 -8.38657565475366e-05 -0.000256310577145032 -0.000781933687279617 -0.000197604247630065 0.000101480936842093 -0.000405327767640011 0.000169260963123643 -0.000194820998956177 -0.000109836492073692 -0.000100170309516432
"46" 1.54503456468609e-05 0.000135298680950932 0.000112957821802952 0.000105625893688495 -0.000115097695710279 -0.00024427884703125 -9.7852344103393e-05 -0.000263190009304169 -0.000759288217438717 -0.000220484162079793 8.65571027482696e-05 -0.0004171840426389 0.000160667989036995 -0.00020220681946625 -0.000124204256535338 -0.000117882362669318
"47" 2.12373132431662e-06 0.000130602831304744 0.000103643849923975 9.5587352693177e-05 -0.000126711793318764 -0.000255002956639212 -0.000112584831053561 -0.000270870412959145 -0.000732500155256456 -0.000243113374135307 7.19697971741918e-05 -0.000428799186544426 0.000151324271830885 -0.00020937475756598 -0.000138227336943518 -0.000135417295560742
"48" -1.19843711194643e-05 0.000124743244343359 9.42666856508528e-05 8.5055777647542e-05 -0.000138624865608154 -0.000266187807020784 -0.000127924480533301 -0.000279326041583012 -0.000702150859392091 -0.000265378892599657 5.77734575445375e-05 -0.000440095824416319 0.000141305599822392 -0.000216308832146182 -0.000151839034158689 -0.000152658142226381
"49" -2.67372577573184e-05 0.000117795106012486 8.48842052653082e-05 7.41073393892049e-05 -0.000150762284600607 -0.000277767627718879 -0.000143725009899874 -0.000288516292512448 -0.000668813736254307 -0.000287177029707622 4.4012085477121e-05 -0.000451005332592197 0.000130689914516621 -0.000222993144743613 -0.000164982961206248 -0.000169483097236849
"50" -4.19950823682493e-05 0.000109841622706497 7.55640016807338e-05 6.28231842255639e-05 -0.000163034379375077 -0.000289669406180627 -0.000159837495227381 -0.000298391973874966 -0.000633073912789074 -0.000308399480219684 3.07360344718283e-05 -0.000461457349909272 0.000119564017031506 -0.000229410576322031 -0.000177600194263487 -0.000185779125263498
"51" -5.76087362227698e-05 0.000100972085830875 6.63696186584412e-05 5.12896288756792e-05 -0.000175357013831199 -0.000301816791003506 -0.000176112856420118 -0.000308900790945209 -0.000595500055904926 -0.000328947810060865 1.79834569086927e-05 -0.000471382371737734 0.000108017116717332 -0.000235542331284711 -0.00018962695660635 -0.000201426994013333
"52" -7.342506944311e-05 9.12905123967375e-05 5.73650470664221e-05 3.95934872116015e-05 -0.000187640867373861 -0.000314132470978653 -0.000192393132384594 -0.000319980910793904 -0.00055665531954651 -0.000348723629947816 5.80084368034705e-06 -0.000480712348861591 9.61509235589076e-05 -0.000241364569367974 -0.000201001672233043 -0.000216311421432662
"53" -8.92883477164737e-05 8.08990549127595e-05 4.86147512621488e-05 2.78288594322042e-05 -0.000199798038106781 -0.00032653119563181 -0.000208525561710699 -0.000331565433854616 -0.000517072865926071 -0.000367631982855374 -5.7767349944341e-06 -0.000489384480739972 8.40688182094598e-05 -0.000246858540161644 -0.000211668380250664 -0.000230323080623812
"54" -0.00010504198853472 6.99138556295206e-05 4.01829413307623e-05 1.6092788242872e-05 -0.000211736315732285 -0.000338931763883306 -0.000224357895188418 -0.000343579267560901 -0.000477281131069296 -0.000385580645386508 -1.67099050437841e-05 -0.000497329632784975 7.18764607822561e-05 -0.000252000076569428 -0.000221562139063047 -0.000243353215986393
"55" -0.000120527780624745 5.8449694929102e-05 3.2127648463419e-05 4.47589934897878e-06 -0.000223369025620997 -0.00035124890338955 -0.000239742256402315 -0.000355943485446715 -0.000437775663591421 -0.000402491582442624 -2.69737686727457e-05 -0.000504499886066605 5.96842981845094e-05 -0.000256757781504353 -0.000230635939837775 -0.000255299700219003
"56" -0.00013559131035525 4.66231164608316e-05 2.45069409050576e-05 -6.92272444807339e-06 -0.000234610972815497 -0.000363397555235431 -0.000254531277764881 -0.000368579970328461 -0.000399034565908262 -0.000418281592865915 -3.65319734417717e-05 -0.000510829422332223 4.76092747403355e-05 -0.000261104211374855 -0.000238826267449067 -0.000266064634901261
"57" -0.000150078019931598 3.455739215207e-05 1.73764052039783e-05 -1.80109884200224e-05 -0.00024537941198442 -0.000375293137572376 -0.00026858820140506 -0.00038139582500314 -0.000361501623799566 -0.000432880114229693 -4.53616888009654e-05 -0.000516267786333751 3.57634895226204e-05 -0.000265010368848897 -0.000246084380496466 -0.000275558014848319
"58" -0.000163843119578547 2.23730684105498e-05 1.0785210080178e-05 -2.86906441782324e-05 -0.000255588552791701 -0.000386853740436882 -0.000281777283142355 -0.00039430489767523 -0.000325583961421673 -0.000446220683023365 -5.34380680577889e-05 -0.000520768135108905 2.42662944384829e-05 -0.000268439021466132 -0.000252362873467173 -0.000283696990508864
"59" -0.000176744249770985 1.01924427167471e-05 4.78055788810158e-06 -3.88749784101931e-05 -0.000265166926416072 -0.000397996736418052 -0.000293978218540697 -0.000407215759261785 -0.000291669751898325 -0.000458245355769584 -6.07424152687871e-05 -0.000524284468310286 1.32296511549785e-05 -0.000271360110493185 -0.000257613831576843 -0.00029040541549332
"60" -0.000188648920553121 -1.86912512308783e-06 -5.95208593216003e-07 -4.84737923548108e-05 -0.000274045814081414 -0.000408643659950503 -0.000305074388061402 -0.000420035506191436 -0.00026009567699924 -0.000468901306891876 -6.7256050272259e-05 -0.000526782191149602 2.77023348175901e-06 -0.000273730492057949 -0.000261800234437354 -0.000295619033822142
"61" -0.000199429098821539 -1.3694984818736e-05 -5.30157855781395e-06 -5.73987343425095e-05 -0.000282151124364726 -0.000418718857520884 -0.000314963334351531 -0.000432671656323405 -0.000231168767027858 -0.000478144486030908 -7.29666304899463e-05 -0.000528219350910133 -6.99505730788331e-06 -0.00027551493894501 -0.00026488206132582 -0.000299277676719146
"62" -0.000208977839317587 -2.51735728987043e-05 -9.31556453908454e-06 -6.55781112701566e-05 -0.000289430092126669 -0.000428152674883186 -0.000323554783741075 -0.000445036653899849 -0.000205161782488637 -0.000485946806489536 -7.7868584236649e-05 -0.000528576751445501 -1.59655673740936e-05 -0.000276679103058296 -0.000266835644966877 -0.00030133801186669
"63" -0.000217188590046042 -3.62023620452543e-05 -1.26029541293034e-05 -7.29298805150507e-05 -0.0002958266857358 -0.000436879214774702 -0.000330770685095357 -0.000457030255331792 -0.00018230008944258 -0.000492270212907744 -8.19474408501332e-05 -0.000527821421433592 -2.4026730192803e-05 -0.000277174900184332 -0.000267630053519502 -0.000301758033968809
"64" -0.000223973884418487 -4.66797262219893e-05 -1.51519632427425e-05 -7.93902827313005e-05 -0.000301298335399067 -0.000444836531912332 -0.00033654286404193 -0.000468575598530018 -0.000162765788518336 -0.000497105939281217 -8.52078193212369e-05 -0.000525944610804368 -3.10863740362829e-05 -0.000276974799495803 -0.000267251867999463 -0.000300517681005124
"65" -0.000229258549131628 -5.65151612596364e-05 -1.69455872263564e-05 -8.49002825434532e-05 -0.000305805257723136 -0.000451968894476165 -0.000340822680972412 -0.000479582896294026 -0.000146714501593662 -0.000500437069988584 -8.76463204799442e-05 -0.000522927083670458 -3.70492055372014e-05 -0.000276032204762575 -0.000265688078481838 -0.000297596851404857
"66" -0.0002329859339905 -6.56279115028093e-05 -1.79786988066377e-05 -8.94076378511789e-05 -0.000309318574859257 -0.000458231783101317 -0.000343573086435238 -0.000489973798816721 -0.000134245022457427 -0.000502273072269069 -8.92744328501958e-05 -0.000518776489948305 -4.18314957252964e-05 -0.000274314958980002 -0.000262939694632128 -0.000293001021706183
"67" -0.000235102842868726 -7.39415283416545e-05 -1.8252590806995e-05 -9.28657634886629e-05 -0.000311817189178115 -0.000463580764553283 -0.000344770388751376 -0.000499668936590944 -0.000125422946802962 -0.000502616312851343 -9.00935600425445e-05 -0.000513486631888712 -4.53544589747225e-05 -0.000271788744582822 -0.000259007750011285 -0.000286731934573645
"68" -0.000235589168971634 -8.13926500011619e-05 -1.77725922225452e-05 -9.52375945044505e-05 -0.000313288616719102 -0.000467983704669774 -0.000344409926169301 -0.000508602450532059 -0.000120262910206933 -0.000501488052386793 -9.01218807735378e-05 -0.000507070789407756 -4.75519224573988e-05 -0.000268423656554096 -0.000253902995375466 -0.000278813772589375
"69" -0.000234424429427866 -8.79308862547463e-05 -1.65610365679288e-05 -9.65034650855889e-05 -0.00031373193561536 -0.000471413350155425 -0.000342499886583339 -0.0005167132129391 -0.000118751896385646 -0.000498925462742323 -8.9378942167448e-05 -0.000499553059005691 -4.83746309653481e-05 -0.000264192252489993 -0.000247653037404192 -0.000269287043371847
"70" -0.000231619408493255 -9.35086766553557e-05 -1.46312003140227e-05 -9.66417780315719e-05 -0.000313149736421171 -0.000473852105626445 -0.000339063986857619 -0.000523938728527652 -0.000120822089819059 -0.000494954032373018 -8.78791239913001e-05 -0.000490948587435465 -4.77648049817661e-05 -0.000259069329607645 -0.000240281010387748 -0.000258188374483555
"71" -0.000227187569606453 -9.80933092541539e-05 -1.20177206662375e-05 -9.56477365011994e-05 -0.000311555089798014 -0.000475289456357355 -0.000334141011087173 -0.000530228879648641 -0.000126369733428088 -0.000489631863602036 -8.56521080642294e-05 -0.000481297392440144 -4.56951375066643e-05 -0.000253039687665142 -0.000231827295169223 -0.000245580011531101
"72" -0.000221168360603538 -0.000101667481405399 -8.74959210711171e-06 -9.35263725846649e-05 -0.000308976219161152 -0.000475724089154465 -0.000327781359233645 -0.000535547745929556 -0.000135264015689441 -0.000483011784373334 -8.27269927261728e-05 -0.0004706395195265 -4.21482678402489e-05 -0.000246092248472618 -0.000222338743890543 -0.000231533560094971
"73" -0.000213611375426138 -0.000104218928793095 -4.8715067320623e-06 -9.02890579334044e-05 -0.000305436286145346 -0.000475159435411033 -0.000320054580737781 -0.000539857547891704 -0.000147330762282337 -0.000475158646170643 -7.91341377929093e-05 -0.000459016468035005 -3.71049121001073e-05 -0.000238215930134808 -0.000211870513358796 -0.00021612786094893
"74" -0.000204591928828884 -0.000105749903970436 -4.29004336648789e-07 -8.59611971102894e-05 -0.000300981656071948 -0.000473614128206542 -0.000311038304167281 -0.000543128481751289 -0.000162370673519819 -0.000466151344766091 -7.49118637769916e-05 -0.000446491901538736 -3.05793736491613e-05 -0.000229416475827001 -0.000200486892026097 -0.000199457616327797
"75" -0.000194184890295538 -0.000106273869697209 4.52613773060064e-06 -8.0576287933642e-05 -0.000295656674545589 -0.000471108295491712 -0.000300824026457701 -0.000545352028082173 -0.000180153346698138 -0.000456069969822912 -7.01001393555795e-05 -0.000433123566120462 -2.25863315573841e-05 -0.000219702831780207 -0.000188256793874355 -0.000181623030553637
"76" -0.000182490228309321 -0.000105812009220202 9.94221582021214e-06 -7.41767795737439e-05 -0.000289515142874967 -0.000467671321614708 -0.000289515703764804 -0.000546505822937588 -0.000200416096714873 -0.000444999977275451 -6.47417593271134e-05 -0.000418974076920211 -1.31490282491499e-05 -0.000209079974364371 -0.000175259235661023 -0.000162735955353823
"77" -0.000169622350672079 -0.000104398420264856 1.57512563785296e-05 -6.68172391364714e-05 -0.000282617228809611 -0.000463341650152015 -0.000277225728799122 -0.00054660203907896 -0.000222895230890322 -0.000433041371246569 -5.88837237710389e-05 -0.000404123330349874 -2.31904692098556e-06 -0.000197577927142639 -0.000161581622740186 -0.000142919651613659
"78" -0.000155698856190224 -0.000102076691921245 2.18953958562754e-05 -5.85591839292958e-05 -0.000275034850374974 -0.000458162676144432 -0.000264076835067778 -0.000545636437629068 -0.000247292103440237 -0.000420297287585517 -5.25759270260767e-05 -0.00038865245046668 9.85074947741109e-06 -0.000185229898387704 -0.000147317711091786 -0.000122301428869373
"79" -0.000140855029767158 -9.88933816718607e-05 2.83049500481372e-05 -4.94696285168928e-05 -0.000266834677839629 -0.000452186946034673 -0.000250197836220116 -0.000543632922480618 -0.000273314647399222 -0.000406873438835521 -4.58665236356407e-05 -0.000372641768470639 2.32886653224158e-05 -0.000172074415895978 -0.000132561095448134 -0.00010101479741167
"80" -0.000125232027035312 -9.4913975320523e-05 3.49123023752425e-05 -3.96325196317292e-05 -0.000258098625566602 -0.000445472912789426 -0.000235726467735142 -0.000540609835894199 -0.000300656959305949 -0.000392883299417667 -3.88156735219968e-05 -0.000356183956183933 3.79181677068103e-05 -0.000158158100890868 -0.000117420884523989 -7.92056532526297e-05
"81" -0.000108981831765902 -9.02010493444032e-05 4.16474837347239e-05 -2.9128797155365e-05 -0.0002489050495235 -0.00043808118017373 -0.000220805353394353 -0.000536600106542657 -0.000329015061370621 -0.000378439540406134 -3.1473199436451e-05 -0.000339370282507148 5.36438836338611e-05 -0.000143536057554013 -0.000102000293501341 -5.70150071196713e-05
"82" -9.22647144738403e-05 -8.48323478652696e-05 4.8438687252263e-05 -1.80492168817584e-05 -0.000239337389419134 -0.000430079147131921 -0.000205573456379928 -0.000531636522815473 -0.000358088517929765 -0.000363660677787467 -2.38981553512096e-05 -0.000322297231568509 7.03671763214092e-05 -0.000128278537400895 -8.64135404769732e-05 -3.45950271769889e-05
"83" -7.52370265188116e-05 -7.88863923007735e-05 5.52151022304957e-05 -6.49286702612584e-06 -0.000229487696373441 -0.000421540397183771 -0.000190182688451823 -0.000525766691789663 -0.000387592569035807 -0.000348664929500675 -1.61522676776e-05 -0.000305063797946461 8.7970275407802e-05 -0.000112454668110713 -7.07754797960567e-05 -1.20951697928893e-05
"84" -5.80660266758327e-05 -7.24465529128528e-05 6.1907505487429e-05 5.44009011336372e-06 -0.000219440000312083 -0.000412540107382128 -0.00017477591878001 -0.000519040332117585 -0.00041724665927474 -0.000333576830186337 -8.2910962480427e-06 -0.000287772136861087 0.000106336656333189 -9.61469893996342e-05 -5.51995611886014e-05 1.03309326234093e-05
"85" -4.09188293786434e-05 -6.55989902190783e-05 6.84488660306351e-05 1.76441948374815e-05 -0.00020928227761547 -0.000403158109652275 -0.000159498597557411 -0.000511509727255863 -0.00044679607670591 -0.000318504938804852 -3.75092870888256e-07 -0.000270515830079539 0.000125338417497448 -7.94424429230847e-05 -3.9798879659793e-05 3.2536049573919e-05
"86" -2.39600267334259e-05 -5.84355212196993e-05 7.47703932189898e-05 3.00127521832937e-05 -0.000199105907322635 -0.00039347121281114 -0.000144495894414468 -0.000503238334675824 -0.000476006838720447 -0.000303575136339194 7.53723215432416e-06 -0.000253402569139565 0.000144838852885967 -6.24405057826671e-05 -2.46951489370704e-05 5.43655596968762e-05
"87" -7.34932382039935e-06 -5.10475133208386e-05 8.08133598803969e-05 4.24408598333039e-05 -0.000188995026001615 -0.000383563653275839 -0.000129901629003909 -0.000494291403086758 -0.000504663405928137 -0.000288899032049001 1.53830040260625e-05 -0.000236524264835765 0.000164699140035108 -4.52402873099846e-05 -9.99715177376802e-06 7.5678407864237e-05
"88" 8.75417663459484e-06 -4.35241894171617e-05 8.65184892396844e-05 5.48181461725199e-05 -0.000179036656757295 -0.00037351572869522 -0.000115848085552865 -0.000484733445914535 -0.000532584857457982 -0.000274580601646556 2.3113961001863e-05 -0.000219978534608005 0.000184778607677997 -2.79483562087526e-05 4.18755897347267e-06 9.63333240127109e-05
"89" 2.41971054237341e-05 -3.59544749994118e-05 9.18315714069785e-05 6.70391437271411e-05 -0.00016930823997842 -0.000363408723585463 -0.000102463387068109 -0.000474634517744613 -0.000559609466758052 -0.00026072874277538 3.0667590532764e-05 -0.000203856971352282 0.000204930978426746 -1.06801368841428e-05 1.77483761511444e-05 0.000116193315999877
"90" 3.88387363219819e-05 -2.84324396887159e-05 9.67025331398393e-05 7.89971464123637e-05 -0.00015989237335923 -0.000353322263127559 -8.98590128011729e-05 -0.000464065552552217 -0.000585611192219155 -0.000247442244197486 3.79936033585149e-05 -0.000188248448215885 0.000225010385635692 6.45406079655451e-06 3.05872497391185e-05 0.000135134010693509
"91" 5.25393759004951e-05 -2.10360376918759e-05 0.000101088982717607 9.05925831107275e-05 -0.000150859681697376 -0.000343335474111772 -7.81419366249366e-05 -0.000453104785273002 -0.000610497485008876 -0.000234811727494794 4.50373174708855e-05 -0.000173238803874497 0.000244870384742621 2.33311825028214e-05 4.26081797657594e-05 0.000153034863670822
"92" 6.5180451448096e-05 -1.3852480597924e-05 0.000104954708345533 0.00010172631903945 -0.000142279067748577 -0.000333522597689816 -6.74098946314875e-05 -0.000441824412957585 -0.00063419219761316 -0.000222922611577103 5.1754424162099e-05 -0.000158902211744314 0.000264371483771817 3.98301238443261e-05 5.37223749397184e-05 0.000169784938487368
"93" 7.66511314516843e-05 -6.95233172524505e-06 0.000108268657379302 0.000112311841912257 -0.000134212464078528 -0.000323955313124853 -5.77423896570759e-05 -0.000430290612228483 -0.000656649134389302 -0.000211843347697175 5.80993766871407e-05 -0.000145306569211737 0.000283373322055236 5.58311627975618e-05 6.38550237274674e-05 0.000185290147213842
"94" 8.68518813573238e-05 -4.10518599108685e-07 0.000111004322434519 0.000122254434115498 -0.000126715846865321 -0.000314700698600168 -4.92120709820409e-05 -0.000418586460115666 -0.000677843604758017 -0.000201650587226133 6.40296287082555e-05 -0.000132524272256113 0.000301736431031756 7.12077667362191e-05 7.2930885539311e-05 0.000199458121769587
"95" 9.57030465000356e-05 5.71005320165836e-06 0.000113143654145377 0.000131484278033494 -0.000119835770817478 -0.000305819301625186 -4.18761102963245e-05 -0.000406771527495965 -0.000697774276245268 -0.000192393907116658 6.9508248691826e-05 -0.000120604294759722 0.000319339767092714 8.58454482198213e-05 8.08909827862809e-05 0.000212216267605268
"96" 0.000103133313145207 1.13544392963294e-05 0.000114680428821014 0.000139925855976185 -0.000113618797100088 -0.000297369877457342 -3.57804060871996e-05 -0.000394924646068816 -0.000716450096485821 -0.000184126413887954 7.44975308610023e-05 -0.000109601483957305 0.000336055390985964 9.96232994088942e-05 8.76821209146685e-05 0.000223497743857792
"97" 0.000109096101635322 1.64707150648333e-05 0.000115606021943061 0.000147521413539074 -0.000108094036422252 -0.000289401463580889 -3.094856799517e-05 -0.000383097911617784 -0.000733906066085819 -0.000176872825521562 7.89771297533858e-05 -9.95437386100446e-05 0.000351779405888442 0.000112431646918439 9.32719059481671e-05 0.000233259437339482
"98" 0.000113551346990434 2.10217128620586e-05 0.000115929007438488 0.000154213983339934 -0.000103288229737205 -0.000281959753428419 -2.73994282415167e-05 -0.000371364505203134 -0.000750173307114196 -0.000170666777444312 8.29130028879015e-05 -9.0472367813075e-05 0.000366399268079205 0.000124158807525356 9.76252122977934e-05 0.000241458588438076
"99" 0.000116486518688452 2.49724971592146e-05 0.000115655767033331 0.000159962808322182 -9.92219281818196e-05 -0.000275081060188855 -2.51334643849966e-05 -0.000359775392044417 -0.000765303763910746 -0.000165523166332343 8.62929943458558e-05 -8.24045293847718e-05 0.000379830475859844 0.000134702414736098 0.000100728061628177 0.000248077093188852
"100" 0.000117900392041957 2.8298776289105e-05 0.000114802064554263 0.000164735384770714 -9.59015702698392e-05 -0.000268796574023727 -2.41374198093969e-05 -0.000348381702641978 -0.000779341493412454 -0.000161439134421264 8.90985321045458e-05 -7.5350100349828e-05 0.000391989124887648 0.000143971610502607 0.000102580198102883 0.000253104907013434
"101" 0.000117809860936463 3.09893950717222e-05 0.00011339093738107 0.000168504378491985 -9.33329578641295e-05 -0.000263128025906979 -2.43845322161408e-05 -0.000337234046086161 -0.000792339886188742 -0.000158416833382254 9.13208563277232e-05 -6.93196821588097e-05 0.000402802858276622 0.00015187528085403 0.00010318106426223 0.000256546115796421
"102" 0.000116244032592618 3.30340647190241e-05 0.000111454048278647 0.000171259868645477 -9.15077068110572e-05 -0.000258090970006273 -2.58327057341807e-05 -0.000326373730040408 -0.000804346506030581 -0.000156433100371559 9.29531727759984e-05 -6.43026059649434e-05 0.000412222366466499 0.000158342558654671 0.000102555344729611 0.000258416702612747
"103" 0.000113255627742766 3.44382343918516e-05 0.000109018699150518 0.000172996436869338 -9.04155606878536e-05 -0.000253695873413326 -2.84319845612188e-05 -0.000315838957660678 -0.000815405989960284 -0.000155467841962022 9.39945682010942e-05 -6.02857074506747e-05 0.000420194790929464 0.000163307534674459 0.000100733782430434 0.000258750691785467
"104" 0.000108905453927713 3.52119087068467e-05 0.000106127701363918 0.000173724757154915 -9.00328435651214e-05 -0.00024994214265425 -3.21166313666896e-05 -0.000305655716824957 -0.000825555288972419 -0.000155478484755217 9.44517481627104e-05 -5.72480110602123e-05 0.000426698041621514 0.000166712643168001 9.77554172802177e-05 0.000257588744665002
"105" 0.000103274505376204 3.53745386833407e-05 0.000102824490007492 0.000173458950409244 -9.0333697525768e-05 -0.000246821975541845 -3.68084524682506e-05 -0.000295855053383749 -0.000834831996540356 -0.000156424029711334 9.43369992881055e-05 -5.51536892868944e-05 0.000431711082763517 0.000168521523074839 9.36810067134931e-05 0.000254985696495349
"106" 9.64534963781849e-05 3.49507150650451e-05 9.91504926659246e-05 0.00017222145342695 -9.12853057184693e-05 -0.000244325803887033 -4.24256244399655e-05 -0.000286451727588805 -0.000843253862344101 -0.000158254796544811 9.36560151795001e-05 -5.39725528551208e-05 0.000435228029985151 0.000168705312949805 8.85651624386382e-05 0.000251008381668536
"107" 8.85411131532211e-05 3.39751202762598e-05 9.5157392440332e-05 0.000170051048351178 -9.28490093507076e-05 -0.000242429721738016 -4.88746583276088e-05 -0.000277463505164025 -0.000850841018332376 -0.00016091162725462 9.24312675336785e-05 -5.36602339463686e-05 0.00043725895467637 0.000167254033887412 8.24861545847063e-05 0.000245726958257884
"108" 7.96535744101493e-05 3.24901096132282e-05 9.08936256190515e-05 0.000166985729225528 -9.49792285407265e-05 -0.000241110375721798 -5.60503226566574e-05 -0.000268894039682654 -0.000857601734750664 -0.000164327116995069 9.06838285235857e-05 -5.4166765638796e-05 0.000437822425736534 0.000164162746304556 7.55278945934854e-05 0.000239231736459806
"109" 6.99160890235683e-05 3.05375942076605e-05 8.64154712625084e-05 0.000163075376151128 -9.76297620615666e-05 -0.000240334909322574 -6.38465052081921e-05 -0.000260750152410048 -0.000863532056702724 -0.000168431456299825 8.84381659203032e-05 -5.54355935260923e-05 0.000436951498047655 0.000159451338350873 6.77771753836982e-05 0.000231610167980984
"110" 5.94575710541625e-05 2.81719898073199e-05 8.17748956631112e-05 0.000158378244100236 -0.000100744550627392 -0.000240066034008396 -7.21496316010958e-05 -0.000253026021894823 -0.000868618080611877 -0.000173150676077441 8.57276650853908e-05 -5.74066292987005e-05 0.000434692616433178 0.000153150719277117 5.93330383209451e-05 0.000222964763738971
"111" 4.84140029406068e-05 2.5446578060759e-05 7.70256959167566e-05 0.00015295058218846 -0.000104267839748746 -0.000240259294072221 -8.08456265915678e-05 -0.000245714041578004 -0.000872841841130492 -0.00017840509222502 8.25795415045772e-05 -6.00218833208396e-05 0.000431096041236382 0.000145305665612909 5.03008608836468e-05 0.000213397597075268
"112" 3.69249544431168e-05 2.24196585684257e-05 7.22188410609333e-05 0.000146865868816234 -0.000108142922838643 -0.000240870542757145 -8.98102488169948e-05 -0.000238802534265492 -0.000876175376583703 -0.000184114533662848 7.90346191951619e-05 -6.32088001997487e-05 0.000426230984354567 0.000135975870553632 4.07881656765967e-05 0.000203019920394013
"113" 2.51365974122336e-05 1.91551457698161e-05 6.7412827153088e-05 0.00014018896633901 -0.000112309771338655 -0.000241847252684724 -9.8929227226374e-05 -0.000232275866806483 -0.000878577146342283 -0.000190200333446861 7.51229957293989e-05 -6.69082872800642e-05 0.000420164508824503 0.000125238427863005 3.09052694247057e-05 0.000191942573576809
"114" 1.31925890769625e-05 1.57108316413302e-05 6.26515067377474e-05 0.000132996466578382 -0.000116703537006682 -0.000243138045641186 -0.000108078470425881 -0.000226111979149986 -0.000880005492962859 -0.000196574967359552 7.08915392646962e-05 -7.10418347921588e-05 0.000412985185690051 0.000113179557880041 2.07729027729573e-05 0.000180286228927926
"115" 1.24084465493648e-06 1.21531634042534e-05 5.79865404032447e-05 0.000125361894315772 -0.000121266487366161 -0.000244686435092949 -0.000117143529359175 -0.000220288536200642 -0.000880405221227648 -0.000203156421491438 6.63754312471278e-05 -7.55473716529791e-05 0.000404774718529205 9.99016718740392e-05 1.05028193832986e-05 0.000168162586451591
"116" -1.05797821345459e-05 8.54476849773646e-06 5.34615690880764e-05 0.000117360819313904 -0.000125935644461502 -0.000246434111227689 -0.000126004348893095 -0.000214779815747694 -0.000879721077428291 -0.000209869658833892 6.16230981131501e-05 -8.03532779953828e-05 0.000395627543764016 8.55166760666493e-05 2.14044655004863e-07 0.000155689512250272
"117" -2.21333466803243e-05 4.9527985564376e-06 4.91228379923874e-05 0.00010907578491401 -0.000130650491552856 -0.000248324273771758 -0.000134552464533983 -0.000209557456074097 -0.000877885006076609 -0.000216628506458492 5.66768911154733e-05 -8.53879173128419e-05 0.000385646415902812 7.01551477044515e-05 -9.97378463413786e-06 0.000142987477322509
"118" -3.32772685431258e-05 1.43154090916524e-06 4.50044344651756e-05 0.000100578990813282 -0.000135351060721852 -0.00025029773761488 -0.000142682342716083 -0.000204593723374455 -0.000874834430063459 -0.000223358542368196 5.15764959306401e-05 -9.05905805123863e-05 0.000374927468108532 5.39468871661008e-05 -1.99480763985496e-05 0.000130165740565505
"119" -4.38905408639454e-05 -1.9545137563492e-06 4.11402897717878e-05 9.19477126315373e-05 -0.000139983653921673 -0.000252296027480509 -0.00015029268924191 -0.000199853485891201 -0.000870492797663544 -0.000229991879973009 4.63709269768824e-05 -9.58942799952431e-05 0.000363581180180263 3.70384212193965e-05 -2.96000884821198e-05 0.000117337707504393
"120" -5.38484353688658e-05 -5.15426803681563e-06 3.75615571879824e-05 8.32580203807806e-05 -0.000144492184840565 -0.000254261178533205 -0.000157291527113787 -0.000195309249622303 -0.000864787703470339 -0.000236461159723145 4.110339174631e-05 -0.00010123896013212 0.000351705825428391 1.95813730770324e-05 -3.88181028054895e-05 0.00010461107104238
"121" -6.30425216239833e-05 -8.1081777384936e-06 3.42983432397796e-05 7.45783247519521e-05 -0.000148824153528739 -0.000256137358591471 -0.00016358928442648 -0.000190927917689156 -0.00085764409916454 -0.000242695408485233 3.58147569466129e-05 -0.000106562782302647 0.00033941645574342 1.73271740549507e-06 -4.75021172244946e-05 9.20912169235116e-05
"122" -7.13733357303647e-05 -1.07750498175588e-05 3.13628901549922e-05 6.59749957159892e-05 -0.000152936530765956 -0.000257872744879502 -0.000169115496545991 -0.000186681658108831 -0.000848987403650689 -0.000248646290678634 3.05493120591796e-05 -0.000111820637240613 0.000326808792859675 -1.63462530241795e-05 -5.55576820618828e-05 7.98727988292869e-05
"123" -7.87449925600085e-05 -1.31076944413916e-05 2.87741986368979e-05 5.75166693757954e-05 -0.000156782145958317 -0.000259415040131627 -0.000173798919380682 -0.000182535185782616 -0.000838740325664506 -0.000254261055864547 2.53453655045963e-05 -0.000116956312531429 0.000313991317061949 -3.44923726946091e-05 -6.28920658187637e-05 6.8049040689577e-05
"124" -8.50825677421103e-05 -1.50694325020932e-05 2.65417732646866e-05 4.92594365298395e-05 -0.000160325591392477 -0.00026071763050821 -0.000177584115973283 -0.000178464723033137 -0.000826830546178712 -0.000259493487513057 2.02461815039985e-05 -0.000121927655203796 0.000301061437791721 -5.25371449129646e-05 -6.9428841221604e-05 5.67059147383968e-05
"125" -9.03210003836839e-05 -1.66266798358583e-05 2.4668646331708e-05 4.12588824646315e-05 -0.000163534937599457 -0.000261735760489497 -0.000180423858346168 -0.000174445054724561 -0.000813176014951618 -0.000264313220507451 1.52812949245473e-05 -0.000126699729497633 0.000288114339216449 -7.03203719076228e-05 -7.50963710579253e-05 4.59188750237862e-05
"126" -9.44030616902072e-05 -1.7752798463385e-05 2.31570308919973e-05 3.3565533516973e-05 -0.000166378064273762 -0.000262430342092039 -0.000182281834424592 -0.00017044878475108 -0.000797721264532257 -0.000268682159772548 1.04918027026492e-05 -0.000131233275715888 0.00027524598371774 -8.76781847943914e-05 -7.98334324475756e-05 3.57604957462958e-05
"127" -9.72898983332209e-05 -1.84230592173793e-05 2.2001209089064e-05 2.62191149610238e-05 -0.000168832002168191 -0.000262765884256507 -0.000183131519439368 -0.000166458432046999 -0.000780391345793451 -0.000272583098231105 5.9037699083611e-06 -0.000135507368950363 0.000262535933680159 -0.000104453830937613 -8.35877103093947e-05 2.62926796089994e-05
"128" -9.89566647633015e-05 -1.86270763137528e-05 2.11900275070832e-05 1.92593823522993e-05 -0.000170877915440767 -0.000262713105573202 -0.000182957969713449 -0.000162453230700134 -0.000761131406764115 -0.000276000512791807 1.54959712395529e-06 -0.000139495321200708 0.000250068213167045 -0.000120495827916019 -8.63172056181299e-05 1.75680639646629e-05
"129" -9.93923076848398e-05 -1.83547486251334e-05 2.07054371336272e-05 1.27184274662289e-05 -0.000172504960854167 -0.000262244760278949 -0.000181760399957392 -0.000158422100288326 -0.000739885793604005 -0.000278931930747671 -2.55002387989824e-06 -0.000143186932363566 0.000237909499879423 -0.000135658454438794 -8.79985087547742e-05 9.63214561481193e-06
"130" -9.85929415789253e-05 -1.76017424772676e-05 2.05309776307961e-05 6.62163897956758e-06 -0.000173706440094673 -0.000261342357142721 -0.000179543582164409 -0.000154348849602086 -0.000716605107282618 -0.000281373700477548 -6.37071265577793e-06 -0.000146572306839946 0.000226126974702899 -0.000149807063760842 -8.86096028441464e-05 2.5202541141268e-06
"131" -9.65789358227676e-05 -1.63726951757637e-05 2.06436001320818e-05 9.86658797185688e-07 -0.00017447473596022 -0.000259989605839567 -0.000176323635775662 -0.000150231272326807 -0.000691255834853724 -0.000283338082404706 -9.89615917372353e-06 -0.000149648043781369 0.000214776866159926 -0.000162813399486445 -8.81486212046693e-05 -3.73696176164257e-06
"132" -9.33725817127357e-05 -1.46762502341386e-05 2.10137257978391e-05 -4.17039044588039e-06 -0.000174815287226285 -0.000258177780865516 -0.000172129967210108 -0.000146064238229526 -0.000663804749395469 -0.000284838906194052 -1.31123701552933e-05 -0.000152412976772324 0.000203909128782648 -0.000174565061352505 -8.66206979285709e-05 -9.12276582667863e-06
"133" -8.90220552753253e-05 -1.25241308664306e-05 2.16115544858018e-05 -8.84529812546829e-06 -0.000174736435890922 -0.000255904560811384 -0.000166998267608976 -0.000141846149795368 -0.000634236013058832 -0.000285904771129018 -1.60070302324066e-05 -0.00015488420549723 0.000193561458420356 -0.000184954825323113 -8.40457548974245e-05 -1.36263819021527e-05
"134" -8.3578825965329e-05 -9.94255957959544e-06 2.23994885338984e-05 -1.30367192618419e-05 -0.000174251268290994 -0.000253169861701856 -0.000160980785315713 -0.000137582885633445 -0.000602549541655326 -0.000286569328935976 -1.85812204174419e-05 -0.00015707683195688 0.000183757223589407 -0.000193896972398348 -8.04592305427532e-05 -1.7248069873513e-05
"135" -7.7106613780205e-05 -6.94889335006874e-06 2.33487033992449e-05 -1.67457292774627e-05 -0.000173373915525322 -0.000249979347571941 -0.000154126314798749 -0.000133278885923048 -0.000568755046611815 -0.000286862637133155 -2.08253120237215e-05 -0.000159005540667536 0.000174528431526791 -0.000201313703934947 -7.58950551998383e-05 -1.99898884396272e-05
"136" -6.96879258742598e-05 -3.57774408766409e-06 2.44128716352825e-05 -1.99888171427481e-05 -0.000172127285856017 -0.000246348543314446 -0.000146504070804725 -0.000128951178124532 -0.000532881343465646 -0.000286840701234281 -2.27509460970365e-05 -0.000160710106875705 0.00016587465450105 -0.000207144108809544 -7.04192592359839e-05 -2.1871020784386e-05
"137" -6.1406154320375e-05 1.41327403528021e-07 2.55559881941929e-05 -2.27749852934553e-05 -0.000170533596853863 -0.000242292406614914 -0.000138181785677581 -0.000124610145533272 -0.000494969075653341 -0.000286545432155556 -2.43546955846365e-05 -0.000162207196967067 0.000157810692864387 -0.000211339159849614 -6.40893684961716e-05 -2.29104758030054e-05
"138" -5.23597180079568e-05 4.16920144590982e-06 2.67354600929652e-05 -2.51269728316331e-05 -0.000168621758570652 -0.000237832295132368 -0.00012923606445591 -0.000120272292571433 -0.000455084920769156 -0.000286034563545905 -2.56533872508596e-05 -0.000163534012488864 0.000150329186079608 -0.000213864285269461 -5.69798003787742e-05 -2.31352886263619e-05
"139" -4.26536905481776e-05 8.46429219504091e-06 2.79107009847869e-05 -2.70711321417413e-05 -0.000166423351796275 -0.000232994020923396 -0.000119751994973832 -0.000115962948438834 -0.000413304608592649 -0.000285373997494438 -2.66598607388642e-05 -0.000164741083075111 0.000143408916016463 -0.000214708413856015 -4.9182192394456e-05 -2.25827641267172e-05
"140" -3.23937128117291e-05 1.29895312760613e-05 2.90416418262801e-05 -2.86309551507728e-05 -0.000163971871637032 -0.000227807858467667 -0.000109817410583617 -0.000111702624008107 -0.000369735489025206 -0.000284624948213605 -2.73930507886227e-05 -0.000165864325243399 0.000137034583053874 -0.000213862834161461 -4.07867138918406e-05 -2.12949513418446e-05
"141" -2.17051224316098e-05 1.76944516698257e-05 3.00855666746036e-05 -2.98389508247281e-05 -0.000161302389595072 -0.000222308696383806 -9.95195576730971e-05 -0.000107515300976105 -0.000324500819220324 -0.000283857458123324 -2.78731967034704e-05 -0.000166950611847655 0.000131175095800054 -0.000211345148048968 -3.1895968113901e-05 -1.93162795040174e-05
"142" -1.07069182935533e-05 2.25385447536391e-05 3.10053997364667e-05 -3.07310367557369e-05 -0.00015845084486642 -0.000216531295250215 -8.89595423936819e-05 -0.000103431910773986 -0.000277742209650738 -0.000283144329726699 -2.81258009325894e-05 -0.000168049859621097 0.000125795131820308 -0.000207174767801073 -2.26184064127656e-05 -1.66972549691111e-05
"143" 4.75564631209356e-07 2.74748055215097e-05 3.17622047271327e-05 -3.13382589912321e-05 -0.000155456847047151 -0.000210515773965563 -7.82243813238631e-05 -9.94766564705084e-05 -0.000229628249441191 -0.000282551887021025 -2.81782599295903e-05 -0.000169210197989201 0.000120855310708362 -0.000201395617198413 -1.30659553780492e-05 -1.34925030069377e-05
"144" 1.17150018818966e-05 3.24547828445138e-05 3.23199655652438e-05 -3.17024293024869e-05 -0.000152359611842537 -0.000204304122423344 -6.7417964880212e-05 -9.56797445607747e-05 -0.000180347021567543 -0.000282157941591965 -2.80584945048212e-05 -0.000170481861750742 0.000116310321934042 -0.000194057381004314 -3.36013892540264e-06 -9.757838569526e-06
"145" 2.2889872926596e-05 3.74347015413482e-05 3.26460510381092e-05 -3.18607449706478e-05 -0.000149196574449423 -0.000197939967374787 -5.66322146504209e-05 -9.20754433941336e-05 -0.000130107441225679 -0.000282037682073439 -2.78011636702649e-05 -0.000171922364108331 0.000112103340595315 -0.000185229918794946 6.38135324119901e-06 -5.55707244156586e-06
"146" 3.38688907495247e-05 4.23724149824015e-05 3.27123001981908e-05 -3.18508903495205e-05 -0.000146007738511532 -0.000191465594112824 -4.59642000878531e-05 -8.86864063039913e-05 -7.91356828181865e-05 -0.000282260711779744 -2.74385995858993e-05 -0.000173575025894128 0.000108186368712534 -0.000174989196354868 1.60332083633372e-05 -9.48729456014991e-07
"147" 4.45315952819356e-05 4.72181277799093e-05 3.24975589967962e-05 -3.17117072202501e-05 -0.000142827440675783 -0.000184927767862531 -3.55038352310532e-05 -8.55462848685224e-05 -2.7677570221479e-05 -0.000282896735071297 -2.70042291119305e-05 -0.000175487316866041 0.000104502180395581 -0.000163416208005683 2.54778107993087e-05 4.00756053030087e-06
"148" 5.47610326233066e-05 5.19381100609085e-05 3.19700537887709e-05 -3.14791034353913e-05 -0.000139697936485755 -0.000178371499352454 -2.53425125285071e-05 -8.26827633090332e-05 2.40053312972163e-05 -0.000284015053600736 -2.65357010764916e-05 -0.000177714405779743 0.000100989761910302 -0.000150618647901921 3.45885252419297e-05 9.24707375307652e-06
"149" 6.44402747444504e-05 5.64928407745154e-05 3.11238055110959e-05 -3.11932525088863e-05 -0.000136645474270321 -0.000171840949723239 -1.55633912880834e-05 -8.0119718024268e-05 7.56278887620379e-05 -0.000285677386961468 -2.60689950302098e-05 -0.000180293345070551 9.75949569271655e-05 -0.000136693747576613 4.32499757362856e-05 1.47108421633998e-05
"150" 7.34631722499483e-05 6.08467712254897e-05 2.99401244359229e-05 -3.08841205137073e-05 -0.000133710428907731 -0.00016538144958112 -6.24800045662462e-06 -7.78847034321747e-05 0.000126904677108268 -0.000287947489056278 -2.56403962292444e-05 -0.000183267791554501 9.42533959837848e-05 -0.00012175976290954 5.13482590316172e-05 2.03390564255382e-05
"151" 8.17301602523287e-05 6.4966098291098e-05 2.84143303907699e-05 -3.05829387996801e-05 -0.000130918141036108 -0.000159032951666796 2.52695796545644e-06 -7.59988706211688e-05 0.000177538875236847 -0.000290873828796756 -2.52846147565058e-05 -0.000186672131992137 9.09145205833156e-05 -0.000105938459643442 5.87756692113854e-05 2.6074664915399e-05
"152" 8.91528309935923e-05 6.88231279983496e-05 2.6540556277598e-05 -3.03215252208584e-05 -0.00012829682062518 -0.000152836037758209 1.069663438912e-05 -7.44803245804362e-05 0.000227218306393799 -0.000294505611806013 -2.50358465210053e-05 -0.000190541552144685 8.75215129194951e-05 -8.93506226528977e-05 6.5429156071741e-05 3.1862702188129e-05
"153" 9.56528196192807e-05 7.23971640088397e-05 2.43248266015359e-05 -3.0123437473264e-05 -0.000125871358374641 -0.000146828919700326 1.81995643490836e-05 -7.3343391930679e-05 0.000275645392784114 -0.000298882145548123 -2.49230388900501e-05 -0.000194891097331286 8.40252315905861e-05 -7.2129740776502e-05 7.12217165154252e-05 3.76567718515202e-05
"154" 0.000101155377585174 7.56689820139219e-05 2.17740021371864e-05 -3.00082690067042e-05 -0.000123661336070153 -0.000141046916465646 2.49816120408579e-05 -7.260558571905e-05 0.000322506326156629 -0.000304037341402723 -2.49809406985293e-05 -0.00019975117419917 8.03792855987587e-05 -5.44097644502001e-05 7.6064985327662e-05 4.34088188298289e-05
"155" 0.000105604062649082 7.86179834994395e-05 1.89013756327501e-05 -2.99913254407997e-05 -0.000121681311638965 -0.000135519458886795 3.09999437672193e-05 -7.22699633067862e-05 0.000367500787933333 -0.000309994287147604 -2.52352689908536e-05 -0.000205128444766655 7.65428068926989e-05 -3.6323298287242e-05 7.98935659803562e-05 4.90774897989637e-05
"156" 0.000108956310378769 8.12378503030734e-05 1.57264960662578e-05 -3.00903919097168e-05 -0.000119949590873633 -0.000130276521169328 3.62154998979664e-05 -7.23452414094592e-05 0.00041033727663091 -0.000316766726402881 -2.57095098153577e-05 -0.000211028144592545 7.24783495358393e-05 -1.80073055202405e-05 8.26449865992437e-05 5.4627850562044e-05
"157" 0.000111172311666049 8.352064336773e-05 1.22706430438813e-05 -3.03098731806019e-05 -0.000118471526807364 -0.000125341580330705 4.05998902069775e-05 -7.28293805946598e-05 0.000450734377426699 -0.00032436102758741 -2.64250688266628e-05 -0.000217449168588531 6.81620956296314e-05 4.02994198383924e-07 8.42736831684317e-05 6.00286434305107e-05
"158" 0.000112238880854495 8.54628821028348e-05 8.5611059224281e-06 -3.06551990211186e-05 -0.000117251427179477 -0.000120732983723194 4.41404011482064e-05 -7.37166597269398e-05 0.000488420352484571 -0.000332771325209578 -2.74011927535136e-05 -0.000224377957818482 6.3568123573309e-05 1.87739735928928e-05 8.4748638355402e-05 6.52576566374035e-05
"159" 0.000112142069213487 8.70676357806562e-05 4.63222761884877e-06 -3.11244068429385e-05 -0.000116295602576059 -0.000116465597592914 4.68187191489132e-05 -7.50010344943497e-05 0.00052315981909616 -0.000341989173945289 -2.86487335160761e-05 -0.000231806644278622 5.86832322817568e-05 3.69771605576622e-05 8.40464002064612e-05 7.02923978101472e-05
"160" 0.000110890895117813 8.83409933955667e-05 5.19345442836999e-07 -3.1709422439755e-05 -0.000115594580763017 -0.000112551102367171 4.86400309942691e-05 -7.66707815566396e-05 0.000554711160429597 -0.0003519824194201 -3.01774316020659e-05 -0.000239697776513705 5.35026911280713e-05 5.48849489160016e-05 8.21696361604353e-05 7.51233269649689e-05
"161" 0.000108502814141454 8.92924657223206e-05 -3.73408180296388e-06 -3.23992222571509e-05 -0.000115145533035675 -0.000108995795216085 4.96110992958121e-05 -7.86997233593333e-05 0.000582882561926532 -0.000362720369254924 -3.19904392089562e-05 -0.000248022961130944 4.80267618435227e-05 7.23743342731755e-05 7.91298205465504e-05 7.97449378660447e-05
"162" 0.000105005995439412 8.99336028870471e-05 -8.09152002699584e-06 -3.31812397709845e-05 -0.00011493822898456 -0.000105798913902516 4.97473042247653e-05 -8.1075759308516e-05 0.000607494833079891 -0.000374159373372322 -3.40863421933179e-05 -0.000256738207049044 4.22673608254654e-05 8.93361694493487e-05 7.49490625576758e-05 8.41566332943919e-05
"163" 0.000100448471061824 9.02858502533014e-05 -1.25040695012716e-05 -3.40347233016511e-05 -0.000114959137045224 -0.000102956398731622 4.90747545069052e-05 -8.3764326260807e-05 0.000628394022491243 -0.000386244121475022 -3.64603063874034e-05 -0.000265796618545169 3.62431948216447e-05 0.000105657543961309 6.96710208134183e-05 8.83628877871813e-05
"164" 9.48796836774253e-05 9.03598056432194e-05 -1.69212479870349e-05 -3.49385778608594e-05 -0.000115189399861742 -0.000100463995918676 4.76270329970692e-05 -8.67429413707704e-05 0.000645459459975898 -0.000398914820576863 -3.91036890573788e-05 -0.000275146421181118 2.99759509756307e-05 0.000121241327357408 6.33498049600072e-05 9.23746244110903e-05
"165" 8.83651457991789e-05 9.01825179951005e-05 -2.13000781020664e-05 -3.58677823549086e-05 -0.000115612514551308 -9.83054761589082e-05 4.54441434975366e-05 -8.99708402798509e-05 0.000658585952524645 -0.000412098474863172 -4.20005640110053e-05 -0.000284722813793388 2.35007200289763e-05 0.000135992128714847 5.60559267336856e-05 9.62087080440862e-05
"166" 8.09788867673366e-05 8.97742999743343e-05 -2.55820634534118e-05 -3.67891287153853e-05 -0.000116204109816009 -9.64646117898608e-05 4.25714714933048e-05 -9.34145617483726e-05 0.000667709795077098 -0.000425713250042071 -4.51284181803858e-05 -0.000294450429156868 1.68654832574734e-05 0.000149839923323622 4.78721266691593e-05 9.98885122776636e-05
"167" 7.28124097665214e-05 8.91590631468792e-05 -2.9721816140433e-05 -3.76731115341832e-05 -0.000116937870832341 -9.49212875136312e-05 3.90671102716787e-05 -9.70328999248247e-05 0.000672778937062144 -0.000439671118298089 -4.84645605939133e-05 -0.000304262973961713 1.01107446374256e-05 0.000162705038378358 3.88967167913258e-05 0.000103440185576916
"168" 6.39503652235224e-05 8.83665364502136e-05 -3.36674217946064e-05 -3.84852311359128e-05 -0.00011778744001728 -9.36492624881326e-05 3.49847428104552e-05 -0.000100780915133841 0.000673774403271757 -0.000453878904420094 -5.19775933102862e-05 -0.000314079510303665 3.29423745016215e-06 0.000174531001012459 2.92314980641267e-05 0.000106892142545969
"169" 5.44909111007595e-05 8.74163270419999e-05 -3.73676540779002e-05 -3.91931043137216e-05 -0.000118727768238589 -9.26209084873363e-05 3.03921997120151e-05 -0.000104616634359466 0.000670697336524332 -0.000468238403936422 -5.56357649856033e-05 -0.000323814845375618 -3.52485424328273e-06 0.000185274537658199 1.89981381842182e-05 0.000110279844516931
"170" 4.45428343042119e-05 8.63391314201332e-05 -4.07776801471341e-05 -3.97591151181259e-05 -0.00011972528213238 -9.18058196495927e-05 2.53576908127295e-05 -0.000108491146894505 0.000663570184717952 -0.000482639439967759 -5.93997337736718e-05 -0.000333382763215199 -1.02791895007954e-05 0.000194895083695967 8.32344401382012e-06 0.000113638985163985
"171" 3.42154790764926e-05 8.51553681975912e-05 -4.38502668586294e-05 -4.01508459108394e-05 -0.000120752545397809 -9.11691038707136e-05 1.99493365486979e-05 -0.000112359489115169 0.000652438802288101 -0.000496974871813185 -6.32326532838139e-05 -0.000342695882671313 -1.69013630972752e-05 0.000203369301707291 -2.65882486655201e-06 0.000117006817951159
"172" 2.36177080513602e-05 8.38898624453197e-05 -4.6539127903625e-05 -4.03321547365687e-05 -0.000121775269814453 -9.06734460217773e-05 1.42435506184355e-05 -0.000116167679322818 0.000637364789667333 -0.000511127830975869 -6.70846243789682e-05 -0.000351658497689328 -2.33170267711536e-05 0.000210692439090916 -1.38070373151345e-05 0.000120429206929826
"173" 1.28685652983334e-05 8.25690120767333e-05 -4.8808926195183e-05 -4.02681507142412e-05 -0.00012276840619022 -9.02831617306083e-05 8.31906691271996e-06 -0.000119873946562185 0.000618426004749501 -0.000524988949822919 -7.09117534217861e-05 -0.000360184778586562 -2.94530570295977e-05 0.000216857846643341 -2.49741872632722e-05 0.000123940897600928
"174" 2.08087263899891e-06 8.12085543217236e-05 -5.06220095559925e-05 -3.99296461780755e-05 -0.000123698066007153 -8.99570347417607e-05 2.24413042599697e-06 -0.000123426325068473 0.000595715006911159 -0.000538437956141651 -7.46662725566444e-05 -0.00036817918147281 -3.52340746622551e-05 0.000221883743704736 -3.60123404800363e-05 0.000127585959153256
"175" -8.62908044469436e-06 7.98311245781449e-05 -5.19426346083974e-05 -3.92860061022613e-05 -0.000124538601463087 -8.96564530903414e-05 -3.89781017929965e-06 -0.000126776028085161 0.000569332520027335 -0.000551359881999373 -7.82940747267193e-05 -0.000375553265679491 -4.05812277268782e-05 0.000225790556197572 -4.67681887361244e-05 0.000131406262231829
"176" -1.91465837170262e-05 7.84487461266299e-05 -5.27487692485642e-05 -3.83109708791951e-05 -0.000125257080302994 -8.9339020545848e-05 -1.0034603938506e-05 -0.000129879975094102 0.000539394387218845 -0.000563636602814845 -8.17444789469959e-05 -0.000382211885616884 -4.54175495150577e-05 0.000228615497439779 -5.7085746068053e-05 0.000135443226222272
"177" -2.93591073415491e-05 7.7076172510955e-05 -5.30165232879186e-05 -3.69829800774384e-05 -0.000125835163386641 -8.8967183557085e-05 -1.60937575687494e-05 -0.000132692465368875 0.000506022617493733 -0.000575152487089495 -8.49674074040113e-05 -0.000388072756634211 -4.96682364831849e-05 0.000230408304478726 -6.68182829978511e-05 0.000139730656307077
"178" -3.91607941087382e-05 7.57261761316721e-05 -5.27290849877512e-05 -3.52834265480728e-05 -0.000126241231056924 -8.84974106870637e-05 -2.19996048832969e-05 -0.000135173948349797 0.000469343629540493 -0.000585797812144071 -8.79030647998525e-05 -0.000393049621052182 -5.3261301199405e-05 0.000231217250207482 -7.58121582668347e-05 0.000144309105596912
"179" -4.84524629216898e-05 7.44016380230182e-05 -5.18735580245189e-05 -3.31958581012603e-05 -0.000126458806092626 -8.78918787073086e-05 -2.76839126583562e-05 -0.000137281654704625 0.000429496024645063 -0.000595460331048072 -9.05034006306346e-05 -0.000397056897338075 -5.61207612230364e-05 0.000231114720061691 -8.39225706602172e-05 0.000149211845254943
"180" -5.71308389020604e-05 7.31065414731334e-05 -5.04483283378138e-05 -3.07167228574251e-05 -0.000126472135192825 -8.71161187544316e-05 -3.30867568394712e-05 -0.000138981812054495 0.000386608842093547 -0.000604044553187877 -9.27166361782582e-05 -0.000400031338133013 -5.81877133215014e-05 0.00023016535571163 -9.10122166600708e-05 0.000154463606306188
"181" -6.51108426526532e-05 7.18410097593436e-05 -4.84503945442695e-05 -2.7837437755555e-05 -0.000126260487594989 -8.61304773162571e-05 -3.8144692223649e-05 -0.000140242975471122 0.000340823684535965 -0.000611444623497475 -9.44896934560932e-05 -0.000401891239574865 -5.93948608669163e-05 0.000228453759971282 -9.69456691910729e-05 0.000160095506581858
"182" -7.23094243445441e-05 7.06026372768636e-05 -4.58895719806207e-05 -2.45606987010598e-05 -0.000125815322657455 -8.49034017703732e-05 -4.28020349253951e-05 -0.000141036943793321 0.000292282839073493 -0.000617568331190103 -9.57743975724283e-05 -0.0004025796049048 -5.9688137782967e-05 0.000226062090659066 -0.000101600503659774 0.000166126792720198
"183" -7.86516759401434e-05 6.93888764837797e-05 -4.27780212278895e-05 -2.0894929324176e-05 -0.000125125231869839 -8.34059183858752e-05 -4.70102827815274e-05 -0.000141337352724414 0.000241130878756024 -0.000622335313223399 -9.65272802164525e-05 -0.000402035496178058 -5.90163850390454e-05 0.000223077525954431 -0.000104857443024488 0.000172576821277754
"184" -8.40748652608681e-05 6.81827273823107e-05 -3.91342583407081e-05 -1.68522422006584e-05 -0.000124185538802712 -8.16080712789866e-05 -5.07269949874238e-05 -0.000141127830862562 0.00018750961036892 -0.000625662846823288 -9.67012758288973e-05 -0.000400207819693549 -5.73330961065225e-05 0.00021959230372512 -0.000106613828187396 0.000179453730252042
"185" -8.85231175440654e-05 6.69736162781019e-05 -3.49818080476861e-05 -1.24510969814285e-05 -0.000122999631911848 -7.94872654319873e-05 -5.39113783615982e-05 -0.000140390644777063 0.000131564452547015 -0.000627484727491169 -9.62571154735925e-05 -0.000397049763344736 -5.46029845569538e-05 0.000215695863941356 -0.000106771565084232 0.00018676452995636
"186" -9.19528249765791e-05 6.57454922330201e-05 -3.03544443680578e-05 -7.71787132283003e-06 -0.00012156643875078 -7.70205856133068e-05 -5.65365684590901e-05 -0.000139113839443428 7.3441607128482e-05 -0.00062773437580757 -9.51590077197836e-05 -0.0003925348188826 -5.07961117097623e-05 0.000211485702013334 -0.000105257571199778 0.000194511347276406
"187" -9.43345193486075e-05 6.44790161922545e-05 -2.52894798993106e-05 -2.68272608599183e-06 -0.000119891880518524 -7.41932851013371e-05 -5.85749574719928e-05 -0.000137295037907311 1.32911520418399e-05 -0.000626365431551837 -9.33728370908867e-05 -0.000386626202721209 -4.5887705792931e-05 0.000207054291287448 -0.000101995522512729 0.000202688016608561
"188" -9.56353165570173e-05 6.3156778977367e-05 -1.98236684503219e-05 2.61619312043301e-06 -0.000117987703587887 -7.0991113644014e-05 -6.00130192571146e-05 -0.000134932193134594 -4.87288770954089e-05 -0.000623329776604612 -9.08729541556067e-05 -0.000379304432590397 -3.98645434410239e-05 0.000202484605782845 -9.69308690743219e-05 0.000211287353702846
"189" -9.58520192562106e-05 6.17534687094995e-05 -1.40047780447476e-05 8.14046772826253e-06 -0.00011586902520049 -6.74058459796712e-05 -6.08391761717707e-05 -0.000132027560805539 -0.00011245618790215 -0.000618594494042268 -8.76326364134196e-05 -0.00037056236252911 -3.27199187291821e-05 0.000197872149216924 -9.00288016536675e-05 0.000220288473712826
"190" -9.49822950377591e-05 6.02394826273071e-05 -7.88627474362175e-06 1.38423640701592e-05 -0.000113553517825785 -6.34314234103828e-05 -6.10554802767781e-05 -0.000128591251254753 -0.000177721750895916 -0.000612141243024329 -8.36364232601709e-05 -0.000360395695844674 -2.4455273060761e-05 0.000193293291947803 -8.12612713684775e-05 0.000229672261600927
"191" -9.30364772428868e-05 5.85931774977155e-05 -1.52259960586105e-06 1.9668457688993e-05 -0.000111062776750457 -5.90673178477063e-05 -6.06652014882623e-05 -0.000124635176400751 -0.000244343024763177 -0.000603954893372608 -7.88691882238626e-05 -0.000348810005466543 -1.50801918969062e-05 0.000188825182770169 -7.06210081381563e-05 0.000239408334522101
"192" -9.00397881752535e-05 5.67876583427084e-05 5.02970820278536e-06 2.55626115603732e-05 -0.000108420609657253 -5.43189751055597e-05 -5.96793271876317e-05 -0.000120178341565919 -0.000312124453799103 -0.000594030511795064 -7.33221352409902e-05 -0.000335817580170463 -4.6117932827617e-06 0.000184541023689508 -5.81103851112791e-05 0.000249464972952652
"193" -8.60234853551449e-05 5.47924834826138e-05 1.17077692823964e-05 3.14642115858347e-05 -0.000105660834962969 -4.919407760916e-05 -5.81183296874837e-05 -0.000115244884405227 -0.000380857059910076 -0.000582381104045368 -6.69974861220294e-05 -0.000321449136210398 6.92135157378377e-06 0.000180506482401965 -4.37563499937401e-05 0.000259800270757644
"194" -8.10331491710468e-05 5.25782041583114e-05 1.84453768103045e-05 3.73094148898026e-05 -0.000102809816288846 -4.37043512296329e-05 -5.60102159756088e-05 -0.000109857413038702 -0.000450309363636885 -0.000569024537514413 -5.98933652894232e-05 -0.000305728703663222 1.94874007972612e-05 0.000176777568022978 -2.75920898249424e-05 0.000270373445197982
"195" -7.51214926847744e-05 5.01183289842796e-05 2.51787027552865e-05 4.303274036769e-05 -9.99024521563427e-05 -3.786658635943e-05 -5.3388903824273e-05 -0.000104049101220404 -0.0005202416513518 -0.000553989476470195 -5.20200679123212e-05 -0.000288699382938425 3.30456907654149e-05 0.000173403113679732 -9.66987289730456e-06 0.000281132946164407
"196" -6.83528772199858e-05 4.7388529275553e-05 3.18388064085657e-05 4.85661700259153e-05 -9.69786288759639e-05 -3.1700401920791e-05 -5.02915963707997e-05 -9.78531458491298e-05 -0.000590383399905018 -0.000537312834207025 -4.33904302235446e-05 -0.000270404179373132 4.75485772320036e-05 0.000170425313217254 9.94409110853274e-06 0.000292028483233773
"197" -6.08041539585124e-05 4.43595257437962e-05 3.83583758324905e-05 5.38362467731904e-05 -9.40760962682077e-05 -2.52293011871382e-05 -4.67652722174016e-05 -9.13068834238673e-05 -0.000660443534620759 -0.000519052662892936 -3.40298908769825e-05 -0.000250903643525427 6.29388409148343e-05 0.000167881403238426 3.11599362973322e-05 0.000303001071530694
"198" -5.25518155991588e-05 4.10014752018167e-05 4.46649424946448e-05 5.87708636105037e-05 -9.12384475291357e-05 -1.84836298381421e-05 -4.28606419501809e-05 -8.44476027024332e-05 -0.000730102557181763 -0.000499262544532073 -2.3957324899873e-05 -0.000230261351352978 7.9154040524884e-05 0.000165790958565396 5.38873369000101e-05 0.000313987934655351
"199" -4.36911136710089e-05 3.73009757274821e-05 5.06941465420023e-05 6.32995414262278e-05 -8.85049141072134e-05 -1.14920221940592e-05 -3.86319963937433e-05 -7.73191341219586e-05 -0.000799025137722163 -0.000478016151125216 -1.32092340013544e-05 -0.000208544968422343 9.61281612736675e-05 0.000164177894456458 7.80135981314932e-05 0.000324927448715857
"200" -3.43171970931268e-05 3.32316855483672e-05 5.63763563849542e-05 6.73492512840318e-05 -8.59239026517063e-05 -4.29024122773218e-06 -3.41418490235683e-05 -6.99678546053189e-05 -0.000866837012743678 -0.000455394302361759 -1.81776979762067e-06 -0.00018583295494376 0.000113787404471033 0.000163046820209568 0.000103415352080621 0.000335751877285725
"201" -2.45343487947008e-05 2.87752380521947e-05 6.16458794841179e-05 7.08531641457508e-05 -8.35377034953567e-05 3.08591616267394e-06 -2.94535596908035e-05 -6.24352733088012e-05 -0.000933147160719277 -0.000431479726427188 1.0173225083882e-05 -0.000162207064980991 0.000132056675194266 0.000162406685486345 0.000129958029815794 0.000346394913980456
"202" -1.44455515147146e-05 2.39181095857766e-05 6.64418158892449e-05 7.37370348083285e-05 -8.13909154597715e-05 1.05959377915853e-05 -2.46345837878684e-05 -5.47723866318832e-05 -0.000997539743449644 -0.000406376494267702 2.27188547655282e-05 -0.000137756238570091 0.000150850552718492 0.000162246895411997 0.000157496922884123 0.000356782028255362
"203" -4.17130726318354e-06 1.86472399842083e-05 7.06993672669281e-05 7.59381528904207e-05 -7.95322669443041e-05 1.81992252670614e-05 -1.97516019275952e-05 -4.70254248655844e-05 -0.00105956073086188 -0.000380185693020726 3.5769775529647e-05 -0.000112571767976311 0.000170086024233825 0.000162562039916343 0.000185875330110946 0.000366845151056894
"204" 6.17733093676317e-06 1.29545476533704e-05 7.43663340184453e-05 7.73922204739329e-05 -7.8001606433969e-05 2.58530632448885e-05 -1.48815981652546e-05 -3.92411344581445e-05 -0.0011187538945734 -0.000353024454845708 4.92694581737897e-05 -8.67541665814223e-05 0.000189675273500561 0.000163331045347755 0.000214931733811643 0.000376511281343354
"205" 1.64834616749491e-05 6.83570385497582e-06 7.73833312288191e-05 7.80398399771229e-05 -7.68484652807026e-05 3.35124081859513e-05 -1.00915357872263e-05 -3.14656150960893e-05 -0.00117463893115466 -0.00032501013255404 6.31620845025697e-05 -6.04045936104164e-05 0.000209523464087768 0.000164526970587932 0.000244492652431034 0.000385711980841457
"206" 2.66247754809433e-05 2.84360189417858e-07 7.97051256098923e-05 7.78252618664051e-05 -7.6111596157944e-05 4.11312764741399e-05 -5.46010374536704e-06 -2.3752969571667e-05 -0.00122671681327826 -0.000296268740037076 7.73831080123282e-05 -3.36261621314443e-05 0.000229545014195269 0.000166124893096559 0.000274385031316967 0.000394374037743942
"207" 3.64884276852703e-05 -6.69223357202839e-06 8.12898552402459e-05 7.67041576172613e-05 -7.58326843604524e-05 4.86632958169176e-05 -1.05502830803502e-06 -1.61408156010136e-05 -0.00127448602310804 -0.000266929187099145 9.18713100794038e-05 -6.52623879362968e-06 0.000249644787649418 0.000168092135545797 0.000304425626718278 0.000402430989596285
"208" 4.5953302006104e-05 -1.40876912334487e-05 8.20942426468992e-05 7.46309259310033e-05 -7.60495749353402e-05 5.60653262113745e-05 3.04997770479346e-06 -8.67656378654785e-06 -0.00131745026816262 -0.00023713362622922 0.000106557492142468 2.07849255563935e-05 0.000269729954124426 0.000170388838606217 0.000334433030001611 0.000409816324888846
"209" 5.49067880452058e-05 -2.18951483637004e-05 8.20896126236898e-05 7.15671175583393e-05 -7.68016259365969e-05 6.3289519711484e-05 6.78384289903383e-06 -1.40154694756544e-06 -0.00135510839891155 -0.000207013156360534 0.000121371596262846 4.81994237074725e-05 0.000289709035608681 0.000172969971491786 0.000364224650144806 0.00041646503524597
"210" 6.32354104729403e-05 -3.00994088497466e-05 8.12490279733765e-05 6.74881548373803e-05 -7.8118214076843e-05 7.02914467608243e-05 1.00780122123556e-05 5.64204238708044e-06 -0.00138698273064357 -0.000176713348533268 0.00013624893073309 7.56119264752585e-05 0.000309493920970805 0.000175796348227283 0.000393614189725719 0.000422319985628797
"211" 7.08352432802579e-05 -3.8680942784226e-05 7.95488102210682e-05 6.23681855502738e-05 -8.00304784510053e-05 7.70261454610249e-05 1.28687195585455e-05 1.24224066873408e-05 -0.00141262098995062 -0.000146379297682634 0.000151111780559206 0.000102909450826671 0.000328990301822077 0.000178813643461324 0.00042242182173146 0.000427319323466468
"212" 7.7606798094386e-05 -4.76211262671613e-05 7.69768211361424e-05 5.61917801238986e-05 -8.25670216290214e-05 8.34520930552513e-05 1.50982415288711e-05 1.89000824480923e-05 -0.00143158714587517 -0.000116155068648281 0.000165890333989058 0.000129984641071603 0.000348116450758366 0.000181974509750904 0.000450474260507796 0.000431415468718407
"213" 8.34497571397126e-05 -5.68937467971924e-05 7.35265843071557e-05 4.89587679846811e-05 -8.57468368406116e-05 8.95316526340601e-05 1.67054940652117e-05 2.50531232557229e-05 -0.0014434959360083 -8.61806248252215e-05 0.000180513992846229 0.00015674049912352 0.000366790354095878 0.00018522846861769 0.000477598260550971 0.000434560394155838
"214" 8.82832717399043e-05 -6.64703678584445e-05 6.91987974782995e-05 4.06674052687863e-05 -8.95899695133573e-05 9.52241018539466e-05 1.76402567925071e-05 3.08487283949448e-05 -0.00144801109488542 -5.66013789607147e-05 0.000194910452236385 0.000183070505636695 0.000384930917614075 0.000188519712278261 0.000503627304103733 0.000436709887545035
"215" 9.20287311372809e-05 -7.63216037989893e-05 6.3997236647225e-05 3.13274568391107e-05 -9.4108173755618e-05 0.000100496658555525 1.78571863845545e-05 3.62663912006603e-05 -0.00144484766168988 -2.75582484845396e-05 0.000209010321364387 0.000208880853932115 0.000402464260090887 0.000191792250311386 0.000528412497941271 0.000437828289333189
"216" 9.46152253649633e-05 -8.64118643176755e-05 5.79387120483923e-05 2.09642105183552e-05 -9.93104358590503e-05 0.000105315428941038 1.73167174230403e-05 4.12891422498691e-05 -0.0014337861417219 8.17391196836297e-07 0.00022274599363634 0.000234078698487766 0.000419322492486917 0.000194991021943298 0.00055180511709512 0.000437887222378397
"217" 9.59814379368498e-05 -9.67035473183844e-05 5.1043371909814e-05 9.60138200443995e-06 -0.000105198578769715 0.000109652551113362 1.59847880737404e-05 4.59060691660035e-05 -0.0014146693870796 2.83910408100063e-05 0.000236054584467066 0.000258582147753982 0.000435441307187569 0.000198060875615848 0.000573673502874597 0.000436860518871854
"218" 9.60829869709037e-05 -0.000107156502764086 4.33370693210722e-05 -2.72175033778062e-06 -0.000111775076204739 0.000113486209921517 1.38341333395942e-05 5.01096587522227e-05 -0.00138741810944028 5.50415121208048e-05 0.00024886825777749 0.000282310769674743 0.000450760685235069 0.000200945896553474 0.000593900770715841 0.000434733727018298
"219" 9.48802503662522e-05 -0.000117735756368605 3.48561651078731e-05 -1.59615207840831e-05 -0.000119027514395329 0.00011679243987486 1.08446435207149e-05 5.38908306080871e-05 -0.00135202416844492 8.06466932171153e-05 0.000261126596269887 0.000305192639950644 0.000465230710102659 0.000203588600272077 0.000612377125964835 0.000431491841180012
"220" 9.23419328541149e-05 -0.000128395298525218 2.5634588016627e-05 -3.0062390467193e-05 -0.0001269489937129 0.000119555024029507 7.00445598331484e-06 5.72517864936538e-05 -0.00130856121623746 0.000105098625181499 0.000272776587065736 0.000327157535988612 0.000478798021424788 0.000205933616377375 0.000629009337030013 0.000427130906102925
"221" 8.84579047171066e-05 -0.000139092132209603 1.57211849958171e-05 -4.49654388126699e-05 -0.000135520117239882 0.000121762404345729 2.30972655238877e-06 6.01996544730664e-05 -0.00125716687549064 0.000128293787571361 0.000283766124727677 0.000348156070973721 0.000491431623481568 0.000207933467433615 0.000643729045403183 0.000421656118831017
"222" 8.32224354081398e-05 -0.00014978255156115 5.16816679154589e-06 -6.06018136802524e-05 -0.000144714473312127 0.000123405593229025 -3.23604837315421e-06 6.27472376709358e-05 -0.00119807299669077 0.000150146168661721 0.000294042810460647 0.000368137853294153 0.000503092558402232 0.000209526391012342 0.000656474814551381 0.00041507652195271
"223" 7.66420493951482e-05 -0.000160421280471024 -5.96753377184919e-06 -7.68966203008706e-05 -0.000154508365859215 0.000124485915969816 -9.62323607861054e-06 6.49083720490018e-05 -0.00113156696813838 0.000170572388536693 0.000303571862145328 0.000387069166542511 0.000513755836869001 0.000210668738892644 0.000667205387242599 0.000407408881766241
"224" 6.87416934231608e-05 -0.000170963506833477 -1.76311209712161e-05 -9.37698010393747e-05 -0.000164867349668477 0.000124999379843538 -1.68315457081594e-05 6.66958651386423e-05 -0.00105801402466434 0.000189502263145419 0.000312307548526275 0.000404912185523349 0.000523399536961294 0.000211307085097155 0.000675897059944926 0.000398674287382825
"225" 5.95477732454515e-05 -0.000181365593802913 -2.9755030957001e-05 -0.000111131372521904 -0.000175750272145852 0.000124956257261093 -2.48371559426408e-05 6.8141504744261e-05 -0.000977824848296728 0.000206883263698287 0.000320222305821962 0.000421652829871983 0.000532009437206969 0.000211399368973024 0.000682542565458512 0.000388904606709374
"226" 4.91050152700344e-05 -0.000191586097384736 -4.22686418592499e-05 -0.000128894262651589 -0.000187117065470474 0.000124365267168126 -3.36041913188467e-05 6.9268473202843e-05 -0.000891474288006485 0.000222671264344171 0.000327286831247122 0.000437280587405458 0.000539582311454622 0.00021090147281998 0.000687152029515691 0.000378133301693318
"227" 3.74647404711561e-05 -0.000201579106669741 -5.5105912024686e-05 -0.000146961968158354 -0.00019891704214447 0.000123243201169045 -4.3089405485533e-05 7.01068240860958e-05 -0.000799485759994255 0.000236830482886278 0.00033347992236406 0.00045179401500152 0.000546111571317828 0.000209774301531759 0.000689752362636156 0.000366404667398994
"228" 2.46943712420327e-05 -0.000211304886341695 -6.81916906637811e-05 -0.000165236900544214 -0.000211101721964456 0.000121609806002832 -5.32488567377857e-05 7.06935327711839e-05 -0.000702414800945759 0.000249349790806417 0.000338787445228892 0.000465198776980192 0.000551602062985829 0.000207982325152934 0.000690389256093755 0.000353764662427584
"229" 1.08643927885717e-05 -0.000220722384902538 -8.14510786074088e-05 -0.000183617672288084 -0.000223610589296182 0.000119488288909587 -6.40250859439118e-05 7.10656973017621e-05 -0.00060085346759325 0.000260227838424504 0.00034319862835918 0.000477523203021333 0.000556065792722646 0.00020549540108264 0.000689123043246993 0.000340268018306435
"230" -3.94099424769942e-06 -0.000229795593676152 -9.4809737151558e-05 -0.000202002134088743 -0.000236391254293066 0.000116908486120397 -7.53573984494554e-05 7.12586860915871e-05 -0.000495419925772574 0.00026946070076059 0.000346705815783634 0.000488775982754016 0.000559514224789263 0.000202282709063106 0.000686021989864305 0.000325967259292332
"231" -1.9627561367738e-05 -0.000238489223006975 -0.000108191053832002 -0.000220290673408797 -0.000249372435951221 0.00011390166737724 -8.71783199028667e-05 7.13169955805381e-05 -0.000386746312281963 0.000277087759845952 0.000349318694033105 0.000499013238411604 0.000561972454844681 0.000198323562134807 0.000681183884460202 0.00031093097482289
"232" -3.61027362749779e-05 -0.000246767015121098 -0.000121521393891433 -0.000238378432938555 -0.000262495128612551 0.000110503512879091 -9.94170819803132e-05 7.12854834447044e-05 -0.0002754759689448 0.000283137848549627 0.000351038157894746 0.000508265820291003 0.000563459849847455 0.000193607358166259 0.000674706228523249 0.000295221684815457
"233" -5.32532405431232e-05 -0.000254601620886288 -0.000134725763836252 -0.00025616557557981 -0.000275688611145926 0.000106754463641764 -0.000111997163572769 7.12055996390001e-05 -0.000162263296221063 0.00028766312009041 0.000351880459713997 0.00051658714253966 0.000564007721358405 0.000188114840160774 0.000666700466458174 0.000278909798373172
"234" -7.09693651177574e-05 -0.000261965358400451 -0.000147730953236933 -0.000273554997838139 -0.00028888253720077 0.000102695762994221 -0.000124838161390969 7.11268432109131e-05 -4.77593569637511e-05 0.000290721816166939 0.000351860756025914 0.000524035340340387 0.000563643067412874 0.000181846493735349 0.000657295239434374 0.000262067127387799
"235" -8.91340900341346e-05 -0.000268830481921465 -0.000160466148806954 -0.000290448975478629 -0.000302007199753818 9.83715241095302e-05 -0.000137854935178588 7.10923141374957e-05 6.73902162277981e-05 0.000292388699159834 0.000351002610489336 0.000530673642604307 0.000562402804214101 0.000174804766872914 0.000646619966720648 0.000244767998051038
"236" -0.000107626559168263 -0.000275181357440454 -0.00017286369519276 -0.000306759349353062 -0.000314991385160528 9.38299019640434e-05 -0.000150961264996827 7.11470325836528e-05 0.000182544694017478 0.000292748976334242 0.000349332289170909 0.000536571897634998 0.000560325136641393 0.000166996536936342 0.000634814620579814 0.000227090345864243
"237" -0.000126322490416181 -0.000280991647409716 -0.000184859586112104 -0.000322395076263714 -0.000327761805435696 8.91180089971785e-05 -0.000164071365038999 7.13399713419103e-05 0.000297065733165877 0.000291892810041865 0.000346884248596732 0.0005418006077662 0.00055744747400186 0.00015843263862422 0.000622024659744487 0.000209110015787309
"238" -0.000145097842828532 -0.000286248704583483 -0.000196388116108518 -0.000337276916022547 -0.000340245911013738 8.42866476147771e-05 -0.000177087743444035 7.17152414901311e-05 0.000410346104306795 0.000289932596093054 0.000343691203505798 0.000546445757169939 0.000553810866607385 0.000149140983156478 0.000608405640607018 0.000190910177462758
"239" -0.00016381867492361 -0.000290942118368441 -0.000207397667615143 -0.000351326850074932 -0.000352373571565337 7.93885342189962e-05 -0.000189929925817101 7.23104118619159e-05 0.000521778334764665 0.000286964824491587 0.000339792547110395 0.000550576617311896 0.000549454322369339 0.000139145349116519 0.000594106787735671 0.000172564026489744
"240" -0.000182364959587499 -0.000295059581878572 -0.000217833533238811 -0.000364474884026626 -0.000364075359625563 7.44722539742826e-05 -0.000202502618154934 7.31743203172762e-05 0.000630778101705435 0.000283117693248729 0.000335232838095999 0.000554278069998993 0.00054442272906723 0.000128485232086489 0.000579283809269209 0.000154153485645519
"241" -0.000200604875883368 -0.000298594380379917 -0.000227647188612252 -0.000376661373492412 -0.000375282712439176 6.95913414622936e-05 -0.000214719883983804 7.43365496486947e-05 0.000736773716356024 0.000278506736948353 0.000330052616663562 0.000557630001021673 0.000538755137143274 0.000117198305110388 0.000564088677691419 0.00013575476638503
"242" -0.00021841908614286 -0.000301543995278049 -0.000236795518325224 -0.00038782793766871 -0.000385927759988771 6.47981458997115e-05 -0.000226490664513073 7.58408816112697e-05 0.000839216777386084 0.000273262747394026 0.00032429944228143 0.000560717013162525 0.00053249433670482 0.000105332074259374 0.00054867401909394 0.000117444196141112
"243" -0.000235684744387414 -0.000303906278669816 -0.000245243848974943 -0.000397925565885201 -0.00039595057492628 6.01403889660811e-05 -0.000237734087274297 7.7717142964616e-05 0.000937567750855782 0.000267516610263127 0.000318021120144703 0.00056361827865075 0.000525683245168986 9.2946330977584e-05 0.000533193343596553 9.93001845413801e-05
"244" -0.00025228133533096 -0.000305687450907522 -0.000252955982243516 -0.000406919151888092 -0.000405287279569228 5.56701591707497e-05 -0.000248368391461401 7.99944356555331e-05 0.00103131043312837 0.000261398370242023 0.0003112688432056 0.00056641130179205 0.000518359863524709 8.00950365895286e-05 0.000517786882627343 8.13895019937193e-05
"245" -0.000268104952654643 -0.000306889527930212 -0.000259910741667864 -0.000414776217537918 -0.000413885735275417 5.14338759394273e-05 -0.00025831522057408 8.27022558192666e-05 0.0011199523717391 0.000255033378028233 0.000304091574423024 0.000569166131265306 0.000510559593610671 6.68484203911681e-05 0.000502590138610392 6.3783404967182e-05
"246" -0.000283042334182402 -0.000307518962541339 -0.000266084485702592 -0.000421474113194658 -0.000421692244191512 4.74783212122428e-05 -0.000267498953775866 8.58563860136799e-05 0.00120300366396853 0.000248559905943877 0.000296539276107849 0.00057196080129324 0.000502324958448539 5.32733546191262e-05 0.000487738931064414 4.65494495830532e-05
"247" -0.000296995090811078 -0.000307587924513192 -0.000271461020814216 -0.0004269979672354 -0.000428655286135894 4.38458046130722e-05 -0.000275854725791725 8.94806793329349e-05 0.00128001535796448 0.000242102938561499 0.000288661990250224 0.000574856264964565 0.00049368900943893 3.94459869535139e-05 0.000473353362263862 2.97494363792014e-05
"248" -0.000309874239176176 -0.000307106329595397 -0.00027603593948362 -0.000431341485415338 -0.000434737757315856 4.05763255969096e-05 -0.000283321187712028 9.35850998954507e-05 0.00135054472128636 0.000235789927727875 0.000280510940805089 0.000577916369953282 0.000484689225116956 2.54462315743544e-05 0.000459548095857765 1.34442321203448e-05
"249" -0.00032159565188776 -0.000306090064235702 -0.000279801621174358 -0.000434510753460477 -0.000439900950089481 3.77100094723835e-05 -0.000289838445427073 9.81787872246841e-05 0.00141417121590211 0.000229735428042379 0.000272130585664031 0.000581192168573777 0.000475349346337253 1.13547094919958e-05 0.000446421167475346 -2.31308744227402e-06
"250" -0.000332081890754232 -0.00030455310208769 -0.000282762470806904 -0.000436513172415797 -0.000444110202975921 3.52803137573848e-05 -0.000295361214604181 0.000103267739666665 0.00147051018144545 0.000224059588160684 0.000263571216127004 0.000584732923773848 0.000465705612384617 -2.73729544244363e-06 0.00043406957078676 -1.74712590329735e-05
"251" -0.000341270767616065 -0.000302518899132886 -0.000284927454125967 -0.000437376399722297 -0.000447342184605465 3.33139413636497e-05 -0.000299846669887376 0.000108848902196356 0.001519183868824 0.000218861655048726 0.000254876110562312 0.000588575751260621 0.000455775890239895 -1.67548439715807e-05 0.00042256629006972 -3.19884935778303e-05
"252" -0.000349103676971343 -0.000299998944961361 -0.000286306924340825 -0.000437119145815478 -0.000449573334289921 3.18435409511773e-05 -0.000303257695087848 0.000114918748292768 0.0015598608301818 0.000214251238206309 0.000246092482521884 0.000592756958397209 0.000445596212332337 -3.05997843686487e-05 0.00041198554363577 -4.58162683565731e-05
"253" -0.000355541197732054 -0.000297023285904373 -0.000286924803122995 -0.000435783574646837 -0.000450794847629463 3.08855385304776e-05 -0.000305569040795327 0.00012146394593039 0.00159222249388643 0.000210307812961927 0.000237253887168287 0.000597293934604171 0.000435178866639456 -4.41865992640091e-05 0.000402373361274467 -5.89263641543349e-05
"254" -0.000360544148396916 -0.000293610062154541 -0.000286796888029133 -0.000433409668468612 -0.000450995412590812 3.04627768868433e-05 -0.000306763807534078 0.000128470513913346 0.00161599080013204 0.000207123397770613 0.000228403169861222 0.000602206948553781 0.000424551409762537 -5.7426611577391e-05 0.000393777276939273 -7.12826364133046e-05
"255" -0.000364092476474673 -0.000289786396985705 -0.000285956075531831 -0.000430051514485444 -0.00045017428921245 3.05844907619803e-05 -0.000306829389967942 0.000135916940971815 0.00163092009368464 0.000204759688329528 0.000219570996227601 0.000607493059484076 0.000413723773693495 -7.02329672987269e-05 0.000386218175670513 -8.28662599365016e-05
"256" -0.000366175764109375 -0.000285576188883058 -0.000284434189014163 -0.000425762055705482 -0.000448337295203164 3.12599856339352e-05 -0.000305764524537237 0.000143777032529361 0.00163680540377101 0.000203281073511771 0.000210792556037107 0.000613157481528248 0.000402716357718404 -8.25185589164762e-05 0.000379712174563181 -9.36555295147546e-05
"257" -0.000366791387808464 -0.000281003352725076 -0.000282266938409334 -0.000420608176030311 -0.00044549727934241 3.24948095555729e-05 -0.000303575550248605 0.000152022794429302 0.00163347841866102 0.000202730614277282 0.000202095671688977 0.000619182612571452 0.000391537895591083 -9.41985140701766e-05 0.000374257191037049 -0.000103634820475652
"258" -0.000365952489283582 -0.000276099199477998 -0.000279495394949529 -0.000414656719885764 -0.00044167034501263 3.42850804923639e-05 -0.000300278650605829 0.000160619460357088 0.0016208233928737 0.000203148364310239 0.000193500368955762 0.000625545151577334 0.000380200871967689 -0.000105192674447002 0.000369841176267923 -0.000112798835421293
"259" -0.000363682524296436 -0.000270894317103936 -0.000276160520157839 -0.000407981828005048 -0.000436884538823254 3.66271971583951e-05 -0.000295898021451863 0.00016952262938573 0.00159876963251652 0.000204558002648257 0.000185033467906618 0.00063221782829635 0.000368715293935964 -0.000115419926308089 0.000366435435685313 -0.000121144448877197
"260" -0.000360015707423138 -0.000265413320921572 -0.000272313027849691 -0.00040066263742102 -0.000431169714556793 3.95072972896608e-05 -0.000290465507881623 0.000178692612346997 0.00156730139040717 0.000206963095011134 0.000176706535860096 0.000639149947730997 0.000357083746274091 -0.000124810354658648 0.000363997633544759 -0.00012867732454187
"261" -0.000354999346052764 -0.000259690033131479 -0.00026799934586097 -0.000392782568918444 -0.000424564058080533 4.29091891704681e-05 -0.000284022746975945 0.000188079722953097 0.00152646145987668 0.000210363134857316 0.000168532296226398 0.000646298468649914 0.000345308490795104 -0.0001332916167124 0.000362474917230017 -0.000135404875015752
"262" -0.000348690868766599 -0.000253755861617129 -0.000263272876488888 -0.000384426009697117 -0.000417112320399443 4.68115631723276e-05 -0.000276616602703266 0.000197631715961389 0.00147635030479867 0.000214740793248814 0.000160522793997857 0.000653598890826425 0.000333396326351901 -0.000140802748737742 0.000361800765722961 -0.000141343556650034
"263" -0.000341154236294362 -0.00024764005360037 -0.000258187007992543 -0.000375685091355356 -0.000408860501390831 5.11890392888233e-05 -0.000268302771288501 0.000207294071570474 0.00141714029275379 0.000220069527758064 0.00015268001314876 0.000660988111405313 0.000321343642772655 -0.000147281110282182 0.000361900996663226 -0.000146514149750091
"264" -0.00033247353170026 -0.000241379330260311 -0.000252799434160634 -0.000366651087724922 -0.00039986557265232 5.6009117475726e-05 -0.000259150059119525 0.000217003273072687 0.00134907426454256 0.000226300207057174 0.000145004519880611 0.000668382140221942 0.000309149072696889 -0.000152673668584011 0.000362679564779422 -0.000150947179118751
"265" -0.000322729699951267 -0.000235005784408666 -0.000247164911630559 -0.000357415704047196 -0.000390188558397968 6.12374839571879e-05 -0.00024922447641753 0.000226703221030651 0.00127245628029548 0.000233383355421088 0.000137493424697106 0.000675704349221281 0.000296810563955998 -0.000156935166372294 0.000364047791666699 -0.000154667939522798
"266" -0.000312023525853926 -0.000228553466529433 -0.000241345644223339 -0.000348078807954722 -0.000379893916353585 6.68318758764465e-05 -0.000238608634551828 0.000236325021671561 0.00118767818222093 0.000241237345757032 0.000130137124140883 0.000682855109106479 0.000284316379869416 -0.000160027339540556 0.000365887311081317 -0.000157719975416698
"267" -0.000300456889888075 -0.000222056473146684 -0.000235395679255095 -0.000338729235819909 -0.000369052826050995 7.27478287704539e-05 -0.000227382678856527 0.000245799386918733 0.00109520314421564 0.000249791327469603 0.000122928775656721 0.000689738532441086 0.000271666940361664 -0.00016191544836401 0.000368088697702793 -0.00016014561073247
"268" -0.000288144581107951 -0.000215553697493198 -0.000229377355888541 -0.000329468570880514 -0.000357734642461542 7.89391689582013e-05 -0.000215634756690279 0.000255064237641144 0.000995585071766935 0.000258947631722764 0.000115848111940326 0.000696253900080389 0.000258849260960258 -0.000162577373799535 0.000370524042929267 -0.000161989614628415
"269" -0.000275203667897473 -0.000209076414400341 -0.00022334772032366 -0.000320386106044989 -0.000346020149678138 8.53514634788578e-05 -0.000203461260306548 0.000264039869869377 0.000889444974936073 0.000268598871687625 0.000108879755936862 0.000702286432699435 0.000245852990269736 -0.000161989932694886 0.00037306419724462 -0.000163307915698723
"270" -0.000261759607829918 -0.000202663537562619 -0.000217368070600591 -0.000311577558663933 -0.000333988515534713 9.19289218849323e-05 -0.000190958528815145 0.000272662202199777 0.000777505948167103 0.000278628460157825 0.000102000707533909 0.000707724986004762 0.000232668986292774 -0.000160151907037375 0.000375574313726736 -0.000164156319149805
"271" -0.000247940294532713 -0.00019635366395425 -0.000211494267942108 -0.000303135267285271 -0.000321718537530159 9.86147880825555e-05 -0.000178230931029246 0.000280854604345717 0.000660556352026899 0.000288912224796674 9.51872538278057e-05 0.000712454044679231 0.000219278773792153 -0.000157058526987942 0.000377912765288234 -0.000164595194499364
"272" -0.000233882523245279 -0.000190181343945283 -0.000205787427710371 -0.000295146479900034 -0.000309301248268483 0.00010534556781222 -0.00016537896893319 0.000288545245098709 0.000539474309804178 0.000299308574941924 8.8407055295038e-05 0.000716346222974256 0.000205669524432174 -0.000152722629843351 0.000379936972480591 -0.000164693797443824
"273" -0.000219722204461962 -0.000184187471281998 -0.000200299990399785 -0.000287700697585985 -0.000296819723784174 0.000112058050843171 -0.000152510414379324 0.000295657605992387 0.000415221810682667 0.000309674403339241 8.16303291853636e-05 0.000719284318777645 0.000191826433136139 -0.000147158505985188 0.000381502268511644 -0.000164516670727387
"274" -0.000205595016699163 -0.000178409601554798 -0.000195090832343307 -0.000280880256843348 -0.000284360525369962 0.000118685816769135 -0.000139738009504226 0.000302128740656754 0.00028882838125314 0.000319854720738264 7.48224076489317e-05 0.000721140306257294 0.000177726853287209 -0.000140395192467827 0.0003824601586331 -0.000164141100568365
"275" -0.000191642305486244 -0.000172882760773953 -0.000190205217465133 -0.000274759972706666 -0.000272011656822079 0.000125165193104799 -0.000127159136497045 0.000307880134082481 0.000161388547967264 0.00032969908446276 6.79514235945565e-05 0.000721800683800198 0.000163361220576147 -0.000132468923120939 0.000382671955545385 -0.000163635059295672
"276" -0.000178003788995788 -0.000167649686748716 -0.000185704811609688 -0.000269420911637547 -0.00025985867895083 0.000131424044770615 -0.00011488811529698 0.000312847503048266 3.40647920917962e-05 0.000339034451079737 6.09720855636115e-05 0.000721133157737939 0.0001486992325002 -0.000123428670730801 0.000381989025598395 -0.000163083757906435
"277" -0.000164811247117841 -0.000162742771383338 -0.000181626490360534 -0.000264926140223429 -0.000247986332303816 0.000137397323909219 -0.000103030152854499 0.000316963685208581 -9.1929951457133e-05 0.000347701699844811 5.38533952075763e-05 0.000719031574187884 0.000133729369125527 -0.000113322590150941 0.000380278136718125 -0.000162558445117534
"278" -0.000152204823596616 -0.000158203537268361 -0.000178022209560928 -0.000261343352383977 -0.000236480356989082 0.000143014604312067 -9.1685550061171e-05 0.000320166102995835 -0.000215353260522541 0.000355525903528745 4.6547308584793e-05 0.000715368761064859 0.000118424805958654 -0.000102221611931643 0.000377400029784228 -0.000162144227007311
"279" -0.000140311450419362 -0.000154067941967374 -0.00017493567346418 -0.0002587324075255 -0.000225421417813334 0.000148209636646202 -8.09600246818492e-05 0.00032239095057421 -0.000334930770443654 0.00036233374764303 3.90110330699646e-05 0.000710041102227585 0.000102763007102108 -9.01970716314476e-05 0.000373223029697547 -0.000161922723516951
"280" -0.000129257016728518 -0.000150371235646699 -0.000172401525744941 -0.00025714463554899 -0.000214884217539158 0.00015291601931142 -7.09411679151099e-05 0.000323588189500022 -0.000449381648557314 0.000367966490478018 3.12087464669764e-05 0.000702949359291007 8.67269307109886e-05 -7.73327429850966e-05 0.00036763108889843 -0.00016196894223153
"281" -0.000119161868956915 -0.000147150748230451 -0.000170459571788333 -0.000256623957725362 -0.000204948656752662 0.000157068052681369 -6.17298333194115e-05 0.000323701677352677 -0.000557433038450569 0.000372245082816303 2.30922019243025e-05 0.000693988440292907 7.02914833643246e-05 -6.37218711135119e-05 0.000360507424896132 -0.000162368839009382
"282" -0.00011013994021875 -0.000144437627350321 -0.000169142208414771 -0.000257213237539892 -0.000195683320346813 0.000160602969510929 -5.34082843691844e-05 0.000322682262271662 -0.000657843784227625 0.000375009087881786 1.46208751376477e-05 0.000683074095355275 5.34315092535173e-05 -4.9463389528682e-05 0.000351743424076378 -0.000163201033798687
"283" -0.000102292694255717 -0.000142264811935435 -0.000168480801630412 -0.000258944769146944 -0.000187151875076364 0.000163460183641013 -4.60579911695914e-05 0.000320493035891865 -0.000749406628530959 0.000376100190302234 5.75105896364422e-06 0.000670126333916242 3.61275739025573e-05 -3.46648469211884e-05 0.000341248132330634 -0.000164542126689655
"284" -9.57150097905203e-05 -0.000140664800266472 -0.000168494296181124 -0.000261840571177224 -0.000179415545360486 0.000165586680390721 -3.97489942378451e-05 0.00031709651466377 -0.000830997882300947 0.000375371137692863 -3.55842726971185e-06 0.000655080392145761 1.83577578908852e-05 -1.94487573991953e-05 0.000328936773795577 -0.000166467300004792
"285" -9.04990547227919e-05 -0.000139663234683398 -0.000169210923064772 -0.000265924234385532 -0.000172532688199045 0.000166923909354253 -3.45506954866458e-05 0.000312461430350488 -0.000901566310397292 0.000372672296204253 -1.33492704159605e-05 0.00063787410299086 9.67053946719357e-08 -3.93002077878773e-06 0.000314731770547868 -0.000169051499276893
"286" -8.67146359649437e-05 -0.000139286478005835 -0.000170643967847919 -0.000271202062455949 -0.000166546320446099 0.00016742623907707 -3.05154551139072e-05 0.00030656583690278 -0.000960171404342567 0.000367875400509627 -2.36544649870166e-05 0.000618465384499048 -1.86679444741252e-05 1.17561081504944e-05 0.000298579156324195 -0.000172358871293222
"287" -8.44276153648684e-05 -0.000139560892592232 -0.000172808126124531 -0.000277679768704391 -0.000161500692566165 0.000167049476330337 -2.76968016323133e-05 0.000299391406337864 -0.001006008266898 0.000360855436012136 -3.45181037514251e-05 0.000596823378783674 -3.79634980137819e-05 2.74785725998412e-05 0.000280428484519788 -0.000176459428378973
"288" -8.36943863869947e-05 -0.000140503122414979 -0.000175713239374237 -0.00028535675198914 -0.000157432417333544 0.000165752273101124 -2.6133879094228e-05 0.000290924475172251 -0.0010383974715688 0.000351506530383355 -4.5967204671726e-05 0.000572925379071142 -5.78019866746974e-05 4.30953496770843e-05 0.000260243484962147 -0.00018141101604855
"289" -8.45512083156601e-05 -0.000142133820254531 -0.000179363927138158 -0.000294218805694027 -0.000154366542932624 0.000163503127716613 -2.5856163002625e-05 0.000281168294775405 -0.00105682151747995 0.000339735678894605 -5.80392639995834e-05 0.000546768511676538 -7.82019044635752e-05 5.84618727904276e-05 0.000238006436889538 -0.00018726820038522
"290" -8.70309691431603e-05 -0.000144465739117546 -0.000183758668749166 -0.000304250332544611 -0.000152319281212593 0.000160274373658602 -2.68821802106794e-05 0.000270121177485692 -0.0010609272389815 0.000325464739316175 -7.07550452469662e-05 0.000518370088504706 -9.91730534257233e-05 7.34429375682642e-05 0.00021371344493873 -0.000194076404058085
"291" -9.11436149836148e-05 -0.00014750788511036 -0.000188898364160882 -0.00031542731293326 -0.000151310780901185 0.00015604282380067 -2.92256389333631e-05 0.000257799838355562 -0.00105054187345112 0.000308633861506432 -8.41440203941094e-05 0.000487752207872115 -0.000120726584013126 8.78826915408584e-05 0.000187370636095059 -0.000201880985905258
"292" -9.6899422016932e-05 -0.000151269948665816 -0.000194771870921226 -0.000327716485417973 -0.000151338884168129 0.000150791783051565 -3.28867478854775e-05 0.000244220301333902 -0.00102565084963938 0.000289197009759099 -9.82258169532362e-05 0.000454954828201589 -0.00014287088214329 0.00010163680165973 0.000159002960652297 -0.000210715234589605
"293" -0.000104288415457432 -0.000155751928335885 -0.000201369715953355 -0.000341084654007801 -0.000152404010602707 0.000144515250904511 -3.78552337134515e-05 0.000229410023780861 -0.000986431765342971 0.0002671313512875 -0.000113015082635315 0.000420039229326159 -0.00016560826265055 0.000114565778293059 0.000128643426431051 -0.000220607978130152
"294" -0.000113285996472194 -0.000160953006923359 -0.000208674302917892 -0.000355484105700461 -0.00015449126869981 0.000137210763215975 -4.41107621940128e-05 0.000213403998074343 -0.000933228271004576 0.000242430740324036 -0.000128526596594816 0.000383071620759549 -0.000188940452874705 0.000126521640661143 9.6342696356251e-05 -0.000231577354973212
"295" -0.000123858531519635 -0.000166866912688225 -0.000216666241649013 -0.000370869467620017 -0.000157586936910316 0.000128880405290873 -5.16268365950224e-05 0.000196242299376319 -0.000866542400192384 0.000215107434865677 -0.000144766152292186 0.00034414189632392 -0.000212863280208283 0.000137372783924138 6.21679090720995e-05 -0.000243633577516421
"296" -0.000135960164422236 -0.000173481522296068 -0.000225325059606032 -0.000387182027427516 -0.000161659280128044 0.000119540543020995 -6.03627216707849e-05 0.000177973171651857 -0.000787037221302643 0.000185197718282089 -0.000161737286761104 0.000303349403224076 -0.000237366674723519 0.000146988190715452 2.61928520234467e-05 -0.000256781596781413
"297" -0.000149538630218061 -0.000180784951590938 -0.000234621006894794 -0.000404367198524078 -0.000166679015914607 0.000109204329092423 -7.02715266959061e-05 0.000158650526579497 -0.000695506527155593 0.000152748495306999 -0.000179438381676215 0.000260811475711007 -0.000262441726173511 0.000155240053955699 -1.14930013499731e-05 -0.000271016240425088
"298" -0.000164516595596857 -0.000188754458447729 -0.000244526568687646 -0.000422357112699411 -0.000172603588306968 9.78994368415058e-05 -8.12983131994575e-05 0.000138338176497004 -0.000592870489165754 0.000117839692924969 -0.000197860787090394 0.000216656661079276 -0.00028807139749735 0.000162013343024013 -5.07882945980542e-05 -0.00028632148108984
"299" -0.000180819140802805 -0.000197363874804443 -0.000255005018304122 -0.000441084886211527 -0.000179385956384356 8.56597486030103e-05 -9.33734570043385e-05 0.00011710747394814 -0.000480156003237194 8.05633765969865e-05 -0.000216989906322264 0.000171025482187896 -0.000314225570221204 0.000167211612252421 -9.15768628415491e-05 -0.000302672024378664
"300" -0.000198361397831393 -0.000206587463361189 -0.000266020888577749 -0.000460483310480348 -0.000186972423852885 7.25211538472042e-05 -0.000106427566963409 9.50258109839528e-05 -0.000358483552370485 4.1027220048978e-05 -0.000236809293880322 0.00012407277833269 -0.000340884824441147 0.000170734838967195 -0.000133743072709756 -0.000320038199703098
"301" -0.000217042791264655 -0.000216390105189824 -0.000277535592823231 -0.000480470299317874 -0.000195303582406415 5.85308598971345e-05 -0.000120378095680426 7.21800371961374e-05 -0.000229034106576291 -6.38505016389127e-07 -0.000257296053412319 7.59628360647476e-05 -0.000368012291909218 0.00017250624315935 -0.000177151179848524 -0.000338378631878262
"302" -0.000236759970662269 -0.000226733236325258 -0.000289504946200595 -0.00050097445880737 -0.000204315686274205 4.37381985163904e-05 -0.000135142679614397 4.86489071483298e-05 -9.30513593449413e-05 -4.42903326337118e-05 -0.000278422081520677 2.68658577175496e-05 -0.000395568038273519 0.000172464337091547 -0.000221662515443104 -0.00035764411001547
"303" -0.000257400164134099 -0.000237575567004325 -0.000301888394557051 -0.000521916235335608 -0.000213940744070692 2.81995282896402e-05 -0.000150624785263335 2.45252115594621e-05 4.81863616887246e-05 -8.9762257359436e-05 -0.000300150836208062 -2.30338310992381e-05 -0.00042350978098928 0.000170554581664657 -0.000267128745048871 -0.000377775477610402
"304" -0.000278842894215627 -0.000248869992579984 -0.000314637159699848 -0.00054321471351575 -0.000224104043036737 1.19780273277798e-05 -0.000166725542197401 -9.92459373860646e-08 0.000193378988197006 -0.000136881866241358 -0.000322444400226622 -7.35512312312658e-05 -0.000451785871206564 0.000166746886005405 -0.000313399321185976 -0.000398709114754947
"305" -0.000300970359036588 -0.000260564883956888 -0.0003277051319827 -0.000564784433988792 -0.000234730564533531 -4.86065737560047e-06 -0.000183348241770957 -2.51298737218522e-05 0.000341215986828386 -0.000185459288799165 -0.000345259847292878 -0.000124488358913314 -0.000480341613842023 0.000161023136893609 -0.000360309564229876 -0.000420369111035846
"306" -0.000323649620663435 -0.000272610367345477 -0.000341040501699009 -0.000586548577801386 -0.000245737895548213 -2.22446760003068e-05 -0.000200381944929 -5.04614563205797e-05 0.000490397082487937 -0.000235289620397911 -0.000368543809873181 -0.000175647044576878 -0.000509114919723407 0.000153386709285907 -0.000407700398282246 -0.000442675179440512
"307" -0.000346754826113088 -0.000284945946334244 -0.000354592325808309 -0.000608422229723915 -0.000257049317646673 -4.0099844167675e-05 -0.000217720979128704 -7.59965147591474e-05 0.000639636776016912 -0.000286163937717294 -0.00039224697220886 -0.000226829959830835 -0.000538038938113102 0.00014385698908461 -0.000455404255319729 -0.000465542791419118
"308" -0.000370151408371123 -0.000297515211506239 -0.000368310107187705 -0.000630321895349165 -0.000268578186461616 -5.83460529642348e-05 -0.000235255701818533 -0.000101631024124857 0.000787678916024998 -0.000337862766943563 -0.000416308183901109 -0.000277829544544496 -0.000567042802487567 0.000132473054255937 -0.000503253275752423 -0.000488877797477882
"309" -0.00039370713700871 -0.000310255239113863 -0.000382138850062339 -0.000652170716605583 -0.000280242346286902 -7.69039478904614e-05 -0.000252873941423187 -0.000127264176345016 0.000933301526770954 -0.000390160352240323 -0.000440666751349673 -0.000328443923646494 -0.000596052339187727 0.000119288743476355 -0.000551075680056786 -0.000512580365449924
"310" -0.000417288538772337 -0.000323102934244331 -0.000396030219985113 -0.000673885335670572 -0.000291960736032509 -9.56893022823006e-05 -0.000270467288407087 -0.00015278513529218 0.00107532986322588 -0.000442824261840075 -0.000465257371744877 -0.000378476646473542 -0.000624984175337641 0.000104380662218674 -0.000598702528533462 -0.000536550303322821
"311" -0.000440764769110513 -0.000335990015676569 -0.000409924468278294 -0.000695387082672051 -0.000303646565550691 -0.00011461553508587 -0.000287918603883974 -0.000178091432665683 0.00121263826616536 -0.000495612513171234 -0.000490006489146871 -0.00042771436884168 -0.000653747130836 8.78396989887248e-05 -0.000645959430568788 -0.000560673057007329
"312" -0.000464003077659027 -0.000348854007382368 -0.000423773422701846 -0.000716600977398511 -0.000315219177183985 -0.000133598677706342 -0.000305123480145777 -0.000203081852138766 0.00134416315462383 -0.000548295010786634 -0.000514845397353833 -0.000475970708827365 -0.000682259442360469 6.97730026351398e-05 -0.000692683261145451 -0.000584844587229605
"313" -0.00048688290663276 -0.000361624422657832 -0.00043752164509637 -0.000737453015985954 -0.000326598380652368 -0.000152550313376734 -0.000321974374734009 -0.000227654464854827 0.0014688953338821 -0.000600637421313913 -0.000539695691571367 -0.000523054493589852 -0.000710424470224416 5.03087029273082e-05 -0.000738707162345043 -0.000608950952127819
"314" -0.000509274081997278 -0.000374237393030476 -0.000451117740377962 -0.000757870832171878 -0.000337706427253888 -0.000171382977876589 -0.00033836679715123 -0.000251706805196731 0.00158590164963872 -0.000652400246027646 -0.000564481226443699 -0.000568779033315431 -0.000738143477919046 2.95841203306832e-05 -0.000783870572115705 -0.000632874679992356
"315" -0.000531058959938813 -0.000386620490010665 -0.000464508371864908 -0.000777783618108153 -0.000348466550076993 -0.000190010114376097 -0.000354195855216768 -0.000275143373817857 0.00169431513844499 -0.000703348940148371 -0.000589119947647596 -0.000612962501144802 -0.000765318886055173 7.75083908455403e-06 -0.00082800852983505 -0.000656497824611297
"316" -0.000552123925875977 -0.000398714872285616 -0.0004776441404887 -0.000797126427980209 -0.000358809726683372 -0.000208346671104039 -0.000369369826015246 -0.00029787018660492 0.00179334440472983 -0.000753260262912926 -0.000613533044316715 -0.000655436895202143 -0.000791848581020813 -1.50254217203107e-05 -0.000870971180891138 -0.000679706081423727
"317" -0.000572360979271611 -0.000410450203450514 -0.00049047734496655 -0.000815839329979456 -0.00036866629005013 -0.00022631028024949 -0.000383797986002884 -0.000319793702110023 0.001882283255055 -0.000801914643351055 -0.000637638487098738 -0.000696045495510374 -0.000817634087967073 -3.85698266238215e-05 -0.000912611238156344 -0.000702385975027267
"318" -0.000591672843418168 -0.00042177086105808 -0.000502959793009162 -0.000833862039021966 -0.000377975069145163 -0.000243819086377376 -0.000397392123985178 -0.000340835315653832 0.00196050131288576 -0.000849100706658233 -0.000661352469259281 -0.000734634897159221 -0.000842568982467832 -6.26979450442345e-05 -0.000952789719589841 -0.00072441759845358
"319" -0.000609964034168065 -0.000432609122033062 -0.000515041236427771 -0.000851136336986694 -0.000386677424932166 -0.00026079400584027 -0.000410072409365003 -0.000360904825599771 0.0020274549226578 -0.000894609099771476 -0.000684589102377362 -0.000771061650376634 -0.000866544711338181 -8.72197788423934e-05 -0.00099136535970448 -0.000745692496243011
"320" -0.000627147176848322 -0.000442907731241584 -0.000526680933739435 -0.000867610567133206 -0.000394715008996151 -0.000277158891678986 -0.00042176671233876 -0.000379930265324294 0.00208268602267536 -0.000938248329617417 -0.000707270051764005 -0.00080519535937567 -0.000889462442892477 -0.00011194109008042 -0.00102821295749416 -0.000766098238258447
"321" -0.000643144335181276 -0.000452617558445242 -0.000537837616949796 -0.000883240430990451 -0.000402046447277889 -0.000292843871692087 -0.000432408443266219 -0.000397838807650114 0.00212582331915374 -0.000979838475848116 -0.000729313274068461 -0.00083692586415678 -0.00091121918987921 -0.000136665387748367 -0.00106321296604596 -0.000785531538573496
"322" -0.000657880397051498 -0.000461683420008883 -0.000548468603947453 -0.000897978027805018 -0.000408623537604962 -0.000307778526112622 -0.000441937741523509 -0.00041456704278463 0.00215659229037291 -0.00101920881227861 -0.000750638002349938 -0.000866142478743073 -0.000931712882567176 -0.000161192584426504 -0.00109625136054704 -0.000803886526950024
"323" -0.000671304744741973 -0.00047006218989113 -0.000558538028874098 -0.000911786512929838 -0.000414413028714636 -0.000321901976098605 -0.000450306995528347 -0.000430056020447728 0.00217480788625868 -0.00105620518924384 -0.000771164504017167 -0.000892755786911814 -0.000950846007585689 -0.000185322368850197 -0.00112722898849265 -0.000821069774664947
"324" -0.000683358477092267 -0.000477704418670295 -0.000568007378106751 -0.000924628299120323 -0.000419381681346012 -0.000335153798717478 -0.00045746747414593 -0.000444249905114779 0.00218038284955622 -0.00109067980991201 -0.000790817855283986 -0.000916686213249535 -0.00096852138679312 -0.000208865824978096 -0.0011560475037803 -0.000836988887403803
"325" -0.000693998003959837 -0.000484576974630484 -0.000576848160945535 -0.000936471396818142 -0.000423504938301857 -0.000347479461032611 -0.000463391309236608 -0.000457102392914347 0.00217331811035156 -0.00112250690176095 -0.000809525056667188 -0.00093786848607106 -0.000984647199421312 -0.000231627428247378 -0.00118262438957877 -0.000851559905321007
"326" -0.000703185992717866 -0.0004906440304897 -0.000585028388078762 -0.000947286968391816 -0.000426763040976738 -0.000358833801404994 -0.000468046621477421 -0.0004685771588488 0.00215372094832709 -0.00115157345050587 -0.000827215590633106 -0.000956246044360287 -0.000999135680741198 -0.000253432507360457 -0.00120687934471692 -0.000864697313866735
"327" -0.000710903248949607 -0.000495881256734495 -0.000592519503015914 -0.000957053790787409 -0.000429147691834748 -0.000369171450151218 -0.000471419105325175 -0.000478640251753763 0.00212179167837772 -0.00117778299606243 -0.000843822371029078 -0.000971789152862059 -0.00101190686722991 -0.000274103889906433 -0.00122875529627527 -0.000876339992446673
"328" -0.000717128769381296 -0.000500261877034078 -0.000599299589641582 -0.000965749199697029 -0.000430643960675632 -0.000378455089343367 -0.000473496046827118 -0.000487262542092523 0.00207782919265607 -0.00120105063339197 -0.000859280379542203 -0.000984464265852625 -0.00102287580450694 -0.00029347425464712 -0.00124818825686116 -0.000886418499428991
"329" -0.000721855608786873 -0.000503769052226132 -0.000605345749839007 -0.000973359879416048 -0.000431258684194098 -0.000386653563693931 -0.000474279986278702 -0.00049442911662063 0.0020222265054953 -0.00122131208930225 -0.00087353699953556 -0.000994268274985454 -0.00103197959879601 -0.000311399304209569 -0.00126513602810928 -0.000894881417041052
"330" -0.000725082162338211 -0.000506390205792246 -0.000610639599825697 -0.000979870306722858 -0.000430988717437613 -0.000393742162506515 -0.000473775715065626 -0.000500122474914073 0.00195548081296331 -0.00123851391453347 -0.000886527993539247 -0.00100119159191632 -0.00103914316586852 -0.000327731162347057 -0.00127956190021173 -0.000901673833649165
"331" -0.000726817429347351 -0.000508118418947252 -0.000615164700339227 -0.000985275999593819 -0.000429848460310234 -0.000399701914243452 -0.000472001493991404 -0.000504342038215823 0.00187817462033705 -0.00125262803587249 -0.000898215776708657 -0.00100526108936302 -0.00104431833988404 -0.000342352986222891 -0.00129143962475984 -0.000906760860959377
"332" -0.000727077684223842 -0.000508952286016319 -0.000618910803201161 -0.00098956908195087 -0.000427852344188086 -0.000404516466792768 -0.000468977181007995 -0.00050708718137255 0.00179100109385543 -0.00126363091585731 -0.00090854560204343 -0.00100649736474963 -0.00104744903200565 -0.000355151939247734 -0.00130075645069631 -0.000910114516168602
"333" -0.00072589304751893 -0.000508896666596119 -0.000621868303084002 -0.000992752374409147 -0.000425020749621147 -0.000408181550072265 -0.000464738773912753 -0.000508366050739278 0.00169473114953759 -0.00127152496128767 -0.000917487166048614 -0.00100494323262147 -0.00104849590096691 -0.000366035741069903 -0.00130750667352634 -0.000911713908266012
"334" -0.000723283454497775 -0.000507959374488483 -0.00062403127247847 -0.000994825071455777 -0.000421379923226407 -0.000410692103321338 -0.000459324186935922 -0.00050819369621437 0.00159022243751135 -0.00127632193126864 -0.00092500450479181 -0.00100065174978325 -0.00104742209092332 -0.000374927812375571 -0.00131169342372484 -0.000911546619449129
"335" -0.00071929747015066 -0.000506156770727899 -0.00062539311233707 -0.00099579374074395 -0.000416956838688903 -0.000412054762671473 -0.000452776205468558 -0.000506590086203688 0.00147842469806719 -0.00127804547173642 -0.000931069342022236 -0.000993687355713326 -0.00104420308947748 -0.000381765909865252 -0.00131333278261253 -0.000909608438483241
"336" -0.000713973724481393 -0.000503508794015534 -0.000625958392384164 -0.000995670049647235 -0.000411784705371584 -0.000412278036310602 -0.000445151335470262 -0.000503580899256247 0.00136036548894694 -0.00127674368915775 -0.000935661890319713 -0.000984123060468908 -0.00103882271064232 -0.00038651104912951 -0.00131245006360068 -0.000905909398232241
"337" -0.000707363521415101 -0.00050003756371993 -0.000625727788595397 -0.00099446140714106 -0.000405899688047649 -0.000411373507022995 -0.000436507375037998 -0.000499198446527976 0.00123713742012284 -0.00127246805509263 -0.000938763556729998 -0.00097204054195428 -0.00103127106586661 -0.000389137761884787 -0.0013090753879108 -0.000900459057192937
"338" -0.000699523109986153 -0.000495774533937597 -0.000624706207789903 -0.000992186296754149 -0.000399345242985873 -0.000409365763591246 -0.000426908687769336 -0.00049348081728721 0.00110990839558388 -0.00126529281360517 -0.000940367084784382 -0.000957539881256632 -0.00102155117382157 -0.000389634484097812 -0.00130326020759267 -0.00089328807828428
"339" -0.000690514102697333 -0.000490749557814306 -0.000622904943120294 -0.000988862421446511 -0.000392161448235324 -0.000406279738798565 -0.00041642815866263 -0.000486472009361994 0.000979891769196799 -0.00125530328502201 -0.000940469983038059 -0.000940729639710039 -0.00100967590844804 -0.000388017548092896 -0.00129505143101654 -0.000884427847993107
"340" -0.000680399607062355 -0.000485004157345556 -0.000620331147090057 -0.000984507343744193 -0.000384394242431964 -0.000402140041728382 -0.000405139425001244 -0.000478215457296249 0.000848367379942054 -0.00124258514946605 -0.000939074759617487 -0.000921711983478432 -0.000995660445896141 -0.000384307055150147 -0.00128451169643508 -0.00087391612476252
"341" -0.000669248392194867 -0.000478576196578848 -0.000617006762061782 -0.000979147843682582 -0.0003760950789133 -0.000396986398271791 -0.000393121244369582 -0.000468767853235614 0.000716621464528937 -0.00122725631521114 -0.000936189940261794 -0.000900615459324645 -0.000979541430872759 -0.000378551630798235 -0.00127171360088116 -0.000861807693329214
"342" -0.000657129504874204 -0.000471508104468229 -0.000612942695118966 -0.000972808291303724 -0.000367306631295493 -0.000390853862781882 -0.000380456809453316 -0.000458180779238419 0.000585996638016418 -0.00120942614825377 -0.000931830770916142 -0.000877562381861509 -0.000961352665266648 -0.000370804130130855 -0.0012567340732073 -0.000848156933213946
"343" -0.000644121026103604 -0.000463854264238821 -0.000608162180355757 -0.000965514480290806 -0.000358084692640417 -0.0003837841554161 -0.000367231417853055 -0.000446516571989341 0.000457823932066537 -0.00118922138732848 -0.000926016925524974 -0.000852684371902604 -0.000941142497552159 -0.000361142246819827 -0.00123965891711232 -0.000833029865193722
