"V1" "V2" "V4" "V5" "V7" "V8" "V10" "V11" "V13" "V14" "V15" "V17" "V18" "V20" "V21" "V23"
"1" -0.000509638170564165 -0.000313368700433407 -0.000193657941173913 -0.000119561683667616 0.000177424362500928 -0.000113649577422907 -0.000424850382474076 -0.000439477781677578 1.29718631723148e-05 -5.42576703614616e-06 -9.71267907433368e-05 -0.00020568365323028 4.22474517468981e-05 -0.000385095623967947 -0.000491894376546717 -0.000308431352092178
"2" -0.000507263908660398 -0.000315391255571033 -0.000201397557998977 -0.000128055040792716 0.000161212363653819 -0.000131849676550168 -0.000426699359489349 -0.000431260829374821 1.16487329586739e-05 -4.89973353765996e-06 -9.13887280281606e-05 -0.000215670522963911 1.24451759906053e-05 -0.000376091582613457 -0.000483040430264637 -0.000332948409351512
"3" -0.00050165471151264 -0.000315124221265765 -0.000207641346746356 -0.000134668228743178 0.000146746843505355 -0.00014778087976492 -0.000424342365294972 -0.000420134414645893 1.03549122980778e-05 -3.90783505244644e-06 -8.5225435738398e-05 -0.000224797562551081 -1.75604814716873e-05 -0.000365813962629916 -0.000473466598303802 -0.000357573880752335
"4" -0.000492869061020466 -0.000312600666502789 -0.000212359070019261 -0.000139389397978506 0.000134080181588473 -0.000161408908681747 -0.000417867727917471 -0.000406159416639736 9.19307661569579e-06 -2.3976387867722e-06 -7.86055647146276e-05 -0.000233012292734291 -4.75961372861872e-05 -0.000354257748630014 -0.000463172117321151 -0.000382201413013547
"5" -0.000480994628538663 -0.000307880724450471 -0.000215529554430227 -0.000142218386460331 0.000123239765927075 -0.000172717638471207 -0.000407381566800704 -0.000389413053119319 8.26908693949592e-06 -3.06009904695338e-07 -7.15049520163763e-05 -0.000240261450628164 -7.74760595632713e-05 -0.000341421545395347 -0.000452148111727637 -0.000406716910131002
"6" -0.000466135060817593 -0.000301030040499914 -0.00021714394848926 -0.000143171972397335 0.000114232855512864 -0.000181713190448078 -0.000393029191596014 -0.000369997700161321 7.68600414743517e-06 2.41510169202376e-06 -6.38957534756783e-05 -0.000246501890063827 -0.000107017849629206 -0.000327317582375123 -0.000440399628749771 -0.000431013037077896
"7" -0.000448408873329351 -0.000292133750974465 -0.00021720723190556 -0.000142276889397728 0.000107057959891863 -0.000188417905741819 -0.000374986262087794 -0.000348029023824097 7.54971222548246e-06 5.82688264871011e-06 -5.57498447402266e-05 -0.000251684756059681 -0.000136032199848701 -0.000311960476812853 -0.000427934371673546 -0.000454977220261282
"8" -0.000427956804609763 -0.000281288006606789 -0.000215729590472922 -0.000139573635799251 0.000101677807954315 -0.000192868323197889 -0.000353443952480074 -0.000323645281640263 7.95504913733097e-06 9.9742023143156e-06 -4.70490072689114e-05 -0.000255770590449972 -0.000164336334816257 -0.000295382538205576 -0.000414758656852439 -0.000478502723507453
"9" -0.000404940946787232 -0.000268607509529952 -0.000212740168750817 -0.000135117505839624 9.80524334574547e-05 -0.000195123933913875 -0.000328632794869277 -0.000296997056126538 9.00163261318735e-06 1.49118175204109e-05 -3.77686681996017e-05 -0.000258720850053644 -0.000191747106540374 -0.000277615990112348 -0.000400884999538994 -0.00050148024385909
"10" -0.000379526212753111 -0.000254213137152311 -0.000208277677905925 -0.000128969812601062 9.61150765514487e-05 -0.00019525704078359 -0.000300800900767575 -0.000268252338512874 1.07801623381985e-05 2.06773686183091e-05 -2.7897605761276e-05 -0.000260504525428984 -0.000218088123900495 -0.000258708927541146 -0.000386338320854545 -0.000523809749585166
"11" -0.000351906049826158 -0.000238237655499372 -0.000202392413726741 -0.000121208996476317 9.57786675972806e-05 -0.000193355420152267 -0.000270219980576939 -0.000237590926913594 1.33692260825962e-05 2.73082007921643e-05 -1.74213976216399e-05 -0.000261099175972117 -0.000243200404594728 -0.00023871794147873 -0.000371140261179432 -0.000545396445662202
"12" -0.000322273412863661 -0.000220826429209021 -0.000195138899690292 -0.000111921566185101 9.69463988502023e-05 -0.00018952389155851 -0.000237183739506175 -0.000205208397007355 1.68418329346187e-05 3.4839032273535e-05 -6.33670830073879e-06 -0.000260480532735626 -0.000266927140416774 -0.000217710418895029 -0.000355324940264058 -0.000566154749679085
"13" -0.000290842481866812 -0.0002021293917589 -0.000186592830596355 -0.00010120575732576 9.95035504949829e-05 -0.000183877228634931 -0.000202000904548221 -0.000171308513617745 2.1261102689589e-05 4.32904293049214e-05 5.35853726732051e-06 -0.00025864207333832 -0.000289126691272011 -0.000195761493043073 -0.000338929629986297 -0.000586000551494562
"14" -0.000257828279429364 -0.000182304525984102 -0.000176825446257228 -8.91635681680301e-05 0.000103317326680147 -0.000176543453356968 -0.000164992501668041 -0.000136105907768823 2.66814226874793e-05 5.26818341524516e-05 1.76576336516113e-05 -0.000255571921505294 -0.000309668948261185 -0.000172952394009187 -0.000322001655505888 -0.000604860926468567
"15" -0.000223455388396524 -0.000161513615035963 -0.000165929684593516 -7.59097924096068e-05 0.000108250485105829 -0.000167662676501798 -0.000126496771072483 -9.98243593154042e-05 3.3138721404596e-05 6.30194804775122e-05 3.05501174161232e-05 -0.000251277262421616 -0.000328450555504007 -0.000149378291202889 -0.000304589642127053 -0.000622675695226715
"16" -0.000187956514830488 -0.000139927334566093 -0.000153998243080579 -6.15649258719641e-05 0.000114145294336741 -0.000157382720961844 -8.68654471769599e-05 -6.26935570235385e-05 4.06579989330791e-05 7.43009579606745e-05 4.40166712214839e-05 -0.000245770372065485 -0.000345380184223409 -0.000125144166163878 -0.0002867576282117 -0.000639393903305354
"17" -0.00015155981463333 -0.000117712662898916 -0.000141134404005913 -4.62585910048135e-05 0.000120840572941185 -0.000145860302250041 -4.64464328311044e-05 -2.49422981668785e-05 4.92509430734825e-05 8.6518288457829e-05 5.80284046568379e-05 -0.000239070768951943 -0.000360386598772171 -0.000100358087935247 -0.000268568976529324 -0.000654975624083644
"18" -0.000114506151111035 -9.50396808704848e-05 -0.000127447308572419 -3.01175691790031e-05 0.000128156888410436 -0.000133259892463117 -5.59892840116761e-06 1.31931651528863e-05 5.89145265910815e-05 9.96507587312533e-05 7.25585155620611e-05 -0.000231202844805078 -0.000373423167908425 -7.51402735533812e-05 -0.000250097484070552 -0.000669389114321245
"19" -7.70234176141084e-05 -7.20802172521907e-05 -0.000113044331293164 -1.32782678819753e-05 0.000135925499123373 -0.000119745691087236 3.53245361937641e-05 5.14779125604254e-05 6.96289974399125e-05 0.000113666628237024 8.75616534266712e-05 -0.000222207173839546 -0.000384457112261231 -4.96132419937957e-05 -0.000231425311473203 -0.000682621394763945
"20" -3.93451081597059e-05 -4.8995200831999e-05 -9.80486682736917e-05 4.12218614326148e-06 0.000143959634092402 -0.000105492406925031 7.59677896794795e-05 8.96771163061981e-05 8.13634515204466e-05 0.000128525036892197 0.000102993122716098 -0.000212126450499584 -0.000393485568718404 -2.39053636369499e-05 -0.000212636627598707 -0.00069466143790026
"21" -1.69391603149362e-06 -2.59555745169566e-05 -8.25762954282575e-05 2.19430821919261e-05 0.000152073391552227 -9.06717682030198e-05 0.00011598473817051 0.000127564028599881 9.40637056397673e-05 0.000144177420980623 0.000118797812994353 -0.000201018748969255 -0.00040053314970982 1.84189944606492e-06 -0.000193822558018953 -0.000705525746283811
"22" 3.57046280529145e-05 -3.11564576522908e-06 -6.67534890798617e-05 4.00408540866854e-05 0.000160079167695876 -7.54584382969861e-05 0.000155036602268369 0.000164909127586221 0.000107663793519242 0.000160559831004948 0.000134912502341659 -0.000188945460216053 -0.000405640016941922 2.74939365420128e-05 -0.000175078436719302 -0.000715231824180982
"23" 7.26450807400285e-05 1.93736240484949e-05 -5.06967531653929e-05 5.82851680304874e-05 0.000167801539880641 -6.00215293580308e-05 0.000192801817801419 0.000201499794296629 0.000122084547873553 0.000177603865475961 0.000151272503489125 -0.000175975815683325 -0.000408870401418008 5.29055064806508e-05 -0.000156509265779806 -0.00072380748197712
"24" 0.000108926597770512 4.13674636267445e-05 -3.45317480660994e-05 7.65324428043094e-05 0.000175056117294088 -4.4529752922677e-05 0.000228973901207908 0.000237126462011945 0.000137228369182519 0.000195225549002822 0.000167798488314136 -0.000162191077491583 -0.000410319703504982 7.79319592941856e-05 -0.0001382212700181 -0.000731300044557076
"25" 0.000144353068117709 6.27281444804508e-05 -1.83804612998627e-05 9.46505646629706e-05 0.000181667826369699 -2.91494931784262e-05 0.000263258287962884 0.000271591542089288 0.000152980281890906 0.000213334087366306 0.000184412153629793 -0.00014768016256346 -0.000410102372504769 0.000102428660344122 -0.000120317666430172 -0.000737765641570552
"26" 0.000178755591923587 8.333764121115e-05 -2.35797930803675e-06 0.000112511557300008 0.000187479364303428 -1.40330773762452e-05 0.000295397440919901 0.000304712715764882 0.00016922308684489 0.000231832447447172 0.000201026458404965 -0.000132533130403666 -0.000408349798432038 0.000126249729618821 -0.000102911133414347 -0.000743268890526903
"27" 0.000211967080927806 0.000103074167062672 1.34180820550199e-05 0.000129985992352163 0.000192328010598506 6.67121108324451e-07 0.000325146145711308 0.000336318553389362 0.000185811805779718 0.000250612964457561 0.000217552033683812 -0.000116855722254772 -0.000405227835633598 0.000149251163253826 -8.61113178072924e-05 -0.000747885901600474
"28" 0.000243840095092524 0.00012183789906011 2.88327341479978e-05 0.000146960076218194 0.000196072058320504 1.48116012048445e-05 0.000352287196497722 0.000366256242718802 0.000202599363445586 0.000269552114388074 0.000233893477489578 -0.000100755298865764 -0.000400914889110803 0.000171292238506449 -7.00323023553885e-05 -0.000751702127052618
"29" 0.000274245225855464 0.00013954060327164 4.37852715279491e-05 0.000163319868657233 0.00019858357449657 2.82727218434822e-05 0.000376640493457854 0.000394386497711784 0.000219427204085066 0.000288537234627889 0.000249951106720497 -8.43404869794987e-05 -0.000395605657143258 0.000192236806828451 -5.47768153624532e-05 -0.000754812594996343
"30" 0.0003030646780824 0.000156108225694764 5.81742669723171e-05 0.000178964527631665 0.000199749975163026 4.09348607965538e-05 0.000398050581220514 0.000420591146001968 0.000236123524146123 0.000307432181933914 0.000265628582497447 -6.77297300287524e-05 -0.000389517611432078 0.000211955525936373 -4.04575258996069e-05 -0.00075731519957458
"31" 0.00033020563539071 0.000171475292961678 7.19017683626721e-05 0.000193795694523766 0.000199471831424888 5.26907412043781e-05 0.000416401275273213 0.000444768539256512 0.000252519239179555 0.000326106043335832 0.00028082138059567 -5.10469828489404e-05 -0.000382876970161468 0.000230322727450101 -2.71752228115351e-05 -0.000759317132520919
"32" 0.000355584711365423 0.000185592993811903 8.48901498682916e-05 0.000207731855450285 0.000197668099744771 6.34544079998802e-05 0.00043160019476951 0.000466840375929566 0.000268425696055565 0.000344424668071556 0.000295429769924841 -3.4413127489214e-05 -0.000375930554339223 0.000247221491409743 -1.5025940255181e-05 -0.000760931553180324
"33" 0.000379144663432199 0.000198432557793959 9.70541115422048e-05 0.000220700926051673 0.000194285084988872 7.3150103303592e-05 0.00044360105206698 0.000486743155049153 0.000283665055005681 0.000362245859019415 0.000309352341133892 -1.79507670192916e-05 -0.000368923223748996 0.000262545664257012 -4.102029031719e-06 -0.00076226539244643
"34" 0.000400836002251067 0.000209964984775414 0.000108328751066132 0.00023263045092648 0.000189273038470655 8.17167242842267e-05 0.000452379668300829 0.000504435692419916 0.000298048268938148 0.000379428637217787 0.000322487232435498 -1.78935791371071e-06 -0.000362115125897733 0.000276199292001584 5.51063152062804e-06 -0.000763440984752167
"35" 0.000420639231596609 0.00022018975876858 0.000118656885158197 0.000243476963560842 0.000182621033107422 8.91137618801142e-05 0.000457962855683544 0.00051989755419882 0.000311390923341159 0.000395835138263802 0.000334740280273321 1.39503409822281e-05 -0.000355762778641186 0.000288094633520018 1.3734736791838e-05 -0.000764569220421042
"36" 0.000438544801829866 0.000229116832670569 0.000127984303472741 0.000253195030216729 0.000174323708018096 9.53139775327684e-05 0.000460393355409889 0.000533128896938951 0.000323517124968898 0.000411327611124312 0.000346020223288944 2.9142446331235e-05 -0.000350125547039496 0.000298159173200682 2.05055758276993e-05 -0.000765763741073329
"37" 0.000454559326025066 0.000236761853159101 0.000136275017600317 0.000261758825370295 0.000164406059956614 0.000100308210869948 0.000459760138902483 0.000544149908057824 0.000334246087273443 0.000425765640640968 0.000356234674947028 4.36711443618083e-05 -0.000345452768040221 0.000306331868976931 2.57633914194934e-05 -0.000767134088609516
"38" 0.000468710291023442 0.00024316170079335 0.000143497149681175 0.000269147334123407 0.000152909999593376 0.000104101705715704 0.000456174555559334 0.000552997436117943 0.000343408594385857 0.000439025793321965 0.000365303396033226 5.7420663477719e-05 -0.000342000430669011 0.000312562023417242 2.94641481085132e-05 -0.00076878926260983
"39" 0.000481037191898534 0.000248362239884383 0.000149634759844806 0.000275357528941846 0.000139895429232206 0.000106717534825736 0.000449785131421001 0.000559727545853027 0.000350849118234498 0.000450979358900543 0.000373152649966612 7.02797989251536e-05 -0.000339996868128651 0.000316819569666147 3.15706709516271e-05 -0.000770822524681221
"40" 0.000491591089103358 0.000252417554409741 0.000154676189478488 0.00028039480256744 0.000125444150224636 0.00010819079008001 0.000440762633154896 0.000564413925473425 0.000356416904907852 0.00046150775047822 0.000379709355248248 8.21509381979394e-05 -0.000339665106092342 0.000319084130331539 3.20601279797044e-05 -0.000773330994322202
"41" 0.000500438902063701 0.000255390917408039 0.000158628137612372 0.000284275886151047 0.000109657912381865 0.000108574844617514 0.000429303901273469 0.000567145137094026 0.000359981827815771 0.000470505850271529 0.000384919921645998 9.2935741446922e-05 -0.000341208051586406 0.000319347080954248 3.0924499309557e-05 -0.00077639167915278
"42" 0.000507665062162657 0.000257366946563048 0.000161499636862231 0.000287031110981359 9.2657285948067e-05 0.000107936645735051 0.000415628174113108 0.000568028030119963 0.000361425243980378 0.000477875215881708 0.000388726915933408 0.000102552899801167 -0.000344805189141881 0.000317621761673429 2.8166512157791e-05 -0.000780080259323266
"43" 0.000513352390888494 0.000258421524474961 0.000163308322207525 0.000288697387816694 7.45665172492007e-05 0.000106354187027307 0.000399970903426248 0.000567173430107076 0.000360641848503928 0.00048352900642462 0.000391093713823512 0.000110923362752943 -0.000350620470890308 0.00031393004611285 2.37973304562569e-05 -0.000784457870402961
"44" 0.000517600168324869 0.000258647943176747 0.000164090757446999 0.000289319444167718 5.55384162477396e-05 0.000103916867712347 0.000382588868204112 0.000564712084336321 0.000357553509117441 0.000487388588259404 0.000391988389136981 0.000117985140515064 -0.000358784743071417 0.000308307854400485 1.78483018664083e-05 -0.000789570287959051
"45" 0.000520513240990237 0.0002581422523861 0.000163884377924467 0.000288958165873879 3.5729954030275e-05 0.000100724122663873 0.000363748277660527 0.000560785351131278 0.000352093298658312 0.000489393222173533 0.000391390530894102 0.000123684773083385 -0.000369402083850586 0.000300807524030715 1.03633900439459e-05 -0.000795455055074517
"46" 0.000522200140624998 0.000256998373840664 0.000162732074311087 0.000287675784941667 1.53139280802539e-05 9.68861500655058e-05 0.000343720955071023 0.000555533088267184 0.000344221921989367 0.000489498747354859 0.000389289854982692 0.000127978926706788 -0.000382551044130146 0.000291492655924564 1.39204449635685e-06 -0.000802131690900964
"47" 0.000522772479369625 0.000255323956244267 0.000160695309870414 0.000285541258200599 -5.54180694443884e-06 9.25159083308585e-05 0.000322790670331112 0.000549110585936277 0.000333914729251094 0.000487668781347276 0.000385689960089884 0.000130839705132707 -0.00039827712027325 0.000280439037661219 -8.99919719312193e-06 -0.000809613344615354
"48" 0.000522347407769754 0.000253217391357031 0.000157827390074217 0.000282632222253239 -2.66438368338173e-05 8.77330872937481e-05 0.000301236312697155 0.000541670611481215 0.000321172803803441 0.000483883282125484 0.000380599808973539 0.000132250603040833 -0.000416595344213383 0.000267733514274597 -2.07337944821769e-05 -0.000817891167760707
"49" 0.00052104304891954 0.000250783998393629 0.000154195848831046 0.000279027066079756 -4.78161036137188e-05 8.26628586714775e-05 0.000279340828419555 0.000533372778893927 0.000306020856135505 0.000478140493625459 0.000374045642356313 0.000132203752194675 -0.000437491460776272 0.000253473632190258 -3.37223271167518e-05 -0.000826947221720164
"50" 0.000518967568380883 0.000248125874082525 0.000149870140921686 0.00027481089632659 -6.88605463264284e-05 7.74288942324523e-05 0.000257380979586632 0.000524375565518889 0.000288498861790981 0.000470454281804269 0.000366062567895886 0.000130708481636095 -0.00046092477706382 0.000237768278736834 -4.78685479930193e-05 -0.000836749904125415
"51" 0.000516239750975024 0.000245336037943954 0.00014492619611023 0.000270067876842847 -8.95989593390307e-05 7.21525194259995e-05 0.000235623285359296 0.000514832152010121 0.000268673118072298 0.000460845745065157 0.000356694026258115 0.000127783546101654 -0.000486815305405667 0.000220729352845942 -6.30685170881897e-05 -0.000847252095229229
"52" 0.000512965273656296 0.000242515662568582 0.000139435710138924 0.000264884623186823 -0.000109843812394461 6.69635894265264e-05 0.000214326722388306 0.000504902597521325 0.000246629300173191 0.000449363394316958 0.000345994586539819 0.000123458566515672 -0.000515063571856955 0.000202483266086312 -7.92069036291264e-05 -0.000858397800690584
"53" 0.000509244375877654 0.000239747214322263 0.000133476854617107 0.000259347817793319 -0.000129418001897284 6.19769430847031e-05 0.000193734697144982 0.000494732262225562 0.000222471925627195 0.000436058519943732 0.000334031284793326 0.0001177763493445 -0.000545537427104676 0.000183158178978732 -9.61634183015556e-05 -0.000870116083422305
"54" 0.000505175216093493 0.00023711826465382 0.000127125501925084 0.000253539033448971 -0.000148148668824476 5.7305336391621e-05 0.000174076455841749 0.00048446533437312 0.000196328207177064 0.000421000151068905 0.000320875432206848 0.000110787746037479 -0.000578090308590619 0.000162884591526204 -0.000113814360596748 -0.000882332150432409
"55" 0.000500849489042157 0.000234700936202142 0.000120457251402683 0.000247541495053737 -0.000165876042502227 5.30580554482051e-05 0.000155560992385449 0.000474238355299257 0.000168335974203082 0.00040427919871099 0.000306608078952583 0.000102552843747337 -0.000612541810105198 0.00014180024768288 -0.000132024548003721 -0.000894953210620262
"56" 0.000496341460048974 0.000232566581177428 0.000113549174982361 0.00024143314571846 -0.000182447711759384 4.93341480225823e-05 0.000138375078224121 0.000464179250850766 0.000138654990860496 0.00038598286585762 0.000291321613016584 9.31390984484214e-05 -0.000648697719773501 0.000120044988932563 -0.00015066551690278 -0.000907881772614994
"57" 0.00049172489794607 0.000230772184765656 0.000106471873233757 0.000235285585276127 -0.000197726876691538 4.62255759226216e-05 0.000122690869145176 0.000454403812629415 0.00010745869425349 0.000366224844748268 0.000275110843390288 8.26265285773378e-05 -0.000686347964841738 9.77587271728003e-05 -0.000169599241553291 -0.000921017547711918
"58" 0.000487060045576021 0.000229367249379737 9.92937910871772e-05 0.000229169149894514 -0.000211588426172587 4.38105715750702e-05 0.000108653632505578 0.000445022348538775 7.49274356219844e-05 0.000345119879882664 0.000258080295618625 7.10953034239058e-05 -0.000725266896767575 7.50803501327144e-05 -0.000188687317509827 -0.000934250511530268
"59" 0.000482400981466498 0.000228394067396367 9.20815512145806e-05 0.000223144619680575 -0.000223920329137956 4.21586064361417e-05 9.63798247390263e-05 0.00043612910276656 4.1263541142933e-05 0.000322793777096715 0.00024033451901556 5.86371874255599e-05 -0.000765218127181743 5.2150333066257e-05 -0.000207796304134321 -0.000947467379979366
"60" 0.00047778826957253 0.000227883670529621 8.4893168893724e-05 0.000217267813785964 -0.000234634861120452 4.13292835444364e-05 8.59675027960045e-05 0.000427809369257658 6.66995870084507e-06 0.00029938636513637 0.000221986581576427 4.53454137453568e-05 -0.000805953705063677 2.91051255502277e-05 -0.000226793137744208 -0.000960551938157608
"61" 0.000473251353729109 0.000227854858530585 7.7784921795109e-05 0.00021158907843303 -0.000243653839244386 4.13646226685386e-05 7.74877347702978e-05 0.000420134800525437 -2.86434808163561e-05 0.000275038515316735 0.00020315100975942 3.13183007089377e-05 -0.000847226125986707 6.07450402569383e-06 -0.000245541170680597 -0.000973387244546838
"62" 0.000468808083283572 0.000228317648595668 7.08068660377581e-05 0.000206148008834086 -0.000250916143034773 4.22972153957987e-05 7.09823829579329e-05 0.000413165759680124 -6.44567399256707e-05 0.000249898605801435 0.000183948201610601 1.6651859893545e-05 -0.000888778172941717 -1.68090909504689e-05 -0.000263916296044033 -0.000985855657571982
"63" 0.000464474452426791 0.000229275351225465 6.40027923987912e-05 0.000200976190747303 -0.000256384667987716 4.41472096880098e-05 6.64717755655788e-05 0.000406949448473223 -0.000100549984502984 0.000224115909546473 0.000164491594432687 1.45150870380786e-06 -0.000930357278678228 -3.94221944322568e-05 -0.000281794916867744 -0.000997844467558115
"64" 0.000460249297863547 0.000230718156366738 5.7408842037956e-05 0.000196101604332938 -0.000260041024173156 4.69180467813579e-05 6.39481540890154e-05 0.000401517249271374 -0.000136697211088822 0.000197851384353907 0.000144902700146296 -1.41845853793766e-05 -0.000971711340983064 -6.16458645504133e-05 -0.000299054139022881 -0.00100923664813456
"65" 0.000456123593955976 0.000232625065090765 5.10561456959893e-05 0.000191540010102313 -0.000261882553246279 5.06017252563161e-05 6.33803108757421e-05 0.000396894679212021 -0.000172680225548746 0.000171259727708593 0.000125298510985793 -3.01509271598864e-05 -0.00101259251282677 -8.33690236994083e-05 -0.000315587983752938 -0.00101992463575414
"66" 0.000452085044687985 0.000234972169115791 4.49759077934255e-05 0.000187307702795572 -0.000261918228323118 5.51822356148653e-05 6.47187347446405e-05 0.000393089162912568 -0.000208277672636434 0.000144499561282608 0.000105795928081327 -4.63433874255458e-05 -0.00105275671451906 -0.000104486065398762 -0.000331293815234779 -0.0010298038400895
"67" 0.000448108178459785 0.00023772457804026 3.91779924443365e-05 0.000183399972594509 -0.000260189747579982 6.06211562154495e-05 6.78788983787913e-05 0.000390097776439623 -0.000243273384041761 0.000117730849340699 8.65107272444053e-05 -6.2667366440252e-05 -0.00109197438507523 -0.000124900362703274 -0.00034607122741924 -0.00103877170928846
"68" 0.000444166770915686 0.000240838771592008 3.36819059194423e-05 0.000179816925512394 -0.000256746534279201 6.68759187342852e-05 7.2767098779715e-05 0.000387911381698102 -0.000277459002906814 9.11077628925806e-05 6.75511888755315e-05 -7.902548617925e-05 -0.00113002382800977 -0.000144524971714823 -0.000359840425912891 -0.00104674063452984
"69" 0.000440225609423081 0.000244268077550099 2.84930556001313e-05 0.000176550354789321 -0.000251658178220522 7.38891570239483e-05 7.92665158134939e-05 0.00038650147875925 -0.000310629809336768 6.47828618989924e-05 4.90248038537524e-05 -9.53179840771599e-05 -0.00116669321291757 -0.00016327351266984 -0.000372517943273519 -0.00105362304715486
"70" 0.000436247757027554 0.000247956352628706 2.36153373502195e-05 0.000173580133686107 -0.000245008154488267 8.15962021389846e-05 8.7239472876624e-05 0.000385838052162086 -0.000342593232788322 3.89064488873265e-05 3.10347307812843e-05 -0.000111455860571828 -0.00120178451610626 -0.000181078970823048 -0.000384038970763962 -0.00105934567782357
"71" 0.000432187726418229 0.000251841073395675 1.90397572499066e-05 0.000170883830620322 -0.00023689934118478 8.99167000034341e-05 9.65339636014617e-05 0.000385873122812264 -0.00037316654867218 1.36200655497868e-05 1.36740966979609e-05 -0.00012735587915055 -0.00123511676532373 -0.000197873804631164 -0.000394348178418136 -0.00106384080586193
"72" 0.000428003597723966 0.000255860121847894 1.47603691855399e-05 0.000168436395675151 -0.000227444152336574 9.87654557888416e-05 0.000106983200406396 0.000386558998308424 -0.000402176517427674 -1.09355422937661e-05 -2.96771303529049e-06 -0.00014293225185737 -0.00126652828870072 -0.000213609338733232 -0.000403400320681379 -0.0010670492560445
"73" 0.000423653058311232 0.000259947636197065 1.07652305228175e-05 0.000166203618752102 -0.000216776181530204 0.000108050143558135 0.000118409196161678 0.000387836821936642 -0.000429466132449315 -3.46325346286587e-05 -1.8805512249189e-05 -0.00015810743516755 -0.00129586212614858 -0.000228234080041743 -0.000411157284147471 -0.00106892697393843
"74" 0.00041908882137342 0.000264032160913064 7.03704410470382e-06 0.000164151948832536 -0.000205032641092861 0.000117669405963878 0.000130623650797371 0.000389640797237927 -0.000454889503759955 -5.73512441836101e-05 -3.3766993847868e-05 -0.000172813186219928 -0.00132299557425065 -0.000241717508915226 -0.000417598886078249 -0.00106943703843755
"75" 0.000414269993680158 0.000268045406748794 3.55717786434525e-06 0.000162242428950618 -0.00019235835392139 0.000127517495616811 0.000143434065663326 0.000391901766230138 -0.00047831739886543 -7.89749825921e-05 -4.77865500196301e-05 -0.000186976759904327 -0.00134780797823152 -0.000254029324645969 -0.000422712472440907 -0.00106855380019304
"76" 0.000409157302388553 0.000271916982776522 3.01022977274107e-07 0.000160435544513122 -0.000178918058289508 0.000137489207757094 0.000156636068495605 0.000394547401824632 -0.000499633954984854 -9.9399253667612e-05 -6.08031359872733e-05 -0.000200541875570084 -0.00137020597925864 -0.000265151081796231 -0.000426494489121165 -0.00106626181442077
"77" 0.000403711745926537 0.000275578987257164 -2.7534834355309e-06 0.000158689576366486 -0.00016487680077453 0.000147467469789472 0.000170030872253779 0.000397500415503457 -0.000518746385433196 -0.000118534406645693 -7.27679473748313e-05 -0.000213452807264058 -0.00139011739472003 -0.000275075311158769 -0.000428955048030086 -0.00106255967182444
"78" 0.000397900947920217 0.000278958681181569 -5.63806639644625e-06 0.000156960270698319 -0.000150403621205478 0.000157339506361276 0.000183407361428673 0.000400680670925438 -0.000535570983401409 -0.000136294324992614 -8.36427728003947e-05 -0.00022566209007927 -0.0014074849322684 -0.000283797976224553 -0.000430112940426195 -0.00105745422891861
"79" 0.000391696876905563 0.00028199678023277 -8.37499386389876e-06 0.000155205803470623 -0.000135675073801061 0.000166992266525201 0.000196568973236933 0.000404010406034427 -0.000550045890600498 -0.0001526096658976 -9.33926855058646e-05 -0.00023712710383179 -0.00142226716832762 -0.000291326936407606 -0.000430000066316823 -0.00105096098356914
"80" 0.000385080839578359 0.000284632004168478 -1.09933432893433e-05 0.000153387435414095 -0.000120859102648756 0.000176316878732096 0.000209318099844733 0.000407409514426086 -0.000562125846909219 -0.000167420603022707 -0.000101996896677629 -0.00024781043633116 -0.00143444708077642 -0.000297675366142901 -0.000428654556489902 -0.00104310955989377
"81" 0.000378038793193272 0.000286805918005137 -1.35224150451195e-05 0.000151461934921659 -0.000106142466722452 0.000185202987132646 0.000221466489423206 0.000410802930418029 -0.000571783247746034 -0.000180673916077289 -0.000109442504905447 -0.000257683905212634 -0.00144402639302542 -0.000302863397192372 -0.000426121452486449 -0.001033938526153
"82" 0.000370556814256832 0.000288470251062277 -1.59857715962948e-05 0.000149392222012687 -9.16921579706328e-05 0.000193543223178204 0.000232826362565093 0.000414113698730537 -0.000579008435806743 -0.00019233877314981 -0.00011572687110487 -0.000266724241668261 -0.00145102387878991 -0.000306919059271347 -0.000422463277000551 -0.00102349667448526
"83" 0.000362642047125886 0.000289579640852072 -1.84109121793296e-05 0.000147142696535714 -7.76776525051944e-05 0.000201242487563344 0.000243237018456763 0.000417275577203328 -0.000583812599484135 -0.000202388190866628 -0.000120852178613242 -0.00027491111702339 -0.00145547258012879 -0.00030987413092801 -0.000417736430005205 -0.00101183980663313
"84" 0.000354300364824241 0.000290097032795387 -2.08247568733915e-05 0.000144684493327302 -6.4262746464921e-05 0.000208204654072415 0.000252532924400175 0.00042021675708968 -0.000586215482334998 -0.000210806695250451 -0.000124829808000112 -0.000282232886600323 -0.00145742350646196 -0.000311766381371037 -0.000412011602544945 -0.000999031519819558
"85" 0.00034554560338751 0.000289990459583471 -2.32430425346504e-05 0.000141984571509966 -5.16079711205314e-05 0.000214346241495417 0.000260577203233292 0.000422880257381671 -0.000586262482907015 -0.000217594356542501 -0.000127683253638291 -0.000288687926289515 -0.00145695229702209 -0.000312639803189622 -0.000405366212377039 -0.000985146030590575
"86" 0.000336403153778586 0.000289237051985302 -2.56884972777025e-05 0.000139022660259161 -3.98522188980274e-05 0.000219592408322417 0.000267244429059608 0.000425209272058429 -0.000584009312028212 -0.000222761274180833 -0.000129437495613594 -0.000294269142344861 -0.00145413548212252 -0.000312537960863437 -0.000397875153908723 -0.000970258332443278
"87" 0.000326906561030429 0.000287822827817117 -2.8175369830476e-05 0.000135779581898334 -2.91367873310151e-05 0.000223877886406227 0.000272424581496643 0.000427157434324303 -0.000579530316409657 -0.000226323971393156 -0.000130127868362351 -0.000298980294496097 -0.00144906921503443 -0.000311512157491306 -0.000389618880012999 -0.000954450974499338
"88" 0.000317092161642965 0.000285739197714654 -3.07170524615656e-05 0.000132241537095485 -1.95822634980999e-05 0.000227145747461559 0.000276033839371981 0.000428685105309272 -0.000572912781294653 -0.00022831859756963 -0.000129796562866879 -0.000302835501995997 -0.00144186665289732 -0.000309615000923572 -0.000380685017365373 -0.000937814852224205
"89" 0.000307007605796788 0.00028298443680981 -3.33262769685321e-05 0.000128397290295489 -1.12977227556619e-05 0.000229350951843907 0.000277997820993011 0.000429758067248512 -0.000564255673596866 -0.000228779244741621 -0.000128485975126493 -0.000305842431818191 -0.00143264873111996 -0.000306895634471326 -0.000371155156720767 -0.000920438303109001
"90" 0.000296712068714316 0.000279576679087145 -3.60046047782988e-05 0.000124246473847852 -4.38082271697984e-06 0.0002304657553602 0.000278276036397708 0.000430355931697149 -0.000553669835441853 -0.000227760675209238 -0.000126248665002212 -0.000308015933117249 -0.00142153892826119 -0.000303410990598819 -0.000361103699655266 -0.000902413185082373
"91" 0.000286259925088573 0.000275526864670594 -3.87532446744466e-05 0.000119791023822552 1.09161247975867e-06 0.000230470276419786 0.000276841638732554 0.000430460004254647 -0.000541279454121875 -0.000225315856544878 -0.000123135459549657 -0.000309376520407315 -0.00140867764312041 -0.000299215640854722 -0.000350619710849158 -0.000883830418568182
"92" 0.000275721513448591 0.000270862850023482 -4.1576610183957e-05 0.000115035663096464 5.05822465748691e-06 0.000229355430705243 0.000273687987504973 0.000430069021761545 -0.000527216167732522 -0.000221512235331253 -0.000119206628672852 -0.000309947094331592 -0.00139420706535264 -0.000294362936853393 -0.000339776693813503 -0.000864783384353115
"93" 0.000265167639838815 0.000265619908911529 -4.4459800907478e-05 0.000109998726362327 7.47770296939551e-06 0.000227128623039608 0.000268836146956916 0.000429182887416423 -0.000511617328826634 -0.000216422402697652 -0.000114517066830831 -0.000309750565600362 -0.00137827594269792 -0.000288905243465726 -0.00032864577267898 -0.000845361136203089
"94" 0.000254672816461287 0.000259835607427303 -4.73995912193546e-05 0.000104694048664485 8.31865630636878e-06 0.000223809453377961 0.000262322689065698 0.000427813977137754 -0.000494629533437562 -0.000210123518632175 -0.000109129179121774 -0.000308809569498776 -0.00136103189532701 -0.000282891218160037 -0.000317294019818431 -0.000825650328737902
"95" 0.000244318379758744 0.000253560713556399 -5.03810527254734e-05 9.91471891251451e-05 7.57137239677708e-06 0.000219427686052526 0.000254212674434174 0.000425985223890368 -0.00047640460655846 -0.000202696096678807 -0.000103101842393591 -0.000307155133087423 -0.00134263071177011 -0.000276372466599252 -0.000305780505692064 -0.000805734861900724
"96" 0.000234184551536877 0.000246846661288883 -5.33825938548064e-05 9.33867235171733e-05 5.25118723107867e-06 0.000214026682184349 0.000244577848495961 0.000423723970418006 -0.000457094867262078 -0.000194230490722431 -9.64915796644828e-05 -0.000304810732614563 -0.00132321703943205 -0.000269393908364673 -0.000294160363539398 -0.000785690149407934
"97" 0.000224352912333312 0.000239751665036634 -5.63918851430209e-05 8.74451244184269e-05 1.38088437050396e-06 0.000207661517592947 0.000233523211402446 0.000421066847586685 -0.000436855598436426 -0.000184814780931422 -8.93598628146307e-05 -0.000301809312531564 -0.00130294393509109 -0.000261998748344089 -0.000282471513556485 -0.000765588250962912
"98" 0.000214909327388586 0.000232345720356723 -5.93842623766662e-05 8.13565000193518e-05 -3.99504756411866e-06 0.00020039493482933 0.000221163186959465 0.000418058613183937 -0.000415842674896419 -0.000174542064791476 -8.17605666181988e-05 -0.000298174528327959 -0.0012819565692712 -0.000254227203312494 -0.000270756536841538 -0.000745494713301499
"99" 0.000205933593101721 0.000224690604167484 -6.23286002574494e-05 7.51641637878932e-05 -1.08148468261065e-05 0.000192303534108077 0.000207625726645211 0.000414749626061467 -0.000394209346496379 -0.000163504311075769 -7.37477487378423e-05 -0.000293935566268394 -0.001260390765699 -0.000246111295637363 -0.000259034921073683 -0.000725462324896566
"100" 0.000197506182546532 0.000216862073626308 -6.52040328245763e-05 6.89090177353675e-05 -1.90007393945127e-05 0.000183469343132627 0.000193060054317769 0.000411198450837144 -0.000372106464140228 -0.000151797602071616 -6.53709679862572e-05 -0.000289118525412328 -0.00123838214335398 -0.000237686619378642 -0.000247321843788791 -0.000705539323364051
"101" 0.000189708107350622 0.000208931506563178 -6.79758629288016e-05 6.26389565602634e-05 -2.84663325524282e-05 0.000173986654128246 0.00017762666015498 0.000407470020907856 -0.000349682031868406 -0.000139514192616209 -5.66753566884256e-05 -0.000283754297290673 -0.00121605740692841 -0.000228977460467867 -0.000235624604043834 -0.000685766877167869
"102" 0.000182610271952601 0.000200977822073602 -7.06180488716449e-05 5.63964693108165e-05 -3.91047070953861e-05 0.000163951030588777 0.00016149337785545 0.000403625954403172 -0.000327076629429997 -0.000126747488211973 -4.76999552544269e-05 -0.00027786291965453 -0.00119352944308394 -0.00022001119651325 -0.000223935607834561 -0.000666170232041061
"103" 0.000176278047205213 0.000193071274156446 -7.30979280530616e-05 5.02307664265948e-05 -5.07981504966395e-05 0.000153463733195678 0.000144832240556688 0.000399739814345289 -0.000304428212711451 -0.000113585357003056 -3.84857872194374e-05 -0.000271472647539753 -0.00117091368571472 -0.000210806529498919 -0.00021224065854145 -0.000646770847866808
"104" 0.000170775495128944 0.000185285036140766 -7.53900765668992e-05 4.41882334746485e-05 -6.34291645325398e-05 0.000142630547879411 0.000127830123354621 0.000395881568502863 -0.000281863791080309 -0.000100120280374251 -2.90614550975018e-05 -0.000264608695761285 -0.00114830628432633 -0.000201380372961858 -0.000200516542815238 -0.00062758051124225
"105" 0.000166155279739004 0.000177699998901374 -7.74618519113346e-05 3.83158074588008e-05 -7.68535603839666e-05 0.000131561372721146 0.000110674028206869 0.000392129540277994 -0.000259501525770373 -8.64353372426898e-05 -1.94570811545906e-05 -0.000257292027785086 -0.00112579757201406 -0.000191747842402801 -0.000188724586758956 -0.000608599431664109
"106" 0.000162464724413688 0.000170378003000148 -7.92879491005815e-05 3.26585027459604e-05 -9.0936756214643e-05 0.000120366735049931 9.35489686863335e-05 0.00038855396404392 -0.000237453342580576 -7.26091507808652e-05 -9.68909892630246e-06 -0.000249542506129297 -0.00110346062498326 -0.000181915361712262 -0.000176821881469473 -0.0005898166770187
"107" 0.000159737751858114 0.000163392867546293 -8.08391934854195e-05 2.72593197930364e-05 -0.000105531239156405 0.000109153964212333 7.66463655894138e-05 0.000385228446534759 -0.000215818143020357 -5.87215688390665e-05 2.22323586514459e-07 -0.000241386699390089 -0.00108136907074074 -0.000171891497289931 -0.000164761094560857 -0.000571216367218971
"108" 0.000158003936834966 0.000156800233714081 -8.20963291602567e-05 2.21587265476708e-05 -0.000120490816710459 9.80329931385598e-05 6.01461817293497e-05 0.000382229626861871 -0.000194688736729035 -4.48416161170994e-05 1.02647345559464e-05 -0.000232842966966175 -0.00105957889347631 -0.00016168528681688 -0.000152476197923769 -0.000552774745564164
"109" 0.000157278433408869 0.000150665269678155 -8.30348755507546e-05 1.73936169398527e-05 -0.000135661092520223 8.71047699576509e-05 4.42338096607654e-05 0.000379620192723239 -0.000174143114330002 -3.10398921300985e-05 2.04339007230358e-05 -0.000223929743348471 -0.00103813141345842 -0.00015129359949815 -0.00013990648782205 -0.000534456629414488
"110" 0.000157567305242249 0.00014503690757614 -8.36413520950029e-05 1.29951919618734e-05 -0.000150892751436431 7.64688852220382e-05 2.90754877341763e-05 0.00037747052054993 -0.000154250685396529 -1.73772949254787e-05 3.07276216030971e-05 -0.000214672091581322 -0.00101707199519186 -0.000140723496427544 -0.000126976702158944 -0.000516225602304843
"111" 0.000158860105274432 0.000139959153168602 -8.39054238157563e-05 8.99258834539597e-06 -0.000166043880993658 6.62213348194867e-05 1.48383431206702e-05 0.000375839676711584 -0.000135069560955695 -3.90902475622979e-06 4.11444300274663e-05 -0.000205090728051254 -0.000996424694909547 -0.00012997830905544 -0.000113614151625438 -0.000498032507025745
"112" 0.000161144718189009 0.000135474799431681 -8.38156762884196e-05 5.40999131991025e-06 -0.000180965935639999 5.64468365465589e-05 1.67172987059105e-06 0.000374781540120791 -0.000116646964539266 9.31245223829474e-06 5.16934316900216e-05 -0.000195203129914065 -0.000976205168916559 -0.000119053033024506 -9.97421122239487e-05 -0.000479831408112455
"113" 0.000164384267019129 0.000131610651366863 -8.33710394829366e-05 2.26244597717475e-06 -0.000195521982222369 4.722754519262e-05 -1.0281725168988e-05 0.00037434550860147 -9.90180945422222e-05 2.22445397611078e-05 6.23806860337119e-05 -0.000185034249434783 -0.000956427036683096 -0.00010795351725136 -8.52783808959878e-05 -0.00046156476577335
"114" 0.000168541110678055 0.000128393291013939 -8.25715707936698e-05 -4.35907701400375e-07 -0.000209579777733219 3.86321281852166e-05 -2.0895856359707e-05 0.000374574018308563 -8.22143890079677e-05 3.48412806067228e-05 7.32173238334139e-05 -0.000174605422738065 -0.000937086397554769 -9.66805077013485e-05 -7.01453495605266e-05 -0.000443176633914736
"115" 0.000173562187818695 0.000125840259995938 -8.14204848636771e-05 -2.67780033319671e-06 -0.000223019638295962 3.07233314177756e-05 -3.00616258316121e-05 0.000375500641290671 -6.62460284359251e-05 4.70743501906872e-05 8.42163383075614e-05 -0.000163937032403296 -0.0009181835518093 -8.52370853181468e-05 -5.42603919439521e-05 -0.000424605708357291
"116" 0.000179373850984952 0.000123947698257906 -7.9939922058303e-05 -4.47215045617864e-06 -0.000235730617946668 2.35456276271744e-05 -3.76893004462883e-05 0.000377145451598165 -5.11282915078364e-05 5.89107384373281e-05 9.53904465889989e-05 -0.000153062570773152 -0.000899708565510733 -7.36332815514511e-05 -3.75531645813622e-05 -0.000405801297727426
"117" 0.000185906529276849 0.000122728871563233 -7.8141042672302e-05 -5.8158269804685e-06 -0.00024760347215951 1.71459084446788e-05 -4.36980918105013e-05 0.000379530690997359 -3.6851911285909e-05 7.03296580993687e-05 0.000106757281211847 -0.000142000347472997 -0.000881634556270919 -6.18714191600674e-05 -1.99442736204333e-05 -0.000386694602293253
"118" 0.000193066256093594 0.000122161582780316 -7.60468114315558e-05 -6.73093965367532e-06 -0.000258560204835245 1.15458848903282e-05 -4.80370977486948e-05 0.000382657906095713 -2.34164672942914e-05 8.13061817642674e-05 0.000118326809477579 -0.000130784374436946 -0.000863956621674411 -4.99672338465368e-05 -1.3778497649332e-06 -0.000367239481525636
"119" 0.000200759720090108 0.000122231752273772 -7.36889870064964e-05 -7.23456073479062e-06 -0.000268514199912886 6.76326923480812e-06 -5.06649985535617e-05 0.000386523698858721 -1.08029821094559e-05 9.18285901481385e-05 0.000130113246448087 -0.000119443451773912 -0.000846635701614075 -3.7935524446774e-05 1.8214744318536e-05 -0.000347376539218436
"120" 0.000208874172814157 0.000122912650512496 -7.10966724672176e-05 -7.35309827090608e-06 -0.000277408304094553 2.80357593812111e-06 -5.15660491629818e-05 0.000391112491508021 1.00853734090296e-06 0.000101882933037874 0.000142125916620785 -0.00010800921317006 -0.000829652465318922 -2.57917199723254e-05 3.88783523976353e-05 -0.00032705970519703
"121" 0.000217293447095108 0.00012416887245385 -6.83135364585564e-05 -7.11964936354713e-06 -0.000285187899062638 -3.44017652843955e-07 -5.07455027973639e-05 0.00039640024981913 1.20408143576884e-05 0.000111463262613697 0.000154371788344631 -9.65152618739345e-05 -0.000812971780981065 -1.356231201686e-05 6.06549473940499e-05 -0.000306245146418934
"122" 0.000225894403375631 0.000125956955066482 -6.53824302893185e-05 -6.57497887354307e-06 -0.000291826116107257 -2.69924061375252e-06 -4.82261840218114e-05 0.000402351195235687 2.23263066440914e-05 0.000120561263637973 0.000166859998882017 -8.50005739302384e-05 -0.000796568791042265 -1.27199557537024e-06 8.35761056382749e-05 -0.000284895960074263
"123" 0.000234543107034216 0.000128221282485547 -6.2348841132418e-05 -5.76732215383205e-06 -0.000297301225527336 -4.29557038040639e-06 -4.40530710417137e-05 0.000408913035182605 3.18894745040592e-05 0.000129173265847789 0.000179583146133218 -7.35057894273261e-05 -0.000780413715201795 1.10413823807139e-05 0.000107653579691624 -0.000262985466940208
"124" 0.000243101071786279 0.000130906133913084 -5.92710819184348e-05 -4.74363473158285e-06 -0.000301612440313899 -5.1817706014387e-06 -3.82958235055333e-05 0.000416029541295486 4.07648073763702e-05 0.000137301297628826 0.000192541955325446 -6.20712085085764e-05 -0.000764471896827131 2.33479639834979e-05 0.000132893514603576 -0.000240489302797152
"125" 0.000251427055616162 0.000133943442186335 -5.61999622879798e-05 -3.56423080799678e-06 -0.000304767606661459 -5.40986789469747e-06 -3.10370863181416e-05 0.000423631198953976 4.89833810733362e-05 0.000144935311336801 0.000205718146098449 -5.0740586721979e-05 -0.000748721718483458 3.55962611504378e-05 0.00015927756958334 -0.000217397815067786
"126" 0.000259374143570748 0.000137261930428798 -5.32024412960909e-05 -2.29132173970171e-06 -0.000306799476765829 -5.05341717669552e-06 -2.23875352188311e-05 0.00043163802065446 5.65730831211265e-05 0.000152080699479453 0.00021909875666121 -3.95608187729282e-05 -0.000733132844641825 4.77431489183371e-05 0.00018678568906419 -0.000193703960719915
"127" 0.000266794408978848 0.000140785625777091 -5.03372101319e-05 -9.87756612426567e-07 -0.000307748594687069 -4.18946024192911e-06 -1.24669421936509e-05 0.000439957026721564 6.35631392543111e-05 0.000158737045250488 0.000232655521326051 -2.85795850878244e-05 -0.000717682574608209 5.97288401140133e-05 0.00021536698970014 -0.000169423238382288
"128" 0.000273536772168853 0.000144425169103891 -4.76696222267478e-05 2.72748732895132e-07 -0.000307669599402358 -2.90749293387803e-06 -1.42388160490598e-06 0.000448489126861105 6.99770420300455e-05 0.000164896085766108 0.00024635436823068 -1.78506964440431e-05 -0.00070235346831093 7.14966958802679e-05 0.00024495981764653 -0.000144568912423254
"129" 0.000279454691153032 0.000148097481159284 -4.52734719684958e-05 1.41787815181162e-06 -0.000306639042436403 -1.30563612350296e-06 1.05826303577669e-05 0.000457120772509034 7.5831878967702e-05 0.000170559178740115 0.000260157153507472 -7.42359381829168e-06 -0.000687128349841967 8.29814709547318e-05 0.000275485775709229 -0.000119174114291028
"130" 0.00028440125318183 0.000151707429481178 -4.32108954980956e-05 2.37194934106737e-06 -0.000304735942315943 5.08882546945095e-07 2.33754739681078e-05 0.000465739400605047 8.11449725144202e-05 0.000175719635650566 0.000274013401328367 2.64962902808353e-06 -0.000671990444126861 9.41099706536562e-05 0.000306843436242004 -9.32761477912092e-05
"131" 0.000288228377522433 0.000155156262264098 -4.1561519214239e-05 3.04954061595004e-06 -0.000302065927186905 2.42024846158621e-06 3.67592243399248e-05 0.000474207783080291 8.59193334481559e-05 0.000180366388497369 0.000287860545992547 1.23093247712338e-05 -0.000656940229162079 0.00010480494481735 0.000338915366984565 -6.69326791300545e-05
"132" 0.000290804792170748 0.000158353678157469 -4.03891211419302e-05 3.37901055519405e-06 -0.000298731229279633 4.31242027438105e-06 5.05380493179682e-05 0.000482400989612785 9.01585797366085e-05 0.00018449164450315 0.000301632856521356 2.15041073985952e-05 -0.000641967954899462 0.000114988423200931 0.000371566011276832 -4.01981083856607e-05
"133" 0.000291993583063981 0.000161197519517908 -3.97652822652472e-05 3.27824999530139e-06 -0.000294847431978349 6.05994152676593e-06 6.44943311524544e-05 0.000490178497117733 9.38558116835744e-05 0.000188077192220053 0.000315255663804013 3.01756526750482e-05 -0.000627074974494174 0.000124572556213027 0.000404640993457059 -1.31515022983669e-05
"134" 0.000291672492210501 0.000163586404382474 -3.97579322410524e-05 2.66499260570757e-06 -0.000290544009068353 7.53498306596628e-06 7.84059117241075e-05 0.000497392849242518 9.69938111762552e-05 0.000191108618132549 0.000328641384768387 3.82682417654262e-05 -0.000612266675342239 0.000133471738995703 0.0004379713256928 1.41256766479583e-05
"135" 0.000289728416974725 0.000165427503163519 -4.04349660417191e-05 1.46480539585163e-06 -0.000285955609194258 8.61129187843325e-06 9.20460952819397e-05 0.000503900377967092 9.9548548965276e-05 0.000193563246042797 0.000341697543575218 4.57263781605863e-05 -0.000597550555249006 0.000141589942021128 0.000471365197016658 4.15419234610974e-05
"136" 0.000286053091107187 0.000166621955596268 -4.18555809503293e-05 -4.01245388345948e-07 -0.000281219309703177 9.15799496505782e-06 0.000105181746297451 0.000509550948850924 0.000101490787010675 0.000195411591105415 0.000354321084950174 5.24946603075246e-05 -0.000582945934324113 0.00014883442560411 0.000504618066195071 6.89952464373327e-05
"137" 0.000280559840075565 0.000167078434420987 -4.40819831251472e-05 -3.00398637403234e-06 -0.000276475948488164 9.0522141657115e-06 0.000117581601806696 0.000514198920009017 0.000102781607145864 0.000196630970416506 0.000366406112855419 5.85246854216539e-05 -0.000568458150930684 0.000155111958339811 0.000537520780786331 9.63771194111479e-05
"138" 0.00027317224800986 0.000166710350663882 -4.7166851577697e-05 -6.40871882431607e-06 -0.000271869405897386 8.16988712425512e-06 0.000129014881443238 0.000517697690110512 0.000103373886149716 0.000197183175037617 0.000377832144481856 6.37643451592472e-05 -0.000554113716956522 0.000160324362705255 0.000569836253545034 0.000123577961991061
"139" 0.000263824398873894 0.000165435847450274 -5.11553112206799e-05 -1.06796042513208e-05 -0.000267541670141888 6.39652473512529e-06 0.000139259780674675 0.000519902908785297 0.000103210977059701 0.000197036855641147 0.000388482898591476 6.81656562713129e-05 -0.000539929116027872 0.000164377941290585 0.000601323984140133 0.000150476457531085
"140" 0.000252472658485764 0.000163178439122088 -5.60910189356782e-05 -1.58681832502417e-05 -0.0002636299108242 3.62046085792429e-06 0.000148096571665267 0.000520676594392056 0.000102232961791617 0.000196153576970206 0.00039823177515412 7.16859934947255e-05 -0.000525928239098738 0.000167176274263467 0.000631736307434942 0.000176950046247343
"141" 0.000239085712282343 0.000159873509502817 -6.20080834409794e-05 -2.20233876406623e-05 -0.000260273200222153 -2.54683246277341e-07 0.000155318073827655 0.000519891360958735 0.00010037704586502 0.000194487145171008 0.000406949352092053 7.42888944591836e-05 -0.000512128341274657 0.000168631238856437 0.000660819626199629 0.000202875290211724
"142" 0.000223658803924352 0.000155463075489264 -6.89231801916226e-05 -2.91812217941951e-05 -0.000257589719669407 -5.31732175700301e-06 0.000160733138959927 0.000517429270347278 9.75664621146379e-05 0.000192001955968311 0.000414504638009801 7.59406450647853e-05 -0.000498549855121114 0.000168654485323224 0.000688313855814154 0.000228127917769571
"143" 0.000206196400577522 0.000149899949991684 -7.68555308701677e-05 -3.73675917517707e-05 -0.000255704857741362 -1.16444960524232e-05 0.000164166685666875 0.000513174713290552 9.37329345250756e-05 0.000188653987317122 0.000420768762849464 7.66162650138161e-05 -0.000485214344374286 0.0001671654226736 0.000713962192177323 0.000252588280545677
"144" 0.000186727563798043 0.000143147210265555 -8.58108223503195e-05 -4.66017413563018e-05 -0.000254722351203091 -1.92975471130282e-05 0.000165457643237203 0.000507035974757885 8.87965161484328e-05 0.000184394188760735 0.000425610839274135 7.62910100276639e-05 -0.000472134727347918 0.000164087855892659 0.00073750740358961 0.000276134855496524
"145" 0.000165300798842585 0.000135186494448017 -9.57766243808813e-05 -5.68861345320595e-05 -0.000254731936935742 -2.83187092860234e-05 0.000164476782539097 0.000498929295455185 8.26866766840979e-05 0.000179188318214575 0.000428905342367027 7.49577630971987e-05 -0.000459319384822504 0.000159356789154117 0.000758697399879252 0.000298655719145386
"146" 0.000141981885435793 0.000125999895386493 -0.000106743947860875 -6.82164198187289e-05 -0.000255816674641913 -3.87401262146319e-05 0.000161105426993017 0.000488784952686485 7.53215067848552e-05 0.000172988656964935 0.000430529253420164 7.26055360233255e-05 -0.000446782209066715 0.000152913999075352 0.000777292941479148 0.000320039704324755
"147" 0.000116855181985512 0.00011559457899792 -0.000118677441671697 -8.05745869437077e-05 -0.000258041028415761 -5.05766154054323e-05 0.00015525406839695 0.000476555579364879 6.6633861572371e-05 0.00016575947536778 0.000430366353426426 6.92403562283246e-05 -0.000434518947660151 0.000144707578576155 0.000793061372149475 0.000340188134675803
"148" 9.00318161829458e-05 0.000103982793714548 -0.000131536400166489 -9.39260814165976e-05 -0.000261445154147599 -6.38181312022207e-05 0.000146865153424362 0.000462204983971984 5.65514673308449e-05 0.000157464952114753 0.000428308820914129 6.48734635237262e-05 -0.000422528895303307 0.000134704652602664 0.0008057845345212 0.000359010165705749
"149" 6.16345413129106e-05 9.11943072095323e-05 -0.00014527122212171 -0.00010822803101851 -0.000266063649976343 -7.84415226990203e-05 0.000135904060101141 0.000445724772303005 4.50133848632262e-05 0.000148074959097771 0.000424260051821828 5.95225625900685e-05 -0.000410792887820009 0.000122876473595564 0.000815265544922359 0.000376428678403537
"150" 3.17996332005826e-05 7.72710566314821e-05 -0.000159816968460408 -0.000123426474324224 -0.000271901514307955 -9.44054347622378e-05 0.000122361331707236 0.000427114494502224 3.19656207200084e-05 0.000137560643804985 0.000418132097571375 5.3220557383887e-05 -0.00039930024608964 0.000109213748499862 0.000821326754510503 0.000392375071006739
"151" 6.88324349075182e-07 6.22681454753815e-05 -0.000175104434941629 -0.000139450303437172 -0.000278948642090103 -0.000111649872797729 0.000106262204161093 0.000406401936119276 1.73639390258608e-05 0.000125909460095762 0.000409849707298174 4.60011441799773e-05 -0.000388016458459431 9.37173075304759e-05 0.000823810759249449 0.000406793979359797
"152" -3.15301900273478e-05 4.62529182249587e-05 -0.000191043104939766 -0.00015622191558483 -0.000287179533269305 -0.000130097166874153 8.76547822606145e-05 0.000383628728666618 1.17054151069033e-06 0.000113101537618507 0.000399353673267007 3.79119683610202e-05 -0.000376907303248302 7.63977527377165e-05 0.000822591472771266 0.000419647081104433
"153" -6.46710895207684e-05 2.93086231207287e-05 -0.000207540990757914 -0.000173648682340344 -0.00029654224052989 -0.000149653321860623 6.66162875749191e-05 0.000358861395981179 -1.66347069190213e-05 9.91355502707339e-05 0.000386598295978869 2.90064931603883e-05 -0.000365934504097239 5.72892784059495e-05 0.000817561943527427 0.000430907410534184
"154" -9.85408479277932e-05 1.15196297904091e-05 -0.000224497965509344 -0.000191635998383457 -0.000306977980281396 -0.000170208281684077 4.32524474122004e-05 0.000332180157909074 -3.60647921832473e-05 8.40129610216504e-05 0.00037155623686044 1.93500247547562e-05 -0.000355039908435926 3.64318944875071e-05 0.000808653536088282 0.000440563833797196
"155" -0.000132934817949992 -7.01560646950556e-06 -0.000241805556744122 -0.000210073073167065 -0.000318400053213715 -0.00019164108141734 1.76895023567219e-05 0.000303686209290775 -5.71179836549659e-05 6.7741352408717e-05 0.000354214844685531 9.0085726892446e-06 -0.000344172272999476 1.38859635764049e-05 0.000795816643910039 0.000448622310412936
"156" -0.000167646931195175 -2.61854485744594e-05 -0.000259348309470518 -0.000228847997988793 -0.000330712558828987 -0.000213814937516479 -9.92233842431917e-06 0.00027349111317597 -7.97685827146722e-05 5.03489237154226e-05 0.00033458405729159 -1.94212635483438e-06 -0.000333266548191446 -1.0277207170645e-05 0.000779047280699866 0.000455103290941647
"157" -0.000202461069085545 -4.58759993393582e-05 -0.000277001140293643 -0.000247838758691368 -0.000343800145240526 -0.00023658293676046 -3.94082767439645e-05 0.000241731599922651 -0.000103988682419376 3.18592708208311e-05 0.000312686855078787 -1.34177461660213e-05 -0.000322251422043855 -3.59708622221739e-05 0.0007583585114656 0.000460041048554953
"158" -0.000237161624022814 -6.59690078427059e-05 -0.000294648576191836 -0.000266925981911253 -0.000357545118732896 -0.000259791154068639 -7.0577260500266e-05 0.000208551902790433 -0.000129730157334218 1.23124403809122e-05 0.000288564841585409 -2.53313998666365e-05 -0.000311058307787748 -6.3097523957181e-05 0.000733809312545351 0.000463482371952375
"159" -0.000271534222477417 -8.63408593970738e-05 -0.000312160369134194 -0.000285978843788231 -0.000371804620026501 -0.000283277412246031 -0.000103221385359937 0.000174113378851335 -0.000156924588744735 -8.24468900789579e-06 0.00026228190352534 -3.75974998377752e-05 -0.000299608095947994 -9.1542417205196e-05 0.000705478326876929 0.000465492457150308
"160" -0.000305367579229296 -0.000106863109254776 -0.000329414087343682 -0.000304871889980965 -0.000386434879772179 -0.000306875580571386 -0.000137120978125648 0.000138583593955344 -0.0001854901101104 -2.97528568788722e-05 0.000233918283901556 -5.01167519467578e-05 -0.000287824998254226 -0.000121185090219964 0.000673487823712932 0.00046614693120264
"161" -0.0003384595961022 -0.000127416217775039 -0.000346288901387329 -0.000323483225636022 -0.000401293464800776 -0.000330419769757598 -0.000172047211357502 0.000102139020899254 -0.000215336510634985 -5.21475611069742e-05 0.000203572822575379 -6.28010323848611e-05 -0.000275634922359839 -0.000151888734291538 0.000637976025635912 0.00046553138748636
"162" -0.000370608452523556 -0.000147866274026314 -0.000362663260175912 -0.000341686632930908 -0.000416218556201772 -0.00035374057446326 -0.000207755268304132 6.4969853693201e-05 -0.000246345928585976 -7.53536656839239e-05 0.000171360076002716 -7.55539344678761e-05 -0.000262962141026522 -0.000183509819521171 0.000599122951379804 0.000463745429740608
"163" -0.000401625697009833 -0.000168099880555099 -0.000378422580872563 -0.000359363967433011 -0.000431056062273185 -0.000376672450991153 -0.00024400748681512 2.72655582587584e-05 -0.000278398470982229 -9.92878352625651e-05 0.000137410964198721 -8.8274741513829e-05 -0.000249733063781615 -0.00021589639537476 0.000557132243310076 0.000460898894481603
"164" -0.000431337814475891 -0.000187992504153655 -0.000393457503710563 -0.000376405448628177 -0.000445652159103862 -0.000399052918303293 -0.000280557920551279 -1.07804469013151e-05 -0.000311355861195252 -0.00012386310214039 0.000101873300769335 -0.000100880557774403 -0.000235885625719024 -0.00024889043596182 0.000512225751015324 0.00045709961337092
"165" -0.000459580406935272 -0.000207434011448937 -0.000407665366667594 -0.000392702419317866 -0.000459847786201547 -0.000420725486174207 -0.000317160650935947 -4.89729582511899e-05 -0.000345063021110355 -0.000148978318179955 6.49078417354724e-05 -0.000113272469108524 -0.000221354153654243 -0.000282323902131855 0.000464657209677955 0.000452476739973372
"166" -0.000486207519698007 -0.000226318590395288 -0.000420954362246106 -0.000408160282050323 -0.000473496497782583 -0.00044154650422779 -0.000353579397578207 -8.71189377574811e-05 -0.000379360910309056 -0.000174534395967372 2.66865038905074e-05 -0.000125370270740155 -0.000206096559182897 -0.000316030731550629 0.000414695940009591 0.000447150254571276
"167" -0.000511090335244396 -0.000244551827146584 -0.000433242705594763 -0.000422689776086808 -0.000486452090092973 -0.000461373015273217 -0.000389579115480392 -0.000125019957597965 -0.000414075858344946 -0.000200418393278666 -1.26040348944111e-05 -0.000137090131166211 -0.000190061217253329 -0.000349833523067853 0.000362629968639908 0.000441255256141212
"168" -0.000534115231249081 -0.000262044553040823 -0.000444455089268434 -0.000436213544528757 -0.00049858209461073 -0.000480081084118742 -0.000424936074866366 -0.00016249344593532 -0.000449031448908311 -0.000226519066802015 -5.27698325203904e-05 -0.000148356887271644 -0.000173224609077746 -0.000383562310531469 0.000308765967962692 0.000434921941053018
"169" -0.000555191064220778 -0.000278715312402131 -0.000454532944688898 -0.000448665359605313 -0.000509762894316475 -0.000497555437778162 -0.000459433938762411 -0.000199353208723397 -0.000484038417922882 -0.00025272230363716 -9.36096063913686e-05 -0.000159099845556478 -0.000155563704851455 -0.000417040893214971 0.000253415833693478 0.000428277424801435
"170" -0.000574243774289915 -0.000294498676900733 -0.000463425108530732 -0.00045999288904 -0.000519878420115655 -0.00051369581954863 -0.000492877918365148 -0.000235425958656933 -0.000518905669060479 -0.000278905753713606 -0.000134914513769545 -0.000169260098305296 -0.000137076744166674 -0.000450097753687316 0.00019690355375359 0.000421453941153707
"171" -0.000591215149128212 -0.0003093346369096 -0.000471094179102373 -0.000470148821125001 -0.000528825521817812 -0.000528411562568978 -0.000525073881442159 -0.000270539021830929 -0.000553433453440259 -0.000304944842250994 -0.000176466801859939 -0.000178780561009724 -0.00011776522960996 -0.000482558464542292 0.000139569782706093 0.000414581169211911
"172" -0.000606073141906035 -0.000323179606259946 -0.000477513409322222 -0.00047910379932334 -0.000536517429466788 -0.000541631632845996 -0.000555853581042506 -0.000304537203429456 -0.00058742876607014 -0.000330719977234862 -0.000218054416519729 -0.000187610980960709 -9.76543098976828e-05 -0.000514260659944242 8.1743202407525e-05 0.000407778565118636
"173" -0.000618800595309857 -0.000335995892660335 -0.00048267266672946 -0.000486840491440221 -0.000542875290409501 -0.000553297253214664 -0.000585057171596591 -0.000337268728399883 -0.000620685933165092 -0.00035610869041864 -0.000259457602556738 -0.000195712478530727 -7.67776628549332e-05 -0.00054503633007176 2.37624024108433e-05 0.00040116283165293
"174" -0.000629402066282036 -0.00034775596935637 -0.000486566949538637 -0.00049334603494117 -0.000547843388545557 -0.000563364910927544 -0.000612551839400173 -0.000368596637805961 -0.000653013336526082 -0.000380982894181101 -0.000300457366222009 -0.000203054731620652 -5.51827812869503e-05 -0.000574732177231569 -3.4033309306967e-05 0.000394848771717954
"175" -0.000637895168112209 -0.000358445008226235 -0.000489208164091581 -0.000498627564725715 -0.000551371101721996 -0.000571806654412153 -0.000638210434659042 -0.000398392750039648 -0.000684210111944749 -0.000405225384794966 -0.000340837214922365 -0.000209610677357755 -3.29333648766264e-05 -0.000603193881680243 -9.13141244272609e-05 0.000388937207258561
"176" -0.000644322522801302 -0.000368061287624422 -0.000490613160573566 -0.000502695154692687 -0.000553427161866455 -0.000578607960049722 -0.000661932695057072 -0.00042654335017168 -0.000714086735345403 -0.000428715240088113 -0.000380383498105456 -0.000215364541193461 -1.01031226403956e-05 -0.000630281237787593 -0.000147750956078941 0.000383522685665162
"177" -0.000648732825814987 -0.000376602528226871 -0.000490813644998051 -0.000505570925099469 -0.000553992151771682 -0.000583767609973681 -0.000683628666948802 -0.000452945198683356 -0.000742453837264045 -0.000451333740010572 -0.000418888756266434 -0.000220305062803588 1.32214341626929e-05 -0.000655858436838015 -0.00020302951557594 0.000378690270611792
"178" -0.000651198496720583 -0.000384085220168263 -0.000489852825164464 -0.000507289228570589 -0.000553068036951751 -0.000587302969051818 -0.000703230621549854 -0.000477506127549748 -0.000769135437134357 -0.000472968985017229 -0.000456151380192745 -0.000224434674332196 3.69419962620735e-05 -0.000679800109920941 -0.00025684332624384 0.000374518484200429
"179" -0.000651797826115649 -0.000390529026245873 -0.000487771591410202 -0.000507886496487788 -0.000550657926602186 -0.000589235162727383 -0.00072068510567981 -0.000500150755934925 -0.000793954394013368 -0.000493512656060825 -0.000491972160891713 -0.000227749051148933 6.09525966734346e-05 -0.000701987685545193 -0.000308891870561121 0.000371070560243947
"180" -0.000650629939237879 -0.000395954636775262 -0.000484628305483557 -0.000507408853178164 -0.000546787474037086 -0.000589603971868399 -0.000735959598916796 -0.000520812076955159 -0.000816753564823389 -0.000512862264140801 -0.000526168184840725 -0.000230262579710454 8.51405377565319e-05 -0.00072231883746781 -0.000358898994982515 0.000368400160338437
"181" -0.000647796309641172 -0.000400399863099517 -0.000480482036688639 -0.000505910039511435 -0.000541489965199646 -0.000588460309549465 -0.000749033737765184 -0.000539441087891155 -0.00083737559003243 -0.000530919334219718 -0.00055856340535972 -0.000231991768923823 0.000109380803335633 -0.000740697488226944 -0.000406596145988367 0.000366554317267671
"182" -0.000643412009425497 -0.000403900491639548 -0.000475404255640336 -0.000503444198248882 -0.000534815187894559 -0.000585860220413704 -0.000759905621573972 -0.000555998278108797 -0.000855682110568389 -0.000547589527345457 -0.0005889900008464 -0.000232950085485312 0.000133551451030716 -0.000757038010911326 -0.000451740295059836 0.000365563064015989
"183" -0.000637599660490319 -0.000406501614457679 -0.000469460205327353 -0.000500075756095991 -0.00052682039778113 -0.000581878706423862 -0.000768586201191594 -0.000570460042458405 -0.000871547211958567 -0.00056279381126408 -0.000617297629595154 -0.000233167065348787 0.000157524095660309 -0.000771271838874209 -0.000494099965903232 0.000365445213530081
"184" -0.000630490740262888 -0.000408247754407131 -0.000462729198962805 -0.000495870783121622 -0.000517574885081477 -0.000576589300272055 -0.000775107284131418 -0.000582813445154678 -0.000884855337575545 -0.000576452376245331 -0.000643344885484339 -0.000232668530839294 0.000181164534727786 -0.000783338107888135 -0.000533472871908114 0.00036621430578528
"185" -0.000622217248172739 -0.000409192630722215 -0.000455290234358178 -0.000490896659565819 -0.000507162461951991 -0.00057008246247831 -0.00077951187899568 -0.000593060650657204 -0.000895511726710579 -0.000588505465948761 -0.000667007030932564 -0.00023148878149142 0.000204339569081246 -0.00079319179185372 -0.000569668946019679 0.000367863988473345
"186" -0.000612918892585879 -0.000409385346791515 -0.000447222216975882 -0.00048522470014239 -0.000495661765345837 -0.00056244947166443 -0.000781851247880903 -0.0006012190086415 -0.00090343152941978 -0.000598887752936536 -0.000688172896608247 -0.000229657451789895 0.000226929642903523 -0.000800796415657265 -0.000602523956678483 0.00037038505536467
"187" -0.000602738261309938 -0.000408886525222507 -0.000438606775742185 -0.000478928753513975 -0.000483178671843492 -0.000553793708545597 -0.000782203607832218 -0.000607317658794957 -0.000908554907663368 -0.000607559709073954 -0.000706750007705444 -0.000227218625491042 0.000248794730354747 -0.000806136746928271 -0.000631903340305865 0.000373749822856863
"188" -0.000591819468795357 -0.000407750155069378 -0.000429527616230365 -0.000472082011753474 -0.000469813318578913 -0.000544217079490991 -0.000780647705639134 -0.000611398692054443 -0.000910831705788157 -0.000614481707691619 -0.000722657208858771 -0.000224207599383135 0.000269825955681992 -0.000809205607271941 -0.000657689357535128 0.000377924488311815
"189" -0.000580307651896213 -0.000406038216509047 -0.000420073417275376 -0.000464759774661468 -0.000455681103163386 -0.000533835374831016 -0.000777285009228304 -0.000613519421652412 -0.00091023666472788 -0.000619632849312649 -0.000735839559905323 -0.000220670505591376 0.000289900075526447 -0.000810010887817862 -0.000679796397234317 0.000382863081744197
"190" -0.000568349063457356 -0.000403813031537186 -0.000410323404253328 -0.000457041070195949 -0.000440901610506296 -0.000522765216835403 -0.000772224574508131 -0.000613749189247592 -0.000906765383242237 -0.000623002697357732 -0.000746255022141033 -0.000216653755792185 0.000308904898390694 -0.000808576030722604 -0.000698162199202445 0.000388503590914132
"191" -0.000556088712258759 -0.000401135956471921 -0.000400362877966454 -0.000449001899394001 -0.000425598800804725 -0.000511126312522513 -0.000765588068773237 -0.000612171542841108 -0.000900430704096912 -0.00062458919221218 -0.000753876208305913 -0.000212201255044652 0.000326738979564771 -0.000804938848500474 -0.000712750492505244 0.00039478696228136
"192" -0.000543666935027338 -0.000398070870218647 -0.000390279805518349 -0.000440720843737392 -0.000409903517596408 -0.000499041755049713 -0.000757507341990479 -0.000608883193716062 -0.00089126893104319 -0.000624411912941153 -0.000758706339441826 -0.000207367711775528 0.000343303195707903 -0.000799151935867199 -0.000723561551203671 0.000401628433304138
"193" -0.000531233600060577 -0.000394688672402018 -0.00038015683752094 -0.000432278314506049 -0.000393957430849295 -0.000486641585373871 -0.000748129005143211 -0.000603993375949496 -0.000879339962772013 -0.000622498042343046 -0.000760759304788341 -0.000202203279067967 0.000358512220052976 -0.000791282108314875 -0.000730614216096503 0.000408946648581008
"194" -0.000518920219531953 -0.000391049457319433 -0.000370070787183283 -0.000423747805169508 -0.000377892094922004 -0.000474052181525135 -0.000737604340961531 -0.000597622619576743 -0.000864722391291607 -0.000618889951589149 -0.000760073860525257 -0.000196762347841959 0.00037228587540345 -0.000781415086612295 -0.000733957836069278 0.000416645344488866
"195" -0.000506864252531034 -0.000387218503575857 -0.000360111803294582 -0.000415212492788023 -0.000361856709802785 -0.000461403491076233 -0.000726100429127326 -0.000589906156551461 -0.000847518682225487 -0.000613648660683043 -0.000756703399053673 -0.000191100751705113 0.000384558085193262 -0.000769644019685117 -0.000733669121304801 0.000424622050270702
"196" -0.000495194810774514 -0.00038326501597305 -0.000350351650384483 -0.000406749205204088 -0.00034598983909926 -0.000448827847626315 -0.000713784784278384 -0.00058098612643104 -0.000827856151786838 -0.000606846434321964 -0.000750731232333373 -0.000185280582905302 0.000395268084200651 -0.000756084304661917 -0.0007298670466551 0.000432769241850486
"197" -0.000484039406256014 -0.000379257187612025 -0.000340873776247884 -0.000398433564923199 -0.000330443222946002 -0.000436453083577365 -0.000700836513874205 -0.000571015140007357 -0.000805882448938154 -0.000598566134932681 -0.00074224925421556 -0.000179359691407016 0.000404365111803964 -0.000740857965561027 -0.00072267754182235 0.000440971034111925
"198" -0.000473518995664987 -0.000375260575303947 -0.000331750367403716 -0.000390346368432805 -0.000315360327124961 -0.000424410179583224 -0.000687439746533366 -0.000560162213652315 -0.000781767182921258 -0.00058891423641975 -0.000731379478028529 -0.000173400965846811 0.000411811828566724 -0.000724103491874293 -0.000712267209243689 0.000449106022066995
"199" -0.000463744746000997 -0.000371337933317913 -0.000323054808636433 -0.000382559239404979 -0.000300886047584352 -0.000412822544637263 -0.000673779160063096 -0.000548592353411913 -0.00075570124005332 -0.00057800247961075 -0.000718257354562987 -0.000167468214011683 0.000417576577209065 -0.000705974267970986 -0.000698825188489054 0.000457054536714135
"200" -0.000454819733642684 -0.000367558931581197 -0.000314855365271314 -0.000375148272806175 -0.000287155470790465 -0.000401812630062636 -0.000660044621894417 -0.000536483227110451 -0.000727892959329958 -0.000565955744834634 -0.00070303486582449 -0.00016162349229447 0.000421650398594133 -0.000686631084527633 -0.000682564926026645 0.000464689908939255
"201" -0.000446848006847354 -0.000363985005809088 -0.000307221648989954 -0.000368181703327225 -0.000274309512433236 -0.000391497127163207 -0.000646427896979396 -0.000524018932072102 -0.000698571124470609 -0.000552914473266499 -0.000685887509895003 -0.000155936815201907 0.000424018349923632 -0.00066624723143892 -0.000663727026178681 0.000471888894193585
"202" -0.000439915700666865 -0.000360678291554053 -0.000300216150328461 -0.00036173004596102 -0.000262477093380562 -0.000381990159118961 -0.000633113515959819 -0.000511385666893918 -0.000667983551000425 -0.000539027662515431 -0.000667001900477806 -0.000150467666771429 0.000424691840170705 -0.000645002440766468 -0.000642566945118353 0.000478524016875512
"203" -0.000434094863916986 -0.000357694668957284 -0.000293886520791611 -0.000355852278544316 -0.000251775267764949 -0.000373389465680713 -0.000620282190663482 -0.000498765613709033 -0.000636387980218839 -0.000524452722619186 -0.000646579947722591 -0.000145280576196662 0.000423692028775481 -0.000623089781247283 -0.000619367993195588 0.000484479718135245
"204" -0.000429460088397379 -0.000355087274063365 -0.000288291327737137 -0.000350612815067574 -0.000242319261993618 -0.000365793055655611 -0.000608115981493967 -0.000486344865019577 -0.00060405467586005 -0.000509357843838206 -0.000624840151671255 -0.000140435885233793 0.00042104925348092 -0.000600698023989933 -0.000594423788750865 0.000489642771803778
"205" -0.000426068580491104 -0.000352908932566535 -0.000283473160801848 -0.000346064154877283 -0.000234208942209921 -0.000359285834572543 -0.000596780641012438 -0.0004743088667294 -0.000571266915723439 -0.000493916865913916 -0.000602005551889007 -0.000135992356327168 0.000416804733409544 -0.000578033650659995 -0.000568041953923619 0.000493900413656139
"206" -0.000423964522792761 -0.000351209757887538 -0.000279467097490537 -0.000342254713495617 -0.00022753295254228 -0.000353943816619015 -0.000586439787038932 -0.000462834016023567 -0.000538315635001617 -0.000478301854438096 -0.000578317752648833 -0.000132005583993952 0.000411020247305151 -0.000555293179915672 -0.000540547220974646 0.000497157058352821
"207" -0.000423174532933886 -0.000350023221032499 -0.00027630874002081 -0.000339224391002753 -0.000222361313300197 -0.000349825745188299 -0.000577233122642233 -0.000452091407390461 -0.000505493373173657 -0.000462697730765131 -0.00055401838243377 -0.000128524518150873 0.000403765194250357 -0.000532681009903206 -0.000512272019004785 0.000499324183103782
"208" -0.00042372571530111 -0.000349388114886963 -0.000274014554968178 -0.000337008297060921 -0.000218758358970087 -0.000346984057858287 -0.000569298825170789 -0.000442247072088817 -0.000473092793262048 -0.000447279918857512 -0.000529354239756945 -0.000125595486802296 0.000395126784612818 -0.000510397464198175 -0.000483546668133115 0.000500325221161788
"209" -0.000425616699401286 -0.000349330283009078 -0.000272602866703815 -0.000335632607150362 -0.000216760839990102 -0.000345454566220878 -0.000562749719270073 -0.000433452270658362 -0.000441406946324515 -0.000432229668917888 -0.000504579257481275 -0.000123257766574859 0.000385200492936247 -0.000488638387749936 -0.000454716526024468 0.00050009628231431
"210" -0.000428843420598736 -0.000349870095024695 -0.000272075678717902 -0.000335114271335253 -0.000216399639187669 -0.000345258619993829 -0.000557685838817985 -0.000425846995099702 -0.000410725259487329 -0.000417721561468252 -0.000479943219568137 -0.000121544290541344 0.000374095925416628 -0.000467598733287825 -0.000426111182176679 0.000498588935428273
"211" -0.000433382286090508 -0.000351024337073629 -0.000272429559683632 -0.000335462179851569 -0.000217672355617835 -0.000346406079661248 -0.000554182755444465 -0.000419559424359118 -0.000381325444622289 -0.000403927944640422 -0.000455698981108625 -0.000120479998612767 0.000361937285392263 -0.00044746026896933 -0.000398067671758473 0.00049577305967668
"212" -0.000439201519901844 -0.00035279568542379 -0.000273652838158301 -0.000336675362614423 -0.000220576408173283 -0.000348888765936483 -0.000552305821114171 -0.000414698738768002 -0.000353475011058523 -0.000391008515810152 -0.000432088851014326 -0.000120086441271155 0.000348852504853516 -0.000428398632615561 -0.000370906578674071 0.00049162801222062
"213" -0.000446245961099218 -0.000355184529264507 -0.000275718548847948 -0.000338744394704489 -0.000225080293262364 -0.00035268668035168 -0.000552089596095366 -0.000411361490494938 -0.000327430753548056 -0.000379118238227356 -0.000409352808729111 -0.000120371469921895 0.000334987922483634 -0.000410581280468007 -0.000344943212088864 0.00048615571823871
"214" -0.000454461973808654 -0.000358184223352815 -0.00027860192453634 -0.000341654314112486 -0.000231135822330272 -0.000357769104297677 -0.000553553155380807 -0.000409626588529616 -0.000303426079264199 -0.000368400571076559 -0.000387716942186804 -0.000121341417004741 0.000320488337586954 -0.000394159823645866 -0.000320472654571574 0.000479370707987614
"215" -0.000463772516396844 -0.000361772074073255 -0.000282258379894166 -0.000345373619266815 -0.000238681760988566 -0.000364084641334494 -0.000556694306583222 -0.000409548986996426 -0.000281680257553406 -0.00035898564627684 -0.000367404518152127 -0.000122992405694235 0.00030550977920227 -0.000379275937544505 -0.00029777753340441 0.000471303898754588
"216" -0.000474095957161979 -0.000365927791382431 -0.000286643702690931 -0.000349871263458494 -0.0002476373487943 -0.000371575227490354 -0.000561489679805435 -0.000411171576554896 -0.000262388849844757 -0.000350995844392489 -0.000348615729744829 -0.000125316295279022 0.00029021293754827 -0.000366048492005361 -0.000277112252031684 0.000462003313927881
"217" -0.000485330871419433 -0.000370614441799461 -0.000291699382728741 -0.00035509870946343 -0.000257904187698062 -0.000380168325371548 -0.00056788674377101 -0.000414513089110404 -0.000245721407478456 -0.00034452730301621 -0.0003315409651076 -0.000128291888228463 0.000274754190767651 -0.000354589441245824 -0.000258723103744639 0.000451530091530108
"218" -0.000497381478714022 -0.000375802875946412 -0.000297363907896817 -0.000361009429854946 -0.000269378309757548 -0.000389782761307583 -0.000575827458825542 -0.000419577222196761 -0.00023182696203149 -0.000339674424521903 -0.000316350846453063 -0.000131902725964039 0.000259293115149162 -0.000344988444480541 -0.00024281209911182 0.000439954292518871
"219" -0.000510127637564465 -0.000381438674526558 -0.000303566472203928 -0.00036754080793359 -0.000281935646255045 -0.000400325503834981 -0.00058522105417234 -0.000426340740602786 -0.000220819182256386 -0.000336499982978138 -0.000303200650060382 -0.000136114326392919 0.000243990710207005 -0.000337321333564951 -0.000229567947880522 0.000427364394074989
"220" -0.000523455679011991 -0.000387480872541414 -0.000310237003977719 -0.000374631928949488 -0.000295443150942246 -0.000411698558848217 -0.000595975187939952 -0.00043476666568413 -0.000212789759957342 -0.00033506453577804 -0.000292221212923201 -0.000140897896685103 0.000228987666931268 -0.000331643593961942 -0.00021914805913681 0.000413855392217418
"221" -0.000537236707328596 -0.000393870591669622 -0.000317292983629136 -0.000382214702532939 -0.000309765917134322 -0.000423795326262623 -0.000607963826578243 -0.000444802360082647 -0.000207804472315766 -0.000335399582524783 -0.000283522302217877 -0.000146217620829176 0.000214432444864359 -0.000327990557343644 -0.000211678668617206 0.000399532006979468
"222" -0.000551346035315318 -0.000400549176233727 -0.000324659956430089 -0.000390218392680316 -0.000324750508781584 -0.000436505273323808 -0.000621062521152035 -0.000456370120486139 -0.000205889148166322 -0.000337524397470997 -0.000277196230700541 -0.0001520328440634 0.000200451583943508 -0.0003263844968827 -0.0002072476842269 0.00038449960321153
"223" -0.000565650072761594 -0.000407455595648299 -0.000332248858236614 -0.000398562170617954 -0.000340246771553067 -0.000449714614293821 -0.000635122123642915 -0.000469377845748968 -0.000207053453573099 -0.000341441029248383 -0.000273308738621854 -0.000158304801657334 0.000187161494967866 -0.000326824638201918 -0.000205923934195892 0.000368872301321831
"224" -0.000580019150163524 -0.000414529465825553 -0.000339976552365773 -0.000407173957715027 -0.00035610251340078 -0.00046330579943578 -0.000649993477044188 -0.000483723804664929 -0.000211263934572258 -0.000347132017790398 -0.000271900201948539 -0.00016498694121711 0.000174667429673583 -0.000329294721176968 -0.00020773752311984 0.000352771020927814
"225" -0.000594317737685852 -0.0004216996732726 -0.000347760714824614 -0.000415973248277226 -0.000372161933408499 -0.00047716381363722 -0.000665508594472145 -0.000499286002422036 -0.0002184688833452 -0.000354560047982936 -0.000272988213047945 -0.000172041285604117 0.000163051477252177 -0.000333755997953883 -0.000212684647050677 0.000336311581149416
"226" -0.000608421194809451 -0.00042890344524274 -0.000355515082232059 -0.00042488237784885 -0.000388267479396252 -0.000491169649632598 -0.000681506801739787 -0.000515928917202209 -0.0002285844608713 -0.000363676595916855 -0.000276571537258179 -0.000179420742644985 0.000152382968864206 -0.00034016087872495 -0.000220736034610376 0.000319610620848234
"227" -0.000622198068552462 -0.000436076309844742 -0.000363156979946295 -0.000433822189833191 -0.000404267829354871 -0.000505210127504716 -0.000697804772011855 -0.000533507352939339 -0.000241500211291822 -0.000374409590654202 -0.000282617415023053 -0.000187082294937098 0.000142716945852354 -0.00034843689514387 -0.000231823622913817 0.000302784131221432
"228" -0.000635529177212911 -0.000443151019781774 -0.000370610127037644 -0.00044271745114401 -0.00042001125252021 -0.000519172498417199 -0.000714234203236288 -0.00055186839857199 -0.000257080473467746 -0.000386680352259756 -0.000291071586310615 -0.00019498480626897 0.00013408298715221 -0.000358499549275713 -0.000245854256046162 0.000285947920462901
"229" -0.000648295912331246 -0.000450064590080747 -0.000377794553717823 -0.00045149357987288 -0.000435356420886306 -0.000532950394471947 -0.000730615518247962 -0.000570844721883236 -0.000275162878336439 -0.000400381420458522 -0.000301860679238676 -0.000203081389641008 0.000126497284590447 -0.000370248608317475 -0.000262705272702433 0.00026921087790606
"230" -0.000660387590614722 -0.00045675504681186 -0.000384637536795833 -0.000460077210094099 -0.000450161291773349 -0.000546438071361509 -0.000746772839344066 -0.000590270768367508 -0.000295564898024268 -0.000415405240824926 -0.000314886526285881 -0.000211332630245968 0.000119962776299722 -0.000383566352596677 -0.000282224741090943 0.000252679416332209
"231" -0.000671697316562928 -0.00046316552459235 -0.000391069010280203 -0.000468401982994694 -0.000464297716536189 -0.000559539220211214 -0.00076253130928341 -0.000609966833127083 -0.000318082567998984 -0.000431620260860362 -0.000330027334921874 -0.00021969519133856 0.000114458173572876 -0.000398323378404651 -0.000304238153602519 0.000236453882648933
"232" -0.000682132613386359 -0.000469239422355578 -0.000397027036478843 -0.000476399474734428 -0.000477639299940832 -0.0005721612319837 -0.000777725952491781 -0.00062975415554705 -0.000342488508711505 -0.000448887899295779 -0.000347140077253914 -0.000228121311063403 0.00010995751216475 -0.000414377610423687 -0.000328536222026173 0.000220633996374417
"233" -0.000691603111836181 -0.000474917533096012 -0.000402447392354255 -0.000484007608703773 -0.000490066688398511 -0.000584216618461522 -0.000792189695353043 -0.000649450716701508 -0.000368543998244069 -0.00046705164396649 -0.000366068434561601 -0.000236571777559742 0.000106417710879509 -0.00043157636643779 -0.00035490230222943 0.000205308720276102
"234" -0.000700029885206355 -0.000480159365508416 -0.000407277087502626 -0.000491171577130072 -0.000501475436901141 -0.00059562682431244 -0.000805765613150705 -0.000668872676327359 -0.000395987627823607 -0.000485953879618019 -0.000386633076975538 -0.000244996689087314 0.000103787491491908 -0.000449754855950804 -0.000383082828674189 0.000190569754963432
"235" -0.000707341399100401 -0.000484914120998683 -0.000411459794614849 -0.000497835058999122 -0.000511766793176203 -0.000606318436384924 -0.000818305159299434 -0.000687842457729486 -0.000424549187982248 -0.000505418190680763 -0.000408641437165626 -0.000253350174586238 0.00010201101348863 -0.0004687395485943 -0.000412822767073979 0.000176499456201749
"236" -0.000713477197316569 -0.000489140497107397 -0.000414956345294292 -0.00050394971853571 -0.000520849087188104 -0.000616223843824014 -0.000829663245100831 -0.00070617790755322 -0.000453943014495908 -0.000525261417880189 -0.000431881014374106 -0.000261576878288637 0.000101023244254405 -0.000488344331655744 -0.000443834605709115 0.000163177578892751
"237" -0.000718382390963796 -0.000492803101274704 -0.000417720720254141 -0.000509466823198642 -0.000528643380558564 -0.000625286181975483 -0.000839714049354816 -0.000723704464523258 -0.000483880417586757 -0.000545300064083291 -0.000456131513145023 -0.000269627769851746 0.000100762590555068 -0.000508384523452147 -0.000475826643880298 0.000150681519645064
"238" -0.000722010063662073 -0.000495859164667313 -0.000419714846534826 -0.000514339798894044 -0.000535070383409836 -0.000633444612349723 -0.000848326107960116 -0.000740245388807805 -0.00051405711909012 -0.000565338061892578 -0.000481160014749397 -0.000277439779032258 0.000101166232192619 -0.000528663006713292 -0.000508499993824334 0.000139086441596339
"239" -0.000724325943069211 -0.000498287475084628 -0.000420902773202371 -0.000518534062412352 -0.000540071421865347 -0.000640654858195533 -0.000855394208901802 -0.000755644714130072 -0.000544169309578044 -0.000585178163856126 -0.000506721835923724 -0.000284948274542524 0.000102175850761615 -0.000548980638987194 -0.000541537285280305 0.000128463635659771
"240" -0.000725303192400929 -0.000500053842290769 -0.00042126069153143 -0.000522011491749612 -0.000543589528416586 -0.000646877065733976 -0.000860817408324219 -0.000769738508100174 -0.000573910519306758 -0.00060461789725555 -0.000532569640295782 -0.000292090090143419 0.00010373502076723 -0.000569136574896724 -0.000574623658137759 0.000118878914043509
"241" -0.000724916007275015 -0.000501139577248522 -0.000420759764350259 -0.000524739127677608 -0.00054557871245545 -0.000652070587894096 -0.000864501197306903 -0.000782380436168042 -0.000602970741738492 -0.000623456746360065 -0.00055844696892089 -0.000298788452897922 0.00010580241551673 -0.000588926913978072 -0.000607435817231075 0.000110403994751126
"242" -0.000723152748969163 -0.000501518175138943 -0.000419376364509685 -0.00052668300594698 -0.000545996632681013 -0.000656207417429837 -0.000866369856354639 -0.000793428981786478 -0.000631043593856601 -0.000641494749855255 -0.000584096024935691 -0.00030496593821002 0.00010833849452362 -0.000608146023898947 -0.000639653911125382 0.000103101710722295
"243" -0.000720007730816836 -0.000501176767399238 -0.000417098391384182 -0.000527820129667286 -0.000544820373411683 -0.000659260675943625 -0.00086636160554603 -0.000802759335304914 -0.000657831878666757 -0.000658530898307185 -0.000609263399914135 -0.000310542363356977 0.000111315354398259 -0.000626598406247957 -0.000670960036183775 9.70302420998835e-05
"244" -0.000715476194061129 -0.000500095969288608 -0.00041389960752866 -0.000528120109554823 -0.000542024702409216 -0.000661206064869905 -0.000864414751555856 -0.00081025033499889 -0.000683038280096198 -0.000674367681235579 -0.000633687985612366 -0.00031542601911388 0.000114728184254189 -0.000644081110321052 -0.000701041642201773 9.22564671716439e-05
"245" -0.000709563830373132 -0.000498266526853535 -0.000409779691923934 -0.000527565376702788 -0.000537596939983276 -0.000662032435200127 -0.000860496289812435 -0.000815800439151776 -0.000706379805992606 -0.000688821340160609 -0.000657119391017294 -0.000319533972494514 0.000118561675160527 -0.000660407711308263 -0.000729596098008169 8.88311873387562e-05
"246" -0.000702283681200321 -0.000495679397880548 -0.000404721617679717 -0.000526132885457598 -0.000531534628300453 -0.000661727326964653 -0.00085457578983759 -0.000819314961410988 -0.000727582629433846 -0.000701705885633276 -0.000679313427829901 -0.000322767655525812 0.000122833643938614 -0.000675388159951704 -0.000756324237900397 8.68100534188655e-05
"247" -0.000693648901756852 -0.000492330066676368 -0.000398725908383545 -0.000523810339711048 -0.000523845759586948 -0.000660286452056311 -0.000846636516188226 -0.000820717775632394 -0.00074639100320932 -0.000712851746727389 -0.000700032629628405 -0.000325038185208419 0.000127555585386776 -0.000688848448780485 -0.000780954694047321 8.62410567952699e-05
"248" -0.000683683236233372 -0.000488214181556491 -0.000391794946474444 -0.000520582885226077 -0.000514543493382666 -0.000657705220863395 -0.000836682912964686 -0.000819945930709055 -0.000762566868587662 -0.000722097304296239 -0.000719050716527972 -0.000326249821460626 0.000132759577923634 -0.000700621041880951 -0.000803218786494397 8.71616073294223e-05
"249" -0.000672408334374358 -0.000483331420396421 -0.000383923549772082 -0.000516440899125082 -0.000503653655263956 -0.000653988873243704 -0.000824724322856766 -0.00081695262461233 -0.000775884728909119 -0.0007292934205597 -0.000736154154577519 -0.000326308881169245 0.000138481393577893 -0.000710549283650141 -0.00082287020436454 8.96118158992765e-05
"250" -0.000659855920935896 -0.000477683569835873 -0.000375122027250132 -0.000511374599400776 -0.000491208888032249 -0.000649144730138372 -0.000810787179270243 -0.000811700954589021 -0.000786150046193785 -0.000734307939544932 -0.000751145681410017 -0.000325128986717971 0.000144763561479607 -0.000718493060558505 -0.000839688826196176 9.36168874059556e-05
"251" -0.000646060718290768 -0.000471278419238304 -0.0003654074862055 -0.000505389048820158 -0.000477255150210071 -0.00064318610110733 -0.000794912694752532 -0.000804178710279454 -0.00079318376646119 -0.000737024250637834 -0.000763842773938058 -0.000322623908491086 0.000151651160297706 -0.000724325932317975 -0.000853472434797196 9.9195806696864e-05
"252" -0.000631064526588964 -0.000464122185153004 -0.000354790260589162 -0.00049848206502139 -0.000461853714862316 -0.00063613492938477 -0.000777154985888357 -0.000794388208955946 -0.000796840608557787 -0.000737343637401005 -0.000774083216602317 -0.000318717672979099 0.000159186594391635 -0.000727935360883402 -0.000864046701870321 0.000106351562696252
"253" -0.000614906329074763 -0.000456224740959389 -0.000343295706213896 -0.000490661624557794 -0.000445057444421228 -0.000628011586033447 -0.000757582995567331 -0.000782339362170297 -0.000796997881988191 -0.000735189669499795 -0.000781723828627006 -0.000313339142164268 0.000167424161366804 -0.000729228016229122 -0.000871262406765625 0.000115080809916865
"254" -0.000597638557402735 -0.000447605297233186 -0.000330951303244383 -0.000481942192149246 -0.000426955941350613 -0.00061884590874227 -0.000736280077106356 -0.000768069626924582 -0.000793565336965602 -0.000730499565627742 -0.00078664445190481 -0.000306430929418102 0.000176399657508755 -0.000728127598645558 -0.000874992784086641 0.00012536991443145
"255" -0.000579309161416848 -0.000438283102029893 -0.000317787210912969 -0.000472339233471198 -0.00040762857573578 -0.000608673085181194 -0.000713336532105923 -0.000751628557669939 -0.000786478141388991 -0.000723238433598899 -0.000788746508421411 -0.000297943464984894 0.000186154901920073 -0.000724574871567658 -0.000875153544984045 0.000137184698465424
"256" -0.000559977682642963 -0.000428275739368908 -0.0003038447223689 -0.000461879149907269 -0.000387175299331419 -0.000597534204468581 -0.000688863775888634 -0.000733078764107841 -0.000775711806308305 -0.000713392948432558 -0.000787956293035907 -0.000287845745337014 0.00019671495113178 -0.000718536626171409 -0.000871681819880845 0.000150482903756575
"257" -0.000539705719841424 -0.000417609283604706 -0.000289164764015583 -0.000450585360947556 -0.000365696803731152 -0.000585472750542412 -0.000662982491200157 -0.000712503320203212 -0.000761265294761233 -0.000700970433268825 -0.000784221066613363 -0.000276112696340968 0.000208101874927523 -0.000709990075837917 -0.000864546474364303 0.000165203213838024
"258" -0.000518557332076524 -0.000406313545276529 -0.000273800351388377 -0.000438498184968219 -0.000343317146677782 -0.000572537242385391 -0.000635822367485147 -0.00068999960794483 -0.000743175156346153 -0.000685999490927686 -0.000777518983850163 -0.000262739578378033 0.000220325887930363 -0.000698941755743381 -0.000853747431840941 0.000181276294631289
"259" -0.00049660369759374 -0.000394421123738866 -0.000257809118073146 -0.000425656314233462 -0.000320156403800865 -0.000558785624059671 -0.000607527218508064 -0.000665678552549317 -0.000721508300875741 -0.000668538728612512 -0.000767849054932373 -0.000247738010716777 0.000233383674752376 -0.000685413732099616 -0.000839317592846973 0.000198613154269781
"260" -0.000473915037553964 -0.000381967137733813 -0.000241247695183151 -0.000412105774497946 -0.000296343176650922 -0.00054427571216972 -0.000578247184540238 -0.000639664302920378 -0.000696362023278399 -0.000648664577108045 -0.000755232829993856 -0.000231130179327866 0.00024725848118879 -0.000669446587310858 -0.000821319368435726 0.000217116028650431
"261" -0.000450568399638475 -0.000368990179063275 -0.000224182485545883 -0.000397895989895814 -0.000272017401436431 -0.000529071590363214 -0.00054814388459169 -0.000612094292899592 -0.000667869348971987 -0.000626476900771415 -0.000739723510411009 -0.000212961117867793 0.000261927285897985 -0.000651103203288243 -0.000799843619529447 0.000236674979547702
"262" -0.000426645970328992 -0.000355533766240122 -0.000206686710806132 -0.000383087047226429 -0.000247319729372253 -0.000513239482808094 -0.000517381406065377 -0.000583119358164766 -0.00063618808138954 -0.000602092353698242 -0.00072139320422644 -0.000193288424584472 0.000277347776438044 -0.00063046381383427 -0.000775011507592517 0.000257165101712597
"263" -0.000402226858655169 -0.000341636224002185 -0.000188829993289359 -0.000367737823922235 -0.000222398521945913 -0.000496849780090863 -0.000486129972637193 -0.000552898988557317 -0.000601505109618829 -0.000575652361699017 -0.0007003359424897 -0.000172178173911328 0.00029347975455048 -0.00060762749617306 -0.000746974532182692 0.000278463928208487
"264" -0.000377398222708363 -0.000327347719328838 -0.000170695353992312 -0.000351914431900006 -0.000197396488206229 -0.000479975788100837 -0.000454567038656048 -0.000521603207546345 -0.000564033761284554 -0.000547318472808107 -0.00067667289239874 -0.000149722538050358 0.000310257816110275 -0.000582710175372615 -0.000715902757468511 0.000300426994073039
"265" -0.000352243539007357 -0.000312713321334115 -0.000152355778256693 -0.00033568326016627 -0.000172461389844787 -0.000462690114060518 -0.000422863484753686 -0.00048941049328937 -0.000524011603864414 -0.000517260507445861 -0.000650540764116277 -0.000126015698271356 0.000327626121849507 -0.000555839423275405 -0.000681997213068821 0.000322921964228458
"266" -0.00032685437046068 -0.000297787608681644 -0.00013389681401665 -0.00031911670184707 -0.000147740126584137 -0.000445067790898566 -0.000391199590234582 -0.000456505678585994 -0.000481691451015347 -0.000485672682986396 -0.000622099237665899 -0.000101172273363521 0.000345513104741127 -0.000527165887888331 -0.000645473762460231 0.000345800812931233
"267" -0.000301317766735135 -0.000282615632916519 -0.000115399183726604 -0.000302285895120759 -0.000123368212241442 -0.000427185865698884 -0.000359748281447292 -0.000423078751318037 -0.000437351671561841 -0.000452753141120874 -0.000591520641699924 -7.53054761045052e-05 0.00036385129969017 -0.000496841830666553 -0.00060657214930476 0.000368927942194315
"268" -0.000275720329623548 -0.000267256564502083 -9.69449147391248e-05 -0.000285265884237739 -9.94892992581277e-05 -0.000409121253764251 -0.000328680000170955 -0.000389323883500763 -0.000391282032786938 -0.000418719805374489 -0.000559000202788248 -4.85493396920864e-05 0.000382567749331105 -0.000465037123465954 -0.000565548076897583 0.000392162682038871
"269" -0.000250151907242493 -0.000251755034306804 -7.86159778571191e-05 -0.000268130437133255 -7.62231161586741e-05 -0.000390944649482558 -0.000298159530024563 -0.000355435543721523 -0.000343782287605751 -0.00038378787502742 -0.000524743965920603 -2.10346616093625e-05 0.000401603105186844 -0.00043193256730316 -0.00052267376926386 0.000415375549515964
"270" -0.000224703344915591 -0.000236170526863831 -6.04898091730134e-05 -0.000250958305737478 -5.36970567679457e-05 -0.000372735519085965 -0.000268347499449373 -0.000321614238652767 -0.000295162837483267 -0.000348188019763396 -0.000488963222092494 7.0980457746488e-06 0.000420888463325676 -0.000397713550652832 -0.000478226665239026 0.000438439728286015
"271" -0.000199456654579732 -0.000220553070748826 -4.26441641046559e-05 -0.000233818531508601 -3.20253768451636e-05 -0.000354562163477554 -0.000239392797451544 -0.000288052138602993 -0.000245736199636854 -0.000312147700270529 -0.000451890787136402 3.57059676877222e-05 0.000440372119030749 -0.000362569137859474 -0.000432499833208856 0.000461243315771709
"272" -0.000174499675319312 -0.000204953309749945 -2.51547713292876e-05 -0.000216787563314436 -1.13046470234485e-05 -0.000336497986283124 -0.000211437499100055 -0.00025494559131577 -0.000195820338495034 -0.000275898541238755 -0.000413757295222576 6.46486421072103e-05 0.000460010830294953 -0.00032669665153167 -0.000385786458644097 0.000483683224381896
"273" -0.000149915731132313 -0.000189431802004453 -8.09157209315213e-06 -0.000199937636896832 8.3736484117194e-06 -0.000318611947724872 -0.000184616722238255 -0.000222488034035184 -0.000145729027783567 -0.00023967176009166 -0.000374808184644662 9.37755528692886e-05 0.000479761585664482 -0.00029029960673337 -0.000338389113224403 0.000505672118393975
"274" -0.000125788243858209 -0.000174034755629033 8.47974111443448e-06 -0.000183335936726195 2.69273501354702e-05 -0.000300969112517212 -0.000159046854977899 -0.000190862510006062 -9.57733850419182e-05 -0.000203689694621072 -0.000335281751978101 0.000122951597024441 0.000499603406463463 -0.000253574664226457 -0.000290604462006073 0.000527135764400469
"275" -0.00010219666540236 -0.000158815736866471 2.44947043844773e-05 -0.000167053530243205 4.42891538412292e-05 -0.000283635151053411 -0.000134839614323472 -0.000160250387174482 -4.62638837448624e-05 -0.000168178213098893 -0.000295431864961971 0.00015202957387277 0.000519513260571719 -0.000216726245496023 -0.000242738766385801 0.000548010144154487
"276" -7.92146099132744e-05 -0.000143827234758573 3.98934009156679e-05 -0.000151152039715408 6.04028723404835e-05 -0.000266673947670921 -0.000112090784568369 -0.000130826303563033 2.51297855471507e-06 -0.000133350154185715 -0.000255500124231834 0.000180873387663744 0.00053949151848768 -0.000179950607605916 -0.00019508689358802 0.000568248340530672
"277" -5.69221881934228e-05 -0.000129118503253601 5.46251415404902e-05 -0.000135699828686686 7.52268718668116e-05 -0.000250146336513357 -9.08858811904637e-05 -0.000102755888633905 5.02712984435226e-05 -9.94110696880211e-05 -0.000215735724912012 0.000209352153454858 0.000559534929360749 -0.000143445222132874 -0.000147937637286298 0.000587822081794209
"278" -3.53924034488548e-05 -0.000114740803061007 6.86365587929801e-05 -0.000120753767484483 8.87265757538431e-05 -0.000234112934017075 -7.12993160547032e-05 -7.61920311709042e-05 9.67393721220555e-05 -6.65551697198879e-05 -0.000176377911557177 0.000237330382393353 0.000579653565070386 -0.000107408036101209 -0.00010157467801012 0.000606706594028199
"279" -1.46913979713837e-05 -0.000100746557338342 8.18852794105418e-05 -0.000106374641915395 0.000100873000885802 -0.000218631503356155 -5.3391410582614e-05 -5.12804226195374e-05 0.000141663100773474 -3.49678207317771e-05 -0.000137668535653513 0.000264684815990917 0.000599859657757836 -7.20266303635082e-05 -5.6277803800387e-05 0.000624897417655688
"280" 5.11065738235039e-06 -8.71804064678913e-05 9.43263661210645e-05 -9.26169103674583e-05 0.000111658326022258 -0.00020375983177544 -3.72079781657738e-05 -2.81560870708136e-05 0.000184804774481788 -4.82345533650894e-06 -9.9833914915561e-05 0.000291291977539702 0.000620166215465415 -3.7484621012943e-05 -1.23059438225754e-05 0.000642391033779344
"281" 2.39493291374958e-05 -7.40944043136349e-05 0.000105927641440052 -7.95347028354793e-05 0.000121070479969369 -0.000189552391915542 -2.27907877211346e-05 -6.94215726529445e-06 0.000225943495049037 2.37252452310032e-05 -6.31014223234513e-05 0.000317034005895477 0.000640592748997376 -3.9585282701318e-06 3.00862293874526e-05 0.000659201767521291
"282" 4.1762188330253e-05 -6.1534927476461e-05 0.000116650344676771 -6.71787413935728e-05 0.000129112155286643 -0.000176067037137969 -1.01629556357737e-05 1.22562008273907e-05 0.000264879559057301 5.05277531963527e-05 -2.76871458063862e-05 0.000341798564383937 0.000661142310165118 2.8379429028324e-05 7.06614895748473e-05 0.000675339950930648
"283" 5.84902990600824e-05 -4.95464994180027e-05 0.000126471860103768 -5.55988711958658e-05 0.000135793165356475 -0.000163361259812816 6.5643059295804e-07 2.93403457155767e-05 0.000301427766661769 7.54573238998516e-05 6.20788036698919e-06 0.000365470370183326 0.000681822711475972 5.93669420897222e-05 0.000109192803883546 0.000690826806274487
"284" 7.40807252766439e-05 -3.81757312992835e-05 0.000135362157518458 -4.48369053335528e-05 0.000141124702409475 -0.000151486253355948 9.66800182060202e-06 4.42320256254444e-05 0.000335426169446735 9.83983899374051e-05 3.83867846750166e-05 0.000387949566198313 0.000702623909580282 8.88510563413539e-05 0.000145476762246781 0.000705676937355255
"285" 8.84790231444594e-05 -2.74649220668695e-05 0.000143301972735503 -3.49390684071784e-05 0.000145127301652967 -0.000140496258576534 1.68715083928071e-05 5.6866346678696e-05 0.000366731105671527 0.000119246758844265 6.86682347999954e-05 0.000409124081273933 0.000723521524022288 0.000116682264761463 0.000179316114276182 0.000719907677524513
"286" 0.000101639036634735 -1.74562391967038e-05 0.000150271537397634 -2.59448404361e-05 0.00014781636839059 -0.000130443820440829 2.22856019712301e-05 6.71914101079638e-05 0.00039521827803605 0.000137920575834579 9.68874781629278e-05 0.00042890163384959 0.00074448571842673 0.000142729939923988 0.000210541362101607 0.000733528640945485
"287" 0.000113520036314494 -8.18432906822702e-06 0.000156261714340858 -1.78869443843894e-05 0.0001492204839821 -0.000121380290050296 2.59358852105065e-05 7.51782630005812e-05 0.000420787417073193 0.000154350385184085 0.000122890076564257 0.000447184074525212 0.000765463704334544 0.000166866356117499 0.000238995922388643 0.000746549457121424
"288" 0.000124082901722722 3.11979079420781e-07 0.00016125536644344 -1.08019944282517e-05 0.000149362976118186 -0.000113357483872205 2.78475537963114e-05 8.08058313821478e-05 0.000443351445182449 0.000168480511171225 0.00014653649289953 0.00046387118777729 0.000786371075623708 0.000188979728486337 0.000264542775366407 0.000758965021598959
"289" 0.000133292678511071 7.99989440297035e-06 0.000165252008869177 -4.71922214407356e-06 0.000148270680068898 -0.000106419671877218 2.80660362007535e-05 8.40744951606849e-05 0.000462847581477509 0.000180271010740415 0.000167711188351546 0.00047887956552937 0.000807121834063746 0.000208966809064967 0.000287063285990428 0.000770763765286095
"290" 0.000141127473315582 1.48549903837886e-05 0.000168241767218627 3.39310355874515e-07 0.000145976037534201 -0.000100613361407135 2.66379417545877e-05 8.50006063149849e-05 0.000479234084315106 0.000189701824272561 0.000186305536492917 0.000492125163892309 0.000827599506353856 0.00022674128211317 0.000306467954935955 0.00078192524498519
"291" 0.000147560556682571 2.08468910106746e-05 0.000170231088368948 4.34908312260166e-06 0.000142508289466993 -9.59814339003766e-05 2.36168146949516e-05 8.36180158703157e-05 0.000492483763924175 0.000196761417013558 0.000202240678333835 0.000503529026544451 0.000847676697637832 0.000242224392173576 0.000322679072687418 0.000792417631707784
"292" 0.000152578746928035 2.59588198351587e-05 0.000171224536224555 7.29536586787768e-06 0.000137896913035821 -9.25612572224732e-05 1.90625010768099e-05 7.99710873590843e-05 0.000502593532023953 0.000201458436407768 0.000215449611630623 0.000513013359143538 0.000867192504850611 0.000255358385930174 0.000335646460967818 0.000802198158340902
"293" 0.000156171837493667 3.0170132494883e-05 0.000171227480966816 9.16541028322162e-06 0.000132176550040614 -9.03856888574773e-05 1.30448081146963e-05 7.41278756391972e-05 0.000509576722605649 0.000203814297484752 0.000225887957063476 0.000520517497091932 0.000885988646130895 0.000266097150074282 0.000345343245776876 0.000811216561117707
"294" 0.000158338747382736 3.34726857297655e-05 0.000170254773066739 9.95385943574119e-06 0.000125376155626811 -8.948379592941e-05 5.63630630473736e-06 6.61634620258864e-05 0.000513468993062233 0.000203869566799574 0.000233532520183154 0.000525984763448054 0.000903878711113617 0.000274407591050263 0.000351759028037802 0.000819415218801551
"295" 0.000159085977657003 3.58621343597669e-05 0.000168325527593609 9.66249855281636e-06 0.000117541184741551 -8.98742935776442e-05 -3.08872984121936e-06 5.6174876625254e-05 0.000514321150406841 0.000201669548336712 0.000238384827012937 0.00052937396501567 0.00092068409239098 0.000280278555668331 0.000354922407010886 0.000826726622776689
"296" 0.000158419697869926 3.73270670320187e-05 0.000165460312315952 8.29142171691637e-06 0.000108700886379828 -9.15784286469432e-05 -1.30459100310416e-05 4.42659836142269e-05 0.000512208407125783 0.000197288252921234 0.00024046439688598 0.000530649930168906 0.000936204358783495 0.000283712462188605 0.000354867793711695 0.000833081792379929
"297" 0.00015636201795896 3.78785835554697e-05 0.000161688374054811 5.85673452223907e-06 9.89037215671379e-05 -9.45973649107544e-05 -2.41505025989398e-05 3.05578506866029e-05 0.000507220963574249 0.000190804564569276 0.000239813920043933 0.000529796426787274 0.000950255548352108 0.000284727873111169 0.000351667648773221 0.000838406312954717
"298" 0.000152938931161326 3.75241626645248e-05 0.000157041068205496 2.37294388106834e-06 8.81960966896663e-05 -9.89333983957718e-05 -3.63102251794443e-05 1.51788328213898e-05 0.000499469649377732 0.00018231615151213 0.000236500370840509 0.000526810566058249 0.000962645190957717 0.000283366302989106 0.00034541038372999 0.000842628934100296
"299" 0.000148185145450869 3.6273200524036e-05 0.000151556768296035 -2.1324375076594e-06 7.662075746021e-05 -0.000104577857411998 -4.94323596853055e-05 -1.72830869967991e-06 0.000489082918373664 0.000171929304025264 0.000230610057742831 0.000521709445896371 0.000973201643200331 0.000279676898332457 0.000336214338926471 0.000845681171961358
"300" 0.000142137945968967 3.41493192787026e-05 0.000145279589632637 -7.6317378622137e-06 6.42406268732226e-05 -0.000111508802207419 -6.34203280996594e-05 -2.00182665256407e-05 0.000476210183152903 0.000159768828757822 0.000222255663407563 0.00051452463672561 0.000981762684126937 0.000273738170967116 0.000324217298523236 0.000847494329355655
"301" 0.000134845974963735 3.11748979145771e-05 0.000138258108969694 -1.40868951978716e-05 5.1104369987229e-05 -0.000119700130489055 -7.81770063120434e-05 -3.95288673159226e-05 0.000461009965442163 0.000145969635916315 0.000211565353074548 0.000505306692102254 0.000988182890014706 0.00026563870602574 0.000309576100873937 0.000848015743768926
"302" 0.000126369758723652 2.73790413938605e-05 0.000130545347557978 -2.14487883680859e-05 3.7289803419571e-05 -0.000129110092395361 -9.35993957133636e-05 -6.00990781479138e-05 0.000443666556309761 0.000130680536320887 0.000198692458441254 0.000494133145402804 0.000992347585821091 0.000255484031129502 0.000292478130157554 0.000847195910749569
"303" 0.00011677306016037 2.27995318679025e-05 0.000122205194648368 -2.96690452560106e-05 2.28621485415816e-05 -0.000139689135838121 -0.000109583721233985 -8.15604093260495e-05 0.000424370157783981 0.000114054462397459 0.000183804130186051 0.000481095238240246 0.000994164778851341 0.000243400039895251 0.000273122585905577 0.000844997530710803
"304" 0.000106125681945842 1.74771282058824e-05 0.000113296876010548 -3.8685768554035e-05 7.89884664150901e-06 -0.000151375894777699 -0.000126020079353983 -0.000103738838824631 0.000403330511434142 9.62638855090056e-05 0.000167089200388255 0.000466306644225691 0.000993575700877186 0.000229521743823756 0.000251726347138276 0.000841397414410761
"305" 9.451431639928e-05 1.14580319451666e-05 0.000103900018720313 -4.84280414910699e-05 -7.50876738860174e-06 -0.000164094908419144 -0.000142806279553735 -0.000126456727113193 0.000380768704818568 7.74802193357777e-05 0.00014875113524199 0.000449903674783597 0.000990553525515759 0.000214006855429007 0.000228530394189577 0.000836391709819438
"306" 8.20274808615784e-05 4.79849328388441e-06 9.40905970060277e-05 -5.88231057981462e-05 -2.327666778638e-05 -0.000177762640254121 -0.000159823889985989 -0.000149535279978559 0.000356906560182158 5.78858684237703e-05 0.000129000909284326 0.000432034349088483 0.000985101660237044 0.00019701826082802 0.000203782284728922 0.000829979487847407
"307" 6.87615924624206e-05 -2.44861622942085e-06 8.3942810412583e-05 -6.97911949452945e-05 -3.93026225067116e-05 -0.000192284126233418 -0.000176966787342683 -0.000172798069099614 0.000331988182429932 3.76695056372726e-05 0.000108068655760917 0.000412875129189007 0.000977258179839247 0.000178731046199984 0.000177738514844539 0.000822186980278227
"308" 5.48233126805488e-05 -1.02114974652735e-05 7.35501223331687e-05 -8.12398484451862e-05 -5.54858303808064e-05 -0.000207551012788457 -0.000194119763206147 -0.000196066616352344 0.000306249969317582 1.70175428718334e-05 8.61917532339975e-05 0.000392607468667988 0.000967097888129162 0.000159336025797957 0.000150675191594638 0.000813050321338505
"309" 4.03272067090641e-05 -1.84241668641742e-05 6.30002886382936e-05 -9.30769999002948e-05 -7.17182151813917e-05 -0.000223449659649777 -0.000211172586357629 -0.000219164545703368 0.000279936796159924 -3.87552165095917e-06 6.360842891441e-05 0.000371433800787892 0.000954719637664411 0.000139024806610586 0.00012286572472976 0.000802616114785676
"310" 2.53940852048658e-05 -2.70131135868068e-05 5.23908726624803e-05 -0.000105201450555145 -8.78860614445789e-05 -0.000239851223952209 -0.000228009312418234 -0.000241913646772851 0.000253290457382686 -2.48228756392624e-05 4.05677904613563e-05 0.000349566271513528 0.000940261706920575 0.000117998144327885 9.45870469432109e-05 0.000790951438876138
"311" 1.01468966912207e-05 -3.59012972319812e-05 4.18101572934074e-05 -0.000117506504269648 -0.000103874848282913 -0.000256626007181674 -0.0002445178758388 -0.000264148175367213 0.000226552360845174 -4.56342495767588e-05 1.73145266916001e-05 0.000327220961250858 0.000923875666389873 9.64611233182592e-05 6.61238969232634e-05 0.000778130357170244
"312" -5.2809520114019e-06 -4.49991537925095e-05 3.1358220804241e-05 -0.000129886662507538 -0.000119570521009076 -0.000273629299400992 -0.000260588337114256 -0.000285699667454971 0.000199957379248243 -6.61272859820606e-05 -5.90651970303246e-06 0.000304627907036917 0.000905744058805423 7.46184501647455e-05 3.77493603082561e-05 0.000764237819498168
"313" -2.07557080915665e-05 -5.42284136638131e-05 2.11324236464714e-05 -0.000142231678141687 -0.000134856561060993 -0.000290718105350577 -0.000276113682093358 -0.00030640799670195 0.000173730164948864 -8.61270862631234e-05 -2.88508331590952e-05 0.000282009435996392 0.000886056052353028 5.26770062722014e-05 9.74074384988048e-06 0.000749365096638566
"314" -3.61360087448161e-05 -6.35000629161027e-05 1.12259647068854e-05 -0.000154429807151185 -0.000149611719989664 -0.000307738177963468 -0.000290986642737416 -0.000326121818135977 0.000148088680467591 -0.000105466238880096 -5.1287611837937e-05 0.00025958817009727 0.000865024085062625 3.08389605486206e-05 -1.76392602183733e-05 0.000733608274632231
"315" -5.12903933546588e-05 -7.27198465647441e-05 1.73251760325389e-06 -0.000166368125074494 -0.000163731090120774 -0.000324540420269356 -0.000305107911243321 -0.000344690961552585 0.000123236722116301 -0.000123986164364687 -7.29887015736123e-05 0.000237587895313295 0.000842860596451395 9.30681192816614e-06 -4.4137819758876e-05 0.000717071141547076
"316" -6.60733691714311e-05 -8.18061167732705e-05 -7.26268825500633e-06 -0.000177938479666352 -0.00017710311320508 -0.000340967192367428 -0.000318381469968785 -0.00036198275456746 9.93562343021706e-05 -0.000141545277999686 -9.37433072002576e-05 0.000216217602893225 0.000819781795552207 -1.17262128593368e-05 -6.95117043100351e-05 0.000699855775635223
"317" -8.03516077036088e-05 -9.06632219638353e-05 -1.56684779754786e-05 -0.000189032327317008 -0.000189623167996214 -0.000356865706007344 -0.000330723821744129 -0.00037786744018939 7.66218120747941e-05 -0.000158010171144744 -0.00011334882204751 0.000195676284493753 0.000795997805772303 -3.2078280710653e-05 -9.35347107879411e-05 0.000682062877041386
"318" -9.39927496964168e-05 -9.92077884355345e-05 -2.34125032525051e-05 -0.000199550505861885 -0.000201199409830687 -0.000372087993705162 -0.00034204961215181 -0.000392229821153046 5.51822851344574e-05 -0.000173268828846385 -0.000131619272512473 0.000176152026886069 0.000771715742966171 -5.15706257990992e-05 -0.000115999776498733 0.000663790944665863
"319" -0.000106868092236186 -0.000107351677076042 -3.04260958626067e-05 -0.000209393936434926 -0.000211744801098779 -0.000386484802506169 -0.000352290680567265 -0.000404961488633658 3.51699092484559e-05 -0.000187218890486765 -0.000148387843057277 0.000157806228850677 0.000747127863718136 -7.00397949940154e-05 -0.000136711720089763 0.000645130112037922
"320" -0.000118852801493716 -0.00011501560975585 -3.66400574558907e-05 -0.000218469134366129 -0.000221177992475849 -0.000399914448393123 -0.000361380935585305 -0.000415969291437933 1.66955884275325e-05 -0.000199776022249294 -0.000163503455235699 0.00014079184339689 0.00072241536711897 -8.73322442370857e-05 -0.000155501596708864 0.000626176514503239
"321" -0.000129839695833836 -0.000122126666198432 -4.20096871842748e-05 -0.000226700860820636 -0.000229439685710428 -0.000412247412230262 -0.000369272755844184 -0.000425175936516583 -1.50904881213004e-07 -0.000210879494241164 -0.000176834875051375 0.000125236435600746 0.000697733644228959 -0.000103311357176579 -0.00017221891386399 0.000607010162411986
"322" -0.000139713573535679 -0.000128602642326185 -4.64782768747006e-05 -0.000234005876993192 -0.000236468465341271 -0.000423351572718054 -0.00037591400471433 -0.000432504466139843 -1.53011557577836e-05 -0.000220477819952642 -0.000188269360646643 0.000111248299917536 0.00067323283079048 -0.000117846327735655 -0.000186733005769907 0.000587703562216112
"323" -0.000148385677510279 -0.000134386326935355 -5.00237096335155e-05 -0.000240323733962099 -0.000242217445661767 -0.000433115854685349 -0.000381281881923022 -0.000437905322742152 -2.87052053538582e-05 -0.000228537821006732 -0.000197712282494924 9.89081550171503e-05 0.000649030377872097 -0.000130828108197899 -0.000198941293494948 0.000568329256468572
"324" -0.000155765446128594 -0.00013941062272404 -5.26136027503885e-05 -0.0002455950818121 -0.000246654227566442 -0.000441428563173802 -0.000385347447624732 -0.000441330412099999 -4.03351209234217e-05 -0.000235044657907978 -0.000205093720098504 8.82813112398502e-05 0.000625232119158755 -0.000142161164832521 -0.000208753161472546 0.000548950509767976
"325" -0.000161780911171512 -0.00014362265513333 -5.42345013047764e-05 -0.000249771949462616 -0.000249755996097252 -0.000448195851069045 -0.000388098162825735 -0.000442753954876855 -5.01763162090965e-05 -0.00023999913255809 -0.000210362346305784 7.94069075667379e-05 0.000601923150996777 -0.000151760050060102 -0.000216107625201002 0.000529623856829401
"326" -0.000166366036752134 -0.000146975952476516 -5.48794789812016e-05 -0.000252819018070251 -0.00025150617073832 -0.000453331999960484 -0.000389531011934181 -0.000442158262632859 -5.82357212251028e-05 -0.000243413715391093 -0.000213480467416379 7.23044198713076e-05 0.00057917287341369 -0.000159558630355062 -0.000220957648348415 0.000510404395003711
"327" -0.000169469588362383 -0.000149430741330469 -5.45473143054585e-05 -0.000254702941244004 -0.000251899766538565 -0.000456761091152411 -0.000389651705765383 -0.000439541854532802 -6.45337447145758e-05 -0.000245318369743092 -0.000214437926041439 6.6971974439666e-05 0.000557031132522793 -0.000165507942842764 -0.000223282591041038 0.000491343048561363
"328" -0.00017105238727123 -0.000150950552719456 -5.3254263785263e-05 -0.000255406426098191 -0.000250942141009276 -0.000458424175391752 -0.000388471658097441 -0.000434914863741801 -6.9099773586162e-05 -0.000245746323002702 -0.000213233124350784 6.33937026652838e-05 0.000535547675480836 -0.000169560061679813 -0.000223072465370902 0.000472489316736349
"329" -0.000171083035438277 -0.000151509128084124 -5.10115883324373e-05 -0.000254915209388063 -0.000248641728344349 -0.000458265741154091 -0.000386011588868734 -0.000428295060556339 -7.19782520420757e-05 -0.000244750158224455 -0.000209889930550616 6.15358091975019e-05 0.000514758172371745 -0.000171694281356497 -0.000220347217617508 0.000453897804956937
"330" -0.000169540744872234 -0.000151086768232712 -4.78476003462271e-05 -0.000253224728407776 -0.000245018585129881 -0.000456247361075822 -0.000382298078783416 -0.000419723363899576 -7.32185059839483e-05 -0.000242384187114045 -0.000204438875984078 6.13514132504326e-05 0.000494691745067349 -0.000171894738467588 -0.000215129171970895 0.000435621928527723
"331" -0.00016642367338116 -0.000149671615367437 -4.37907217628905e-05 -0.000250341464899707 -0.000240094048676383 -0.000452341886005085 -0.000377366030961728 -0.000409245166390704 -7.28755148289565e-05 -0.000238713469313043 -0.000196932689246291 6.27819146752487e-05 0.000475384408249806 -0.000170161574742516 -0.000207464042730415 0.000417721600562244
"332" -0.000161734313569749 -0.000147253807741067 -3.88728521709475e-05 -0.000246273864662612 -0.000233895987278493 -0.000446529687042116 -0.000371246499215192 -0.00039691610198434 -7.10099765495587e-05 -0.000233806345211536 -0.000187430592081657 6.57594167657953e-05 0.000456872699074317 -0.000166501578133831 -0.000197409575177699 0.000400262392027393
"333" -0.000155486188434219 -0.000143835339503009 -3.3137004720609e-05 -0.000241039414706055 -0.000226455306720525 -0.000438804254061398 -0.00036398497836511 -0.000382810948527812 -6.76825717855844e-05 -0.000227732236703623 -0.000176010917294533 7.02071937081329e-05 0.000439197556688903 -0.00016093384455004 -0.000185036862996836 0.000383317837384589
"334" -0.000147702332007772 -0.000139420229465648 -2.66206299794794e-05 -0.00023465862625904 -0.000217803964215259 -0.000429171292542176 -0.000355624305460219 -0.000367005128305648 -6.29547231261505e-05 -0.000220566983588703 -0.000162756062565076 7.60507168295828e-05 0.000422412190322542 -0.000153489337621302 -0.000170426447895122 0.000366972218826616
"335" -0.000138423933059191 -0.000134026471126946 -1.93743844244893e-05 -0.000227163094002583 -0.000207980543890013 -0.000417644889647083 -0.000346212677560905 -0.000349595545107371 -5.68837184592394e-05 -0.00021238291754545 -0.000147758698999579 8.32032326482447e-05 0.000406584401755364 -0.000144205328676862 -0.000153665878919348 0.000351317083470435
"336" -0.000127693175820575 -0.000127672029433353 -1.14418434584977e-05 -0.000218584261777008 -0.000197024966735334 -0.000404250333325532 -0.000335800661524797 -0.000330679997144904 -4.95294838430885e-05 -0.000203255982030383 -0.000131126258798714 9.15815210578594e-05 0.000391792377977834 -0.000133131278534578 -0.000134859110318281 0.000336455200270223
"337" -0.000115568070852058 -0.000120382610157308 -2.87232491482349e-06 -0.000208966744913802 -0.00018497265243879 -0.000389027979713893 -0.00032444224396606 -0.000310373049149573 -4.09416757143341e-05 -0.000193255825548882 -0.000112965911566681 0.000101099866793239 0.000378123575464484 -0.000120320913317335 -0.000114113293925518 0.000322497010249857
"338" -0.000102112817004142 -0.000112191755624745 6.28037290496944e-06 -0.000198350399803903 -0.000171868030909377 -0.000372022934340343 -0.000312191370901151 -0.000288788741406166 -3.11714111869149e-05 -0.000182454725282229 -9.33967006679284e-05 0.000111678700553099 0.000365690008700654 -0.000105837048330513 -9.15446458085245e-05 0.000309563451812965
"339" -8.74018582281593e-05 -0.00010313939391592 1.59649579133084e-05 -0.000186786046803496 -0.000157755107871259 -0.000353295307204015 -0.000299102882679161 -0.000266057666656704 -2.02595165582573e-05 -0.000170922434702352 -7.25411818943643e-05 0.000123229973684014 0.00035460906825039 -8.97521963992979e-05 -6.7272152605124e-05 0.00029778172337637
"340" -7.15224272670005e-05 -9.32722257292823e-05 2.61237287286612e-05 -0.0001743335108483 -0.000142678947235018 -0.000332917354882346 -0.000285244364260028 -0.000242315743397984 -8.24960405745169e-06 -0.000158723006922545 -5.05254916800926e-05 0.000135675342834409 0.000345007154067776 -7.21461693965859e-05 -4.14269948373961e-05 0.000287287520986902
"341" -5.45670640330636e-05 -8.26389142278311e-05 3.67068881878403e-05 -0.000161047773105204 -0.00012668516245609 -0.000310964569880936 -0.00027066837127437 -0.000217706535811555 4.82490778375098e-06 -0.000145919766917027 -2.74840717277828e-05 0.000148933849226517 0.000337030961377718 -5.31026037668137e-05 -1.41447658606357e-05 0.000278213979293642
"342" -3.66417486335855e-05 -7.13011647490009e-05 4.765476008514e-05 -0.000146995889168991 -0.00010983008154783 -0.000287534904997086 -0.000255442698259042 -0.000192374917108248 1.89309470192943e-05 -0.000132574766259851 -3.55408499066319e-06 0.000162928716298577 0.000330818153911533 -3.27173446495902e-05 1.44390619856126e-05 0.000270703539832282
"343" -1.78577982670215e-05 -5.93233030823151e-05 5.89060773971807e-05 -0.000132248708464401 -9.21676137124416e-05 -0.000262730140584451 -0.000239638177254723 -0.000166477768691236 3.40346902916711e-05 -0.000118745266439261 2.11268393644083e-05 0.000177578648842118 0.000326516784354323 -1.10882442696297e-05 4.41715506959246e-05 0.000264889964630185
