"V1" "V2" "V4" "V5" "V7" "V8" "V10" "V11" "V13" "V14" "V15" "V17" "V18" "V20" "V21" "V23"
"1" -1.14532009035954e-05 -6.15855135511145e-06 -8.40709192038515e-06 2.42224310282528e-06 -6.17476170411454e-06 -1.54454203468441e-07 -1.8896177466663e-06 4.64483092941243e-06 -0.000169856173804687 6.36552040230104e-06 -5.79935026314166e-05 8.01695715214954e-06 -4.73231856556108e-05 -9.09570671830387e-06 -0.000149803113979154 -0.00022236984638827
"2" 4.58434503746255e-06 1.16109851900475e-05 -1.59837254054769e-05 1.68922936639159e-05 1.78319748024183e-05 1.55443730913162e-05 1.85733134109021e-05 1.75839765886023e-05 0.000887927328612877 -0.000241238769724531 -0.000480438767255658 -0.000134758955364369 -0.000898302119832451 -0.00112634089268668 0.000608100596493909 0.000385951773330425
"3" 2.00243619689695e-05 2.93714729696843e-05 -2.47844179990561e-05 3.15318178892208e-05 4.16624932143112e-05 3.08933273004458e-05 3.86687033538158e-05 3.08902010606369e-05 0.00196400720596481 -0.000519298992287915 -0.000904866875254405 -0.000280953772377545 -0.00176209975836837 -0.00214405010539126 0.00139686928512661 0.00104676164132479
"4" 3.47490566842413e-05 4.69652903619976e-05 -3.49282037910663e-05 4.62786719888049e-05 6.5157415801168e-05 4.5777337262935e-05 5.82448502620211e-05 4.45233111135261e-05 0.00305545387429973 -0.000831168833259518 -0.00132947372596713 -0.000430062682917585 -0.00263660439479019 -0.00306588430785288 0.00221304642001574 0.00176600824689312
"5" 4.86318991621725e-05 6.42498251560332e-05 -4.65314564552423e-05 6.10756143262773e-05 8.81508640284562e-05 6.00892093052997e-05 7.71373942531776e-05 5.84448317593866e-05 0.00415921075230719 -0.00118073780465182 -0.00175237141368316 -0.00058147944742448 -0.00351961447422732 -0.00389529791736262 0.00305245653328801 0.00255058613541354
"6" 6.15542960178202e-05 8.10628361762591e-05 -5.97179272885466e-05 7.58594776840151e-05 0.000110484028951923 7.37142827102395e-05 9.51938930581582e-05 7.26062167446771e-05 0.00527199830939109 -0.00157253204456766 -0.00217164450338124 -0.000734497927647205 -0.00440881534499498 -0.00463552829936932 0.00391006667252768 0.00340851827349853
"7" 7.33958432575041e-05 9.72723420186174e-05 -7.46022062010965e-05 9.0572202872458e-05 0.000131999428815891 8.6548361905963e-05 0.000112259697824226 8.69729820255215e-05 0.00639025284245072 -0.00201190238334095 -0.00258528852151808 -0.000888310319611922 -0.00530166142204466 -0.00528964427423951 0.00477995238407633 0.00434918057837501
"8" 8.40325553646787e-05 0.000112731914567576 -9.12996324293305e-05 0.000105155388694649 0.000152549296170721 9.84816228950109e-05 0.00012818676000864 0.00010150018991824 0.00751001777549953 -0.00250524053937909 -0.00299123534119205 -0.00104200359615551 -0.00619528214710806 -0.00586058176426689 0.00565521852407011 0.00538360733224703
"9" 9.33473505240174e-05 0.000127314057133549 -0.000109913991067678 0.000119549444271253 0.000171990014620131 0.000109418941689721 0.000142841201522642 0.000116152583515021 0.00862686039782022 -0.00306031294538304 -0.00338733497625971 -0.00119456526228114 -0.00708633718001302 -0.00635115460776729 0.00652797482667001 0.00652482797832098
"10" 0.00010122728792676 0.000140904258920248 -0.000130545345834232 0.000133697023921578 0.000190190848295453 0.000119262702692961 0.00015608247751202 0.000130888405594004 0.00973578326757411 -0.0036866906125022 -0.00377134159687076 -0.00134488786283436 -0.00797082922733036 -0.00676415399087456 0.00738936562710572 0.00778831646142903
"11" 0.000107565445964837 0.000153398156382529 -0.000153266359652877 0.000147544516595965 0.000207029039253539 0.000127925981595976 0.000167795151297121 0.000145670041568863 0.0108311576896692 -0.00439640169076384 -0.00414096039222498 -0.00149179015541911 -0.00884394469116646 -0.00710234113792492 0.00822960513449409 0.00919254702103248
"12" 0.000112266416693843 0.000164699913312824 -0.000178141566603878 0.000161034708174283 0.000222396294173295 0.000135332071580832 0.000177872796314232 0.000160456412482636 0.0119066831321879 -0.00520486946769246 -0.00449381161354368 -0.00163403362926931 -0.00969977181318695 -0.00736857159635079 0.0090381785217295 0.0107597356843615
"13" 0.000115242091837488 0.000174731686841232 -0.00020519630642934 0.000174111190538338 0.000236195807666062 0.000141413554492463 0.000186220535929777 0.000175201458174268 0.0129553697599311 -0.00613233467177519 -0.00482753057751099 -0.00177035131259199 -0.0105311296667994 -0.00756583382745177 0.00980402691128888 0.0125167483297165
"14" 0.000116433055021428 0.000183431627709418 -0.000234413075876676 0.000186720056169538 0.000248350737428355 0.000146122723280296 0.000192767580100687 0.000189850976975909 0.0139696045477867 -0.00720614928067338 -0.00513978523076402 -0.00189948684113793 -0.0113292972463012 -0.00769741979600417 0.0105159106495857 0.0144964175223099
"15" 0.000115798053821584 0.000190748008413331 -0.000265726469097168 0.000198796480176228 0.000258794275425923 0.000149423501853845 0.000197466682847261 0.000204344804800712 0.0149412743548193 -0.00846450536868848 -0.00542841136256906 -0.00202024386842686 -0.0120838808251214 -0.00776702995020422 0.0111628000610776 0.0167392648889248
"16" 0.000113332890159304 0.00019664570322842 -0.000298989942300199 0.000210278227827115 0.000267487164022556 0.000151309629590121 0.000200291915433988 0.000218600566766885 0.0158620241304416 -0.00996313084015579 -0.00569154730869188 -0.00213153637489443 -0.0127827920265753 -0.00777899369170228 0.0117343656255268 0.0192960922046824
"17" 0.000109083977797419 0.000201106803897313 -0.000333959097563349 0.000221094527976852 0.000274408028746274 0.000151802364796766 0.000201262508349548 0.000232518096522929 0.0167236036700934 -0.0117881610876125 -0.00592786953497314 -0.00223247375130462 -0.0134124444800371 -0.00773848595771743 0.0122214705874884 0.0222318511973472
"18" 0.000103149298536254 0.000204119283411778 -0.000370265087368033 0.000231156173407855 0.000279558820881963 0.000150958790752772 0.000200427302202981 0.000245965835517611 0.0175184282449086 -0.0140839030956293 -0.00613685729089871 -0.00232242071414994 -0.01395831639109 -0.00765183979272656 0.0126166889405517 0.0256318101533563
"19" 9.57060512797709e-05 0.000205680960631187 -0.000407383676839909 0.000240363091605582 0.00028296147267461 0.00014888174969137 0.000197887212128574 0.000258763599904726 0.0182402521775714 -0.0171232730684451 -0.00631913157709629 -0.00240110385718958 -0.0144059661397234 -0.00752683396371953 0.0129146957212821 0.0296120612441014
"20" 8.70176921407973e-05 0.000205800983239688 -0.000444602301204134 0.000248591695172838 0.000284674742691695 0.000145725036107047 0.000193798874972447 0.000270687641821558 0.0188849657535076 -0.0215383743532106 -0.00647682857675298 -0.00246867528749899 -0.0147425180318323 -0.00737301642276555 0.0131125876678487 0.0343386706977438
"21" 7.74434779991352e-05 0.000204488106086817 -0.000481006350849396 0.000255697689663902 0.000284780988705992 0.000141697520846576 0.000188377306478681 0.000281456151633816 0.0194513536964033 -0.0295649895807681 -0.00661386307544344 -0.00252578335518397 -0.014958519216214 -0.00720188927935357 0.0132100242646132 0.0400662231600831
"22" 6.74346223225753e-05 0.000201763858902802 -0.000515478072238745 0.000261513652848984 0.000283387234143174 0.00013706427725307 0.000181896200488364 0.000290734954164413 0.0199416461908447 -0.0434802095649868 -0.00673603698911131 -0.00257358929042473 -0.0150498566095634 -0.00702686580870624 0.0132092060542856 0.047225956892893
"23" 5.75270376497929e-05 0.000197647939039575 -0.000546747385591095 0.000265852593570615 0.000280628861621606 0.000132133425182554 0.000174674104367216 0.000298147106838122 0.0203615162923152 -0.0266311718347754 -0.00685071746774458 -0.00261369919117641 -0.0150191713107329 -0.00686279485487125 0.0131147185483145 0.056670335590692
"24" 4.82729638664069e-05 0.000192175658292247 -0.000573499710004755 0.000268535424021946 0.000276657641763684 0.00012723327401618 0.000167050197855494 0.000303307846597303 0.0207192997085817 -0.0214638034326367 -0.00696597457950971 -0.0026479984265003 -0.0148762428378576 -0.00672492333091229 0.0129332791590412 0.0706104443917845
"25" 4.01886418083974e-05 0.000185402319037727 -0.000594522192640794 0.000269402154977294 0.000271624938305926 0.000122666264939262 0.000159354026061305 0.000305873847893823 0.0210242959452553 -0.0187154188677401 -0.0070891462757971 -0.00267837917081689 -0.0146369043423248 -0.00662724435964535 0.0126734341926852 0.10046657770496
"26" 3.36546669289185e-05 0.000177409980703384 -0.000608918514706546 0.000268350759000964 0.000265680416515362 0.000118675218625802 0.000151853556154287 0.00030560924260933 0.0212845589343127 -0.0171762225464417 -0.00722508742246343 -0.00270639435116355 -0.0143207338973173 -0.00658052301683759 0.0123452157746969 0.0946399772327476
"27" 2.88444285895491e-05 0.000168328413900914 -0.0006162612350235 0.000265362759079115 0.000258953841650498 0.000115387600771344 0.000144719791812409 0.000302431312743649 0.0215047429512396 -0.0164533200679704 -0.00737462068342116 -0.00273296352538576 -0.0139480417079727 -0.00659061571554846 0.0119598159809161 0.0783053690188511
"28" 2.56879743503219e-05 0.000158321623867571 -0.000616677682879327 0.000260507583887178 0.000251542198507879 0.00011280492176357 0.000138001542368038 0.000296436536022122 0.0216850681782953 -0.0163897300469003 -0.00753393801162228 -0.00275821249232705 -0.0135372438877287 -0.00665761088860198 0.0115291641810048 0.0733052439122777
"29" 2.38948008730827e-05 0.000147602752382468 -0.000610814889749547 0.000253948983143743 0.00024352357241637 0.000110810499215605 0.000131647059377412 0.000287894072014095 0.021821736336176 -0.0169361083601099 -0.00769519047084035 -0.00278151643444846 -0.0131032615054347 -0.00677625618765056 0.0110654965869049 0.0730691013568167
"30" 2.30083110898142e-05 0.000136399662394003 -0.000599693640070321 0.000245909206221232 0.000234959195224979 0.000109200597871908 0.00012551544610782 0.000277193345127626 0.02190862900958 -0.0181256821427958 -0.00784807418881141 -0.00280173889530763 -0.0126572295738022 -0.00693740611102452 0.0105808460553463 0.0768367898657835
"31" 2.25003344514701e-05 0.00012496128609995 -0.000584515998278019 0.000236646266857733 0.000225897022076841 0.000107732365609054 0.000119440746438549 0.000264782504212845 0.0219395536289845 -0.0201062404128235 -0.00798181423718674 -0.00281753584077408 -0.0122070588761046 -0.007129980905961 0.0100866381756604 0.0866278609890992
"32" 2.18506509584299e-05 0.000113529254861867 -0.000566489242092777 0.000226426452627903 0.000216391885196835 0.000106166734581165 0.000113255958062027 0.000251115559744327 0.0219101175506851 -0.0232798236651839 -0.00808695096983654 -0.00282763489322981 -0.0117584039776428 -0.007342747837326 0.0095933183467454 0.122026463974455
"33" 2.06087534259346e-05 0.000102342034263079 -0.000546705986354281 0.000215498551626837 0.0002065108688008 0.000104298697724309 0.000106823906574143 0.000236612756057275 0.0218188493723716 -0.0289368969279626 -0.00815637913192204 -0.00283102417826605 -0.0113155183538916 -0.00756559444148495 0.00911018783991526 0.0914323907799631
"34" 1.84090753233882e-05 9.16063769468958e-05 -0.000526073944512957 0.000204091492645116 0.00019633005994588 0.00010196486013728 0.000100055231402659 0.000221636783803085 0.0216674647985925 -0.0483958783783137 -0.00818582719829369 -0.00282705332151914 -0.0108818815775496 -0.00779017798543753 0.00864529943434261 0.0728744113352744
"35" 1.49923336036547e-05 8.15256792061623e-05 -0.000505305585194981 0.000192403051971275 0.000185936474605716 9.90640639305533e-05 9.29093665589357e-05 0.000206488521698426 0.0214605537575192 -0.0313697190522441 -0.00817370924388804 -0.00281542474317564 -0.0104605280578323 -0.00801010128275265 0.00820550823746726 0.0625068128116915
"36" 1.01989035304199e-05 7.22691035159784e-05 -0.000484918480493069 0.00018060845627168 0.000175427859938771 9.5529893101289e-05 8.5385048263551e-05 0.000191406351277643 0.0212048825045165 -0.0238296300981677 -0.00812070928351567 -0.00279616816758499 -0.0100542301240061 -0.00822076591250911 0.00779653340940284 0.0552907911746912
"37" 3.9472173996744e-06 6.39897794438665e-05 -0.000465283148927624 0.000168858314847372 0.000164909011411793 9.13466888940572e-05 7.75178132753162e-05 0.000176580489814845 0.0209086790407529 -0.0196535572014585 -0.00802928624743108 -0.00276956567079117 -0.0096655621621241 -0.00841909433414887 0.00742307599464804 0.0497968006549215
"38" -3.77565882227144e-06 5.68174400560449e-05 -0.000446635864560685 0.000157283180108445 0.00015448673247741 8.65241263586775e-05 6.93780826109657e-05 0.000162160286805033 0.0205809420593251 -0.0167848411972099 -0.00790312223782942 -0.00273609311439261 -0.00929687564387412 -0.00860319514441439 0.00708893541161147 0.0454028413279996
"39" -1.29257013671269e-05 5.08656979016909e-05 -0.000429114577063858 0.000146002882536407 0.000144267648748561 8.11009710728589e-05 6.10501088766033e-05 0.000148260078187669 0.020230858299175 -0.0146268209912794 -0.00774668016908299 -0.00269635150356163 -0.00895030834648602 -0.00877208127984156 0.00679714905476421 0.0417769198019886
"40" -2.34175408958685e-05 4.6227406575973e-05 -0.00041278551252063 0.000135125778679072 0.000134358313888622 7.51340954750327e-05 5.26294342527038e-05 0.000134965004759918 0.0198673680426254 -0.0129206019673114 -0.00756484282661451 -0.00265102663915701 -0.00862777002991074 -0.00892537985556179 0.00655007871183186 0.0387187269624192
"41" -3.51252543069394e-05 4.29719717417758e-05 -0.000397664093117017 0.000124746153782133 0.000124856570661592 6.86881940157307e-05 4.42296570059698e-05 0.000122344468932594 0.0194988722234782 -0.0115294111100735 -0.00736263665320546 -0.00260084970760696 -0.0083309133909012 -0.0090631459401637 0.00634952337891719 0.0360970904369053
"42" -4.79089619622459e-05 4.11555632838073e-05 -0.000383724402718961 0.000114957829428082 0.000115855436458187 6.18440183834979e-05 3.59602098848451e-05 0.000110449374956871 0.0191329955997086 -0.0103717996916767 -0.00714504995814248 -0.00254655573821365 -0.00806115912264312 -0.00918567316088351 0.00619679241600052 0.0338209370451364
"43" -6.1599711422259e-05 4.081661417463e-05 -0.000370910698770552 0.000105844390742096 0.000107445285789279 5.46813499141898e-05 2.79313272631516e-05 9.93210499546532e-05 0.0187764046787531 -0.00939515249813791 -0.00691689053438182 -0.00248888015822449 -0.00781968135321897 -0.00929338268278176 0.00609277983296864 0.0318242053547082
"44" -7.60158671405928e-05 4.19688524165698e-05 -0.000359161747815279 9.74858770466173e-05 9.96934794142658e-05 4.72855148685362e-05 2.02593750163596e-05 8.89821241117161e-05 0.0184347714663794 -0.00856344322715627 -0.00668271712905103 -0.00242852970200122 -0.0076074254304935 -0.00938673634212532 0.00603802033824681 0.0300572948846907
"45" -9.09679671254071e-05 4.46137001688251e-05 -0.000348396810813161 8.99563614002846e-05 9.26712218563849e-05 3.97403193350105e-05 1.30432954136185e-05 7.94546386304013e-05 0.0181126670191012 -0.00785087738391372 -0.00644677405625809 -0.00236618245999696 -0.00742510124196542 -0.00946614895553714 0.00603272409756459 0.02848192320054
"46" -0.000106260616720275 4.87258325704593e-05 -0.000338532871239594 8.33228025692322e-05 8.64312246454818e-05 3.21309849385552e-05 6.38749895103713e-06 7.07510659405592e-05 0.0178135397687273 -0.0072383150491672 -0.00621298404488612 -0.00230248260354239 -0.00727318286846783 -0.00953196361490965 0.00607681298952504 0.0270678647077851
"47" -0.000121686781770585 5.42775911351937e-05 -0.000329483315959738 7.76520510473132e-05 8.10134682727429e-05 2.45381916585332e-05 3.78247965049153e-07 6.28764915261626e-05 0.0175397122349403 -0.00671116234490037 -0.00598489249865638 -0.00223802795156891 -0.00715192436860274 -0.0095844063967522 0.00616994670509325 0.0257907497946117
"48" -0.000137044314575324 6.12091203970151e-05 -0.000321160532779939 7.29992436959842e-05 7.64503688868315e-05 1.70393984609631e-05 -4.89825326506936e-06 5.58320554574338e-05 0.0172923997531882 -0.00625801135766461 -0.0057657088312014 -0.00217338316537413 -0.00706137117038064 -0.00962357843351708 0.00631153011526056 0.0246306361567386
"49" -0.000152127801258876 6.94461857433967e-05 -0.000313484123404893 6.94200358899546e-05 7.27574777587424e-05 9.71311520362045e-06 -9.36703503773971e-06 4.96054522343166e-05 0.0170717124773215 -0.00586975982218699 -0.00555825477350324 -0.00210906387893971 -0.00700135079062767 -0.00964943260312335 0.00650070983424571 0.0235709544840776
"50" -0.000166733242342534 7.8905881002134e-05 -0.000306371190326609 6.69593248460062e-05 6.99439031853612e-05 2.62467388455176e-06 -1.29665916364568e-05 4.4191103334301e-05 0.016876751726829 -0.00553902933151958 -0.00536498239890687 -0.00204555247817559 -0.0069714680456751 -0.00966180536912492 0.00673638992370076 0.022597748210298
"51" -0.000180665353891279 8.94843124598568e-05 -0.000299743070917065 6.56563523372885e-05 6.80025092439551e-05 -4.16158423767286e-06 -1.56438551668382e-05 3.95659422940417e-05 0.016705670086674 -0.00525975670660271 -0.00518796765982191 -0.00198328719416554 -0.00697112987215031 -0.00966041691991336 0.00701721179243317 0.0216991522316346
"52" -0.000193725295457586 0.000101061434634037 -0.00029352993492036 6.55434045619823e-05 6.6913925492547e-05 -1.05828322866315e-05 -1.73579517642666e-05 3.57107640650951e-05 0.0165557773722587 -0.00502687222622122 -0.0050289226503789 -0.00192267604570902 -0.00699954260195897 -0.00964487410003333 0.0073415301908522 0.0208649491041839
"53" -0.000205731771255781 0.000113506318934717 -0.000287665265171931 6.66423786645939e-05 6.66485102182005e-05 -1.65894544473368e-05 -1.80767230754029e-05 3.25944609631419e-05 0.0164236715979556 -0.00483610138144195 -0.00488918340067522 -0.00186408328390053 -0.00705570843228198 -0.00961471059734194 0.00770740175600752 0.0200862860640251
"54" -0.000216499934257754 0.000126678843817238 -0.000282081943789757 6.89712448170937e-05 6.71697750925052e-05 -2.21294401692521e-05 -1.77797279314476e-05 3.01891288351843e-05 0.0163053612029437 -0.00468380280876183 -0.00476973040430522 -0.00180784317511674 -0.00713842137472604 -0.00956941386557681 0.0081125488504612 0.01935543993684
"55" -0.000225859672214734 0.000140415638434467 -0.000276724832774605 7.25356333740935e-05 6.84224372923616e-05 -2.71617381425054e-05 -1.64600044117461e-05 2.84526545160532e-05 0.0161964379712371 -0.00456683060163579 -0.0046712030522629 -0.00175426282755639 -0.00724630449542434 -0.00950843382964399 0.00855432651341734 0.0186656233313497
"56" -0.000233657363105627 0.000154553961616894 -0.000271540469685824 7.73339451815817e-05 7.0348769069147e-05 -3.16540167713797e-05 -1.41156943918983e-05 2.73433392108958e-05 0.0160922301285155 -0.0044824569812023 -0.00459387346986662 -0.00170360353121931 -0.00737775925174659 -0.00943124928501803 0.00902970049271749 0.0180108723840233
"57" -0.000239743828624863 0.000168921342811874 -0.000266480736085446 8.33538480594653e-05 7.2879618454448e-05 -3.55706281442038e-05 -1.07607559872615e-05 2.68167193139171e-05 0.0159879529486927 -0.00442827366634993 -0.00453770359622808 -0.00165611004832369 -0.00753101029005791 -0.00933736240674751 0.0095351980213175 0.0173859165400874
"58" -0.000243985680224127 0.000183336701085135 -0.000261503895503964 9.05722397308435e-05 7.59391713180227e-05 -3.88892938534779e-05 -6.41746675003581e-06 2.68170394849427e-05 0.0158788910583704 -0.00440215754336966 -0.00450235649271384 -0.00161198400549811 -0.00770409079199754 -0.00922635788149005 0.0100668650794379 0.0167861212096542
"59" -0.000246262063456599 0.000197612783450915 -0.000256573638892524 9.89579027228739e-05 7.94399403204892e-05 -4.15909100635027e-05 -1.1209300601413e-06 2.72948693685852e-05 0.0157605030449705 -0.00440219645767974 -0.00448722883699864 -0.00157139760776878 -0.00789484868315864 -0.00909791963789416 0.0106202405852979 0.0162074059912523
"60" -0.000246472636679336 0.000211558600265098 -0.000251656176103319 0.000108469201938068 8.32979933912666e-05 -4.36648272472902e-05 5.08909324818331e-06 2.8184407084677e-05 0.0156285771356115 -0.00442665827542421 -0.00449146460163555 -0.00153449549243805 -0.00810093927549443 -0.00895185221263461 0.0111903189211242 0.0156462261093798
"61" -0.000244527425655162 0.000224985421361845 -0.000246726050021124 0.000119055280369921 8.74153600414653e-05 -4.51031086839372e-05 1.21612914261709e-05 2.94275312185106e-05 0.0154793510740584 -0.00447396032678908 -0.00451401857667006 -0.00150138518388535 -0.00831984057811369 -0.00878813128527984 0.011771516169928 0.0150995224825008
"62" -0.000240354434471841 0.000237702910448469 -0.000241760747818485 0.000130652398404675 9.16954368231702e-05 -4.59047349845366e-05 2.0035728813459e-05 3.09554952708162e-05 0.0153096016997359 -0.00454263411145511 -0.00455365635714106 -0.00147214362124596 -0.00854885549716201 -0.00860690219566638 0.0123576834930804 0.0145647034900038
"63" -0.000233905895347703 0.000249526214287071 -0.000236738529023994 0.00014318951952361 9.60373849311348e-05 -4.60709345732746e-05 2.86442921439541e-05 3.27039307525247e-05 0.0151167137080185 -0.00463127420571009 -0.0046090160639001 -0.00144681960224592 -0.00878512758345574 -0.00840849717552113 0.0129420879418958 0.0140396187344699
"64" -0.000225141542853884 0.0002602703540314 -0.000231654099471124 0.000156583261809726 0.000100339258668763 -4.56175829790243e-05 3.79146217675156e-05 3.46013558048894e-05 0.014898757717192 -0.00473853522951571 -0.00467862057059923 -0.00142542087072324 -0.00902562849341447 -0.00819346130284735 0.0135174706437049 0.0135225604613586
"65" -0.000214051366813042 0.000269764299855043 -0.000226498561817414 0.000170748673013795 0.000104501743130325 -4.45524765160576e-05 4.77657131921838e-05 3.65757822140184e-05 0.0146544861918239 -0.00486308248090838 -0.00476093525993794 -0.00140792817316035 -0.00926721399478796 -0.00796252895891491 0.0140760776237923 0.0130122260045953
"66" -0.000200640224098376 0.000277839279199228 -0.000221270237469856 0.000185583237720898 0.000108421277362579 -4.29029439741743e-05 5.81065523473494e-05 3.85572790698776e-05 0.0143833818922254 -0.00500360023645859 -0.00485436104213159 -0.00139428160035643 -0.00950660949501407 -0.00771665369907673 0.0146097927638109 0.0125077313035274
"67" -0.000184927331674534 0.000284349105841459 -0.000215974999700589 0.000200985500877464 0.000112002303550563 -4.06846352518508e-05 6.88533053490749e-05 4.04764941245173e-05 0.0140855980740475 -0.00515873537646069 -0.00495731238634616 -0.00138439944115102 -0.00974047834324993 -0.0074569915133068 0.0151102259476943 0.0120085894944202
"68" -0.000166962777110143 0.000289145422755963 -0.000210621620004416 0.000216842041705067 0.000115150268050143 -3.7934443757187e-05 7.99053615182541e-05 4.22587655027778e-05 0.0137619538732665 -0.00532707561207867 -0.00506817692190434 -0.00137815820835219 -0.00996544090820045 -0.00718488696275375 0.0155689178878605 0.0115146958346864
"69" -0.000146810204379257 0.00029211262934403 -0.000205228977894576 0.000233034906605266 0.000117776428457111 -3.46801050096184e-05 9.11692811802594e-05 4.38408569677927e-05 0.0134138610067901 -0.00550713340287322 -0.00518538095404589 -0.0013754070651741 -0.0101781273452381 -0.00690186313807933 0.0159775450665469 0.011026292939547
"70" -0.000124555189614362 0.000293138368093346 -0.000199821280915049 0.000249442736115227 0.000119798743038755 -3.09654445092722e-05 0.00010254109452074 4.5157332682467e-05 0.0130433094131655 -0.00569731520866435 -0.00530738034450386 -0.00137595890955082 -0.0103752487386396 -0.00660961537426502 0.016328162461746 0.0105439680253854
"71" -0.00010030217351865 0.000292142582986531 -0.00019441901836862 0.000265942948417341 0.000121137178048767 -2.68263127650184e-05 0.000113919056161918 4.61426182775741e-05 0.0126527302142383 -0.00589591790781419 -0.00543268202225597 -0.00137960210046751 -0.0105536327242834 -0.00630998661215319 0.0166134794323063 0.0100686146007835
"72" -7.41769242508907e-05 0.000289051338032485 -0.00018906415398869 0.000282405986158895 0.000121728317449356 -2.23098550265071e-05 0.000125208042083085 4.67450365665534e-05 0.0122449618804075 -0.00610107452124426 -0.00555985546104926 -0.00138609805102396 -0.0107103486778333 -0.00600492583102692 0.0168271116000957 0.00960138562007407
"73" -4.63238696127373e-05 0.000283828830941828 -0.000183787363949931 0.000298706953666308 0.000121510295212789 -1.746441335534e-05 0.000136301031363606 4.69099719866495e-05 0.0118231524333775 -0.00631078239436071 -0.00568751008718353 -0.00139517891996171 -0.0108427234799653 -0.00569650875607374 0.016963888257425 0.00914366549821095
"74" -1.69041794977315e-05 0.00027645051948845 -0.00017863676878937 0.00031471900490408 0.000120434591040363 -1.23416342193673e-05 0.000147102317313677 4.65940477348061e-05 0.0113906763779892 -0.00652286457893632 -0.00581433348725428 -0.00140655591798901 -0.0109484517652389 -0.00538687738957594 0.0170200612645283 0.00869701556445579
"75" 1.39056641027927e-05 0.000266918011557803 -0.000173655494121248 0.000330319354339095 0.000118464508261802 -6.99214290069677e-06 0.000157515333538038 4.57584498981087e-05 0.0109510834644897 -0.00673497484728655 -0.00593907023452336 -0.0014199147138579 -0.0110256643811647 -0.0050782481934979 0.0169934850779169 0.0082631373303272
"76" 4.59105659105736e-05 0.000255257839453753 -0.000168896459631223 0.000345386140316028 0.000115570949842789 -1.47245927611703e-06 0.000167450648317558 4.43696896588622e-05 0.0105079951424585 -0.00694460465733635 -0.00606053643302023 -0.00143493315192272 -0.0110729483292111 -0.00477286737691942 0.0168837453506826 0.00784381138421267
"77" 7.8902126868656e-05 0.000241521887365074 -0.000164404691146757 0.000359801103950055 0.00011173866094498 4.16206469373246e-06 0.00017681998477031 4.24062832614208e-05 0.0100650588610703 -0.00714908135028029 -0.00617759501647303 -0.00145127249928886 -0.0110894092323492 -0.00447301110365379 0.0166921640966878 0.00744084313431318
"78" 0.000112662887866585 0.000225783215703067 -0.000160237544153239 0.000373458015878232 0.000106967160703031 9.85696961423596e-06 0.000185545945465904 3.98493095146203e-05 0.00962590817851806 -0.00734561123790152 -0.00628918933484919 -0.00146858321150094 -0.0110746844583465 -0.00418096643991001 0.0164217693650044 0.00705603287549698
"79" 0.000146959157091021 0.000208136432294433 -0.000156443770631656 0.00038624794208345 0.000101259864562283 1.55539854762198e-05 0.000193549135987649 3.668933254055e-05 0.00919410195210395 -0.00753126829300395 -0.00639432824701699 -0.00148651100002759 -0.0110289397651722 -0.0038989970266699 0.0160771516005748 0.0066911216518154
"80" 0.000181553896315502 0.000188700313620954 -0.000153075997503152 0.0003980776736435 9.46399574266196e-05 2.11975254984245e-05 0.000200768157533772 3.29301870960978e-05 0.00877309847904874 -0.00770303840511386 -0.00649207386156309 -0.00150469870255354 -0.0109528348326087 -0.00362933378384639 0.0156642545376006 0.00634772684652519
"81" 0.00021620189909878 0.000167610399260471 -0.000150179722413178 0.000408856844800518 8.71414383353384e-05 2.67349258040904e-05 0.000207142887138532 2.85751373946698e-05 0.00836624749157 -0.00785786256443078 -0.00658158302742872 -0.00152280251974717 -0.0108475054166854 -0.00337416266254526 0.0151901195532223 0.00602733335824998
"82" 0.00025065879938054 0.000145027906025562 -0.000147798909082411 0.000418511538743873 7.88053077140623e-05 3.21154996252172e-05 0.00021262094349263 2.36391861229348e-05 0.00797675392555521 -0.0079927045650622 -0.00666206182270504 -0.00154047403726197 -0.0107144799461621 -0.00313560739106089 0.014662600155169 0.00573126649734957
"83" 0.000284670913195681 0.000121119494909124 -0.000145971192711844 0.000426966861217408 6.96903930890753e-05 3.72911660280311e-05 0.000217169481221338 1.81436246320172e-05 0.00760767264068971 -0.0081045798557417 -0.00673280595520421 -0.00155738421474555 -0.0105556204179029 -0.00291568957304259 0.0140900896879431 0.00546065085111666
"84" 0.000317995602039683 9.60747183184479e-05 -0.000144733619173507 0.000434167916534259 5.9859358243e-05 4.22149386074738e-05 0.000220755145306077 1.21179586673125e-05 0.0072619309571404 -0.00819062659704407 -0.00679318572485268 -0.00157321850262138 -0.0103730682539329 -0.00271633628951652 0.0134812183839922 0.00521641398580795
"85" 0.000350386304200639 7.00917192713232e-05 -0.000144108864617811 0.000440064674818652 4.93882111244139e-05 4.68457783484226e-05 0.000223356147114283 5.59327677116404e-06 0.00694228851443422 -0.00824819528914062 -0.00684266339776878 -0.00158767765884449 -0.0101691461731396 -0.00253933580731324 0.0128446059245426 0.00499926054602119
"86" 0.000381606892842028 4.33779909388938e-05 -0.000144115379419493 0.000444620211412396 3.83630284061274e-05 5.11487344787776e-05 0.000224961124520933 -1.38982686691846e-06 0.00665137254288386 -0.00827488134341456 -0.00688077686520689 -0.00160049011528717 -0.00994628832809178 -0.00238635166530417 0.0121886714161815 0.00480969995221209
"87" 0.000411426155849996 1.61437998854089e-05 -0.000144772600603236 0.000447809691705492 2.6873490173097e-05 5.50889042454597e-05 0.000225575869300839 -8.78620472551317e-06 0.00639166718437188 -0.00826861318009938 -0.00690716128629484 -0.00161140438299042 -0.00970699979201008 -0.00225886202494702 0.0115214233360624 0.00464802165835215
"88" 0.000439626438326265 -1.13838750124204e-05 -0.000146078314094698 0.000449614151787356 1.50191777053488e-05 5.86396014586006e-05 0.000225204352443599 -1.65508775663573e-05 0.00616549682503964 -0.00822771672464686 -0.00692153161874156 -0.00162019767729447 -0.00945376518547683 -0.00215817129469201 0.0108503430691269 0.0045143268304866
"89" 0.000466003462867679 -3.89919351964055e-05 -0.00014803092103606 0.000450032507320535 2.90515996580421e-06 6.1782415259591e-05 0.000223864881928548 -2.46285218747398e-05 0.00597506902493742 -0.00815092662486385 -0.00692371185571289 -0.00162667493208033 -0.00918903888631553 -0.00208535834263832 0.0101822824821022 0.00440852331300042
"90" 0.000490371273590538 -6.64579548791274e-05 -0.000150623392026835 0.00044907090494983 -9.36256406016278e-06 6.44972277758055e-05 0.000221589438726507 -3.29676572802412e-05 0.00582242978484308 -0.00803748297279338 -0.00691360518731607 -0.00163067248154665 -0.00891517484479 -0.00204128221622019 0.009523419994718 0.00433035937321685
"91" 0.000512553559181191 -9.35650556309403e-05 -0.000153831315518351 0.000446743813645079 -2.16707725810318e-05 6.67766696497873e-05 0.000218411280399745 -4.15123834058337e-05 0.00570947151599569 -0.0078871318850453 -0.00689121640354937 -0.00163205557940937 -0.00863441640488524 -0.0020265526514627 0.00887922758073129 0.00427943082876577
"92" 0.000532395876865429 -0.000120104732936911 -0.000157633132103913 0.000443082061203516 -3.39060233083682e-05 6.86134550975251e-05 0.000214378231125069 -5.02056137970629e-05 0.00563792964646358 -0.00770014036207282 -0.00685663947655439 -0.00163072216263227 -0.00834888185755867 -0.00204150712766596 0.00825447229010506 0.00425520004732834
"93" 0.000549774082290957 -0.000145865006675171 -0.000161995761754782 0.000438123671398423 -4.59533294908344e-05 7.0008793843326e-05 0.000209540376348084 -5.89871195500676e-05 0.00560934775488409 -0.00747731198384309 -0.00681005059078137 -0.00162660474659617 -0.00806053332364896 -0.00208622683792721 0.0076532380721997 0.00425700938921845
"94" 0.000564569578740061 -0.000170658934202183 -0.000166873919473296 0.000431914779480498 -5.76996692442067e-05 7.09691633819977e-05 0.000203957222892425 -6.77968949697202e-05 0.00562507736209193 -0.00721995054002368 -0.00675172550292574 -0.00161965989555804 -0.00777119248210085 -0.00216047396741842 0.00707892893825506 0.00428410113411374
"95" 0.000576699375287104 -0.000194301613155091 -0.000172230447378279 0.000424512412236904 -6.90384342710914e-05 7.15067393309781e-05 0.000197696491657031 -7.65785357973723e-05 0.00568624860934491 -0.00692984936613452 -0.00668201570669869 -0.00160987887827622 -0.00748254151478518 -0.00226374951464574 0.00653433404068283 0.00433563263877054
"96" 0.000586101076461802 -0.00021661940965994 -0.000178007960100557 0.00041598647515495 -7.98544537357024e-05 7.16373011630218e-05 0.000190823441746725 -8.52792514517061e-05 0.00579371723011404 -0.00660925083532793 -0.00660136528674975 -0.00159728466478212 -0.00719609984345969 -0.00239525928733042 0.00602166268571226 0.00441068746096234
"97" 0.000592733793509645 -0.000237454943228344 -0.000184151536066257 0.00040640722155735 -9.00475865100392e-05 7.13799631947288e-05 0.000183419165390632 -9.38355392364205e-05 0.0059480642329646 -0.00626079019768394 -0.00651027175443699 -0.00158193112582323 -0.00691325922064303 -0.00255391096532378 0.00554258614811603 0.00450827276788806
"98" 0.000596589572083952 -0.00025666356021269 -0.000190599685372989 0.000395858300058054 -9.95206446153517e-05 7.07653892101087e-05 0.000175556325432428 -0.000102197767733665 0.00614951862690465 -0.00588745951502035 -0.00640933646868804 -0.00156389397452824 -0.00663528921504461 -0.00273835715235387 0.00509828353332348 0.00462734607139475
"99" 0.000597678850517292 -0.000274123963486247 -0.000197292544748231 0.00038442988623872 -0.000108179368300065 6.9813651908115e-05 0.000167319478463146 -0.000110318056774552 0.00639795010868202 -0.00549253231163693 -0.00629921959103994 -0.00154328279726634 -0.00636333925110047 -0.00294697841554206 0.00468950202226714 0.00476681109819941
"100" 0.000596040027561737 -0.000289717143999086 -0.000204153621004411 0.000372216757513026 -0.000115939370968327 6.85632784482161e-05 0.000158791017979078 -0.000118139962744608 0.00669281152829917 -0.00507953360988392 -0.00618064381465858 -0.00152023091270377 -0.00609845055623325 -0.00317791394627012 0.00431657433879725 0.00492551155744989
"101" 0.000591735563550188 -0.000303354516793768 -0.000211119262052644 0.000359318582789818 -0.000122722855837524 6.70499027566429e-05 0.000150054143394605 -0.000125627188860485 0.00703309773338608 -0.00465215294585366 -0.00605440495673077 -0.00149489540662516 -0.0058415736004709 -0.00342908038109661 0.00397947674987221 0.00510224314469888
"102" 0.000584850318709428 -0.000314957320437549 -0.000218114554058781 0.000345844764758946 -0.00012846523295911 6.53090088981568e-05 0.000141193940756571 -0.000132731005703726 0.00741729049192551 -0.00421422498432287 -0.00592134930458675 -0.00146745924037505 -0.00559357231921616 -0.00369819490329984 0.00367786277220772 0.00529575290786605
"103" 0.000575494837149158 -0.000324464338096724 -0.000225062227776723 0.000331902560508157 -0.000133101935359264 6.33822319500923e-05 0.000132291111629573 -0.000139414321357486 0.00784331803255153 -0.00376966689123192 -0.00578238099619705 -0.00143812813512395 -0.00535522284398484 -0.00398280734890459 0.00341108744641084 0.00550473668515675
"104" 0.000563796908385104 -0.000331836772566208 -0.00023189250407121 0.000317604111960706 -0.000136589996058751 6.13090023439108e-05 0.000123430203691781 -0.000145643866188915 0.00830851723767612 -0.00332244177262204 -0.00563844894486001 -0.00140711871610859 -0.0051272540649111 -0.00428032168182034 0.00317823768959553 0.00572783423965407
"105" 0.000549914536283874 -0.000337050770942486 -0.000238523762096569 0.000303064466048427 -0.000138886802541622 5.91373323980109e-05 0.000114693276364793 -0.000151388516104233 0.00880959051066967 -0.00287650851682991 -0.0054905534426598 -0.00137467851526144 -0.00491031684045213 -0.00458802638709549 0.00297817734639108 0.00596363706014769
"106" 0.000534011755108431 -0.000340092202757922 -0.000244884972263512 0.000288399698229582 -0.000139966957143936 5.69044963466127e-05 0.000106153215465978 -0.000156624667241698 0.00934258862828942 -0.00243580536349949 -0.00533971323931479 -0.00134105907368253 -0.00470501872451297 -0.00490313451161671 0.00280955040445043 0.00621068812576174
"107" 0.000516275154355747 -0.000340973577510289 -0.00025089622850318 0.000273727221562486 -0.000139812491670737 5.46602573048133e-05 9.78853480068957e-05 -0.000161323609721422 0.00990288853413256 -0.00200419569498016 -0.00518698925985203 -0.00130653247713539 -0.00451191090083075 -0.00522279320601946 0.00267080069088086 0.00646746553388058
"108" 0.000496906781451158 -0.000339723353755582 -0.0002564863551113 0.000259157543279947 -0.00013841805361423 5.24435898033952e-05 8.99577577308307e-05 -0.000165472259058971 0.0104851796969787 -0.00158542851841588 -0.00503346487361366 -0.00127138051391185 -0.00433150018795581 -0.00554412070752613 0.00256020566814071 0.006732398658187
"109" 0.000476116098276776 -0.000336376352558201 -0.000261588006967997 0.000244809321808625 -0.000135790830742458 5.03018390605104e-05 8.24356815251246e-05 -0.000169053219756559 0.0110834628188382 -0.00118311687146742 -0.00488022180304946 -0.00123589996456507 -0.00416425938162738 -0.0058642263333697 0.00247588553586498 0.00700385367702133
"110" 0.000454126551631558 -0.000330989297873227 -0.000266122195393221 0.000230789401677351 -0.000131940875136075 4.82724000886665e-05 7.53773339426655e-05 -0.000172056487610359 0.0116910696084408 -0.000800718816086917 -0.00472835781571731 -0.00120038903858671 -0.00401060673333103 -0.00618027669202873 0.0024158164328211 0.00728014529690228
"111" 0.00043116940997107 -0.000323633222494712 -0.000270033168147658 0.000217207838345368 -0.000126899802198626 4.64012274806036e-05 6.88369176956359e-05 -0.000174474822597144 0.0123007274026697 -0.000441470241004916 -0.00457895485751337 -0.00116515592770365 -0.00387093178203324 -0.00648946640087338 0.00237784972670871 0.00755955090709831
"112" 0.000407476989536913 -0.00031438883677776 -0.00027325499070647 0.000204165000274279 -0.000120701535686936 4.47213384612606e-05 6.28561638795492e-05 -0.000176308115969157 0.0129046198048341 -0.000108388497112706 -0.00443306027665245 -0.00113050785211877 -0.00374556138198123 -0.00678909034908293 0.00235974520950455 0.0078402939213393
"113" 0.000383279919332131 -0.000303353402056817 -0.000275731544166749 0.000191760277344227 -0.000113396540041155 4.32711650801807e-05 5.74794909546004e-05 -0.000177551680701045 0.0134944842206666 0.00019578419321421 -0.00429168418480478 -0.0010967499388243 -0.00363478242217979 -0.00707653832702749 0.00235916439735315 0.00812057392634383
"114" 0.000358821824844908 -0.000290631489367736 -0.000277414035727668 0.000180084014443749 -0.000105040400753043 4.20854331660371e-05 5.27360269136517e-05 -0.000178212861453246 0.0140617655921389 0.000468595745165162 -0.00415579464303296 -0.00106419106033159 -0.00353883342046691 -0.00734933311135107 0.00237369157711293 0.00839856918656037
"115" 0.00033432577281745 -0.000276338266423037 -0.000278253289850563 0.000169222755083574 -9.56955004248676e-05 4.11918193079349e-05 4.86504440313924e-05 -0.000178296793827572 0.0145978001511681 0.00070789789561521 -0.00402627100027012 -0.00103312300480203 -0.00345787900216024 -0.00760516273885061 0.0024008873800001 0.00867245061108384
"116" 0.000310025345901326 -0.000260602255529358 -0.000278216744078484 0.000159253599831786 -8.54395985309468e-05 4.06205522635835e-05 4.52438397564983e-05 -0.000177809208747233 0.0150939925045156 0.000911898089628848 -0.00390392974233572 -0.00100383706607537 -0.00339204221592671 -0.00784188587692397 0.00243826132006434 0.00894040299371869
"117" 0.000286133227852933 -0.00024355649723447 -0.000277272214057116 0.000150244655740947 -7.4353344660842e-05 4.03910780045261e-05 4.25214658512025e-05 -0.000176767246976239 0.0155420595751174 0.00107916555435819 -0.00378946712874427 -0.000976605327149935 -0.00334136319095898 -0.00805756095721801 0.00248332067307899 0.00920061462035211
"118" 0.000262863049828817 -0.000225338866295557 -0.000275396680002 0.000142262017292303 -6.25246324062128e-05 4.05232712571335e-05 4.04866474754537e-05 -0.000175176615060466 0.0159342849971102 0.00120863572591457 -0.00368348166292694 -0.000951682961027594 -0.00330582398223888 -0.00825047506411131 0.00253359832240839 0.00945133327457065
"119" 0.000240412490405517 -0.000206098973915674 -0.000272579489499478 0.000135353509548299 -5.00474135138295e-05 4.10350457645268e-05 3.91341802015427e-05 -0.000173060133544968 0.0162637695443308 0.0012996306849461 -0.00358644026948962 -0.000929306369499218 -0.00328532435727866 -0.00841915319610232 0.00258666239393606 0.00969086387166312
"120" 0.000218956373975873 -0.000185984304761402 -0.000268813822378184 0.000129566475102859 -3.7024033021166e-05 4.19344488058766e-05 3.84499594071155e-05 -0.000170433623014034 0.016524664953949 0.00135186386314746 -0.00349867460178211 -0.000909688461268859 -0.00327968611246607 -0.00856238366167473 0.00264014926038257 0.00991760265830893
"121" 0.000198670487890601 -0.000165146757020064 -0.000264102379723674 0.000124932760655853 -2.35585467949385e-05 4.32251678515793e-05 3.84124655342611e-05 -0.000167314377439226 0.016712387382353 0.00136543534433857 -0.0034203916822748 -0.000893018781460294 -0.00328864966879596 -0.00867922504194756 0.00269180041809398 0.0101300451772908
"122" 0.000179701422344208 -0.000143741935606619 -0.000258463086079438 0.000121479582158861 -9.75348691216386e-06 4.49121332678876e-05 3.89919331927287e-05 -0.000163719005087566 0.0168237720128556 0.00134082037817529 -0.0033516547206095 -0.000879454475501613 -0.00331187941810534 -0.00876902712217599 0.00273946120133536 0.0103268249374244
"123" 0.000162184328894132 -0.000121924380905727 -0.000251919955624144 0.000119218036739341 4.27706467601369e-06 4.69905616208885e-05 4.01540452635641e-05 -0.00015967760403708 0.0168572082415664 0.00127886191824199 -0.00329238756221247 -0.000869124845634 -0.00334894764525086 -0.00883142791661902 0.00278114932824677 0.0105067361884985
"124" 0.00014622729605671 -9.98465307372808e-05 -0.000244505784316801 0.000118156190755984 1.84246446485299e-05 4.94538431227529e-05 4.18592165861874e-05 -0.00015520230932175 0.0168126485082684 0.00118074342482071 -0.00324238725936142 -0.000862126699641279 -0.00339934352944438 -0.00886636005195034 0.00281504873649617 0.0106687204686273
"125" 0.000131931289791111 -7.76615378464117e-05 -0.000236260118284645 0.000118286781633269 3.25753006819468e-05 5.22863692794388e-05 4.40593223128762e-05 -0.000150323554321369 0.0166915967697468 0.00104797444638054 -0.00320131832455901 -0.000858519390011244 -0.00346248038006987 -0.00887405754046095 0.00283954686108144 0.0108119196431302
"126" 0.000119364198193816 -5.55133181996704e-05 -0.000227238702954249 0.00011959799065939 4.66238422053837e-05 5.54744578228753e-05 4.67011947349673e-05 -0.000145061663879174 0.0164969845062758 0.000882353422403105 -0.00316873265031718 -0.000858332708774734 -0.0035376934580834 -0.00885503575972837 0.00285325949157272 0.0109356543213286
"127" 0.000108586435337444 -3.35493251807178e-05 -0.000217498875882721 0.000122064069418799 6.04583377180856e-05 5.89947283655052e-05 4.97265901186741e-05 -0.00013943918242574 0.0162330148812402 0.000685937278601746 -0.00314407742516217 -0.000861560947657179 -0.003624256878261 -0.00881010731537261 0.00285504587248461 0.0110394764898252
"128" 9.96250155037823e-05 -1.18999656256556e-05 -0.000207108006830252 0.00012565090262997 7.39771466528688e-05 6.28239131638023e-05 5.30764770694997e-05 -0.000133483724929084 0.0159049673086678 0.000461010692081548 -0.00312669184381341 -0.000868156305693628 -0.00372138313327013 -0.00874034055633503 0.00284402291243267 0.0111231062239908
"129" 9.24964350807992e-05 9.29725188845419e-06 -0.000196146039777805 0.000130316064348544 8.70778277085331e-05 6.6932667199012e-05 5.66894661878742e-05 -0.00012721758882681 0.0155189387599975 0.000210053830554623 -0.00311586433422965 -0.00087803964770334 -0.00382823812019983 -0.00864705433643717 0.00281959200315996 0.0111864880302504
"130" 8.71960494010461e-05 2.99308967564832e-05 -0.000184687817052113 0.000136013625564065 9.96644558471371e-05 7.12892492358246e-05 6.0493905595278e-05 -0.000120668562516787 0.0150816216817134 -6.43072878324869e-05 -0.00311079834052522 -0.000891095810260186 -0.00394392429193181 -0.00853180610758833 0.0027814309610525 0.0112297495782775
"131" 8.36952811853936e-05 4.98844395171328e-05 -0.000172818556327126 0.000142679987172777 0.00011164600153791 7.58614400892021e-05 6.44256100746589e-05 -0.000113859142081225 0.0146000750283495 -0.000359307271256524 -0.00311067751636802 -0.000907181657287057 -0.00406753876089062 -0.00839633297223734 0.00272950286420194 0.0112532001880074
"132" 8.19566143687736e-05 6.90561791185489e-05 -0.000160638672289269 0.00015025373416747 0.000122941692016887 8.06114373226462e-05 6.84186194333042e-05 -0.000106814608074089 0.0140814883904858 -0.000672087144815397 -0.00311465715720011 -0.000926113872283491 -0.00419813675153936 -0.00824257122766246 0.00266405453116032 0.0112573279132151
"133" 8.19177279890917e-05 8.73597824741074e-05 -0.000148233027491286 0.000158661289402185 0.000133474030832251 8.55010976364987e-05 7.23991805837652e-05 -9.95626635957045e-05 0.0135330104747089 -0.000999730299969401 -0.00312188558087935 -0.000947682015284522 -0.00433475987436943 -0.0080725991395338 0.00258561278885784 0.0112427628427237
"134" 8.35014032294145e-05 0.000104714086199663 -0.000135704068741533 0.000167823592516444 0.00014317711488833 9.04908390125444e-05 7.63049080157389e-05 -9.2128080816612e-05 0.0129615950301714 -0.00133927169095659 -0.00313152820236985 -0.000971651747986083 -0.00447643441672395 -0.00788861159542651 0.00249496554774616 0.0112102823116627
"135" 8.6620530971968e-05 0.000121056173732356 -0.000123149035581178 0.000177659794347675 0.000151992190555228 9.55385372287612e-05 8.00695445205007e-05 -8.45309099883408e-05 0.0123738914768392 -0.00168774186742191 -0.00314277829111093 -0.000997756505302558 -0.00462219320367067 -0.00769289644175822 0.00239314808548728 0.0111607627045268
"136" 9.11671020341586e-05 0.000136328952555847 -0.000110668801387461 0.000188082713509553 0.000159866846255313 0.00010060171802773 8.36315728517784e-05 -7.68028684635753e-05 0.0117761416576178 -0.00204216591466924 -0.003154874001774 -0.00102571230337408 -0.00477106835905707 -0.00748778391900075 0.00228140554021423 0.0110951671384117
"137" 9.70313895587669e-05 0.0001504953433105 -9.83609037309886e-05 0.000199003147305096 0.000166764725541588 0.000105642420639159 8.69298834250758e-05 -6.89607943445651e-05 0.0111741411703727 -0.00239960905203147 -0.00316709582867176 -0.00105520988308182 -0.00492211092422381 -0.00727564136351844 0.00216118567430262 0.0110145352205899
"138" 0.000104080671522453 0.000163523059791896 -8.63208563459738e-05 0.000210326166940201 0.000172655540918661 0.000110618155998166 8.99129031413094e-05 -6.10334670730964e-05 0.0105732052970964 -0.0027571765752541 -0.00317879322549093 -0.00108592940373103 -0.00507438362583467 -0.00705883801171357 0.00203409261698845 0.0109199543576981
"139" 0.000112187227425933 0.000175406248711238 -7.46459858332786e-05 0.000221963565612483 0.000177520492428416 0.000115488051407226 9.25302468779689e-05 -5.30393206523619e-05 0.00997813922808949 -0.0031120286058675 -0.00318939416625112 -0.00111753373149568 -0.00522697442566827 -0.00683970772394646 0.001901868251401 0.0108125282701992
"140" 0.000121205322452356 0.000186134001877893 -6.34284680443881e-05 0.000233815456475895 0.000181348701050299 0.000120213163512242 9.47357341828421e-05 -4.50010353700577e-05 0.00939329266146583 -0.00346138682206599 -0.00319840244021594 -0.0011496729724674 -0.00537898801233759 -0.00662052079692122 0.00176634250488463 0.0106933787772858
"141" 0.000130991004694175 0.000195723492651075 -5.27521146708036e-05 0.000245795772711685 0.000184143192485471 0.00012476002611684 9.64951324187605e-05 -3.69375202576011e-05 0.00882253923959917 -0.003802564684317 -0.00320541974984527 -0.00118199478299984 -0.0055295492062943 -0.0064034679935774 0.0016294230148228 0.0105636187050601
"142" 0.00014138964143095 0.000204194306718976 -4.27011713389117e-05 0.00025781083267526 0.000185915698847668 0.000129091423752851 9.77728606876972e-05 -2.88708421971223e-05 0.00826933473746537 -0.00413295258383556 -0.00321012836266042 -0.00121414244437149 -0.00567780238952963 -0.00619063329083862 0.00149305038606692 0.0104243616109989
"143" 0.000152250738208239 0.000211581692196452 -3.33494136583619e-05 0.000269770703937276 0.000186687470976783 0.000133175455256695 9.85458108058222e-05 -2.08146198359749e-05 0.00773672375358975 -0.00445003602036119 -0.00321232457583245 -0.00124575583935018 -0.00582292198083612 -0.00598395457889548 0.00135915536975557 0.0102766728043147
"144" 0.000163425547113409 0.000217929228969096 -2.47728012385567e-05 0.00028159204056762 0.000186492375606602 0.000136986295850293 9.87957858504676e-05 -1.27847786912075e-05 0.00722738563568239 -0.00475140020189988 -0.00321189852266082 -0.00127648368718099 -0.00596410980695231 -0.0057852207122755 0.00122964071025276 0.0101215956078385
"145" 0.000174759507101299 0.000223291058704157 -1.70245468320643e-05 0.000293194356498256 0.000185366257311572 0.000140499243133303 9.8514173130637e-05 -4.79841075560847e-06 0.00674366507079154 -0.00503475035490207 -0.00320883072595335 -0.00130597874058086 -0.00610058182642321 -0.00559603946390424 0.00110635138315281 0.00996012880383797
"146" 0.000186109735542459 0.000227732119732314 -1.01618588425201e-05 0.000304503285760921 0.000183364686725479 0.000143693141098556 9.76976440808851e-05 3.13458661301943e-06 0.00628761310180905 -0.00529790801747847 -0.0032031989699968 -0.00133390333550641 -0.00623159249743758 -0.00541783423531382 0.000991043401617022 0.00979322616051825
"147" 0.000197326563148774 0.00023131762283021 -4.23525791114241e-06 0.000315447591945246 0.000180540058540741 0.000146551010751247 9.63498595517795e-05 1.10012735153959e-05 0.00586099859960572 -0.00553881549455745 -0.00319517698888326 -0.0013599329782722 -0.00635642113069743 -0.00525181773402734 0.000885359825104066 0.00962180248916099
"148" 0.000208281551857011 0.000234123381219778 7.22536224252486e-07 0.00032596496250004 0.000176957715652313 0.000149057551205708 9.44822553519932e-05 1.87895756790354e-05 0.00546535787276174 -0.00575555934980383 -0.00318500823268777 -0.00138376523235661 -0.00647437484540131 -0.0050989781187329 0.000790811685672719 0.00944670521317238
"149" 0.00021884194567282 0.000236231684371152 4.68333184412811e-06 0.000336001314718999 0.000172689877562497 0.000151209076038071 9.21190911921072e-05 2.6496978458121e-05 0.0051020178326979 -0.00594637508185166 -0.0031730288687164 -0.00140510928332254 -0.00658481386102949 -0.00496008044832353 0.000708755824069154 0.00926875456805695
"150" 0.000228892075166108 0.000237729530481606 7.62996317357998e-06 0.000345505416843011 0.000167815698945413 0.000153003006437322 8.92819539357822e-05 3.41122820469109e-05 0.00477208582638354 -0.00610966550002996 -0.00315962265835681 -0.00142370452282696 -0.00668712390049857 -0.00483566546698461 0.000640387562485716 0.0090887248184125
"151" 0.000238324565979363 0.000238698730354413 9.55210244760415e-06 0.000354437778488745 0.000162412168755176 0.000154438391039224 8.60075261112461e-05 4.16265311568104e-05 0.00447649539744172 -0.00624400421006657 -0.00314524303428396 -0.00143930704841772 -0.00678073640674529 -0.00472602951230034 0.000586719376980874 0.00890735770230404
"152" 0.000247041935368155 0.000239228635758308 1.04535455602755e-05 0.000362765309056521 0.000156571258804726 0.000155522386959034 8.23361180084879e-05 4.90389981775723e-05 0.00421599884548333 -0.00634815412612063 -0.0031303729270945 -0.00145170806900624 -0.00686513101136866 -0.00463123537559342 0.00054858175017456 0.00872535987209718
"153" 0.00025496449889235 0.000239410054182002 1.03421852429326e-05 0.000370463454401538 0.000150377125954814 0.000156270948972365 7.83114263924506e-05 5.63470028982073e-05 0.00399118410275402 -0.0064210836148347 -0.00311553904925509 -0.00146073183565571 -0.00693984360558874 -0.00455113751398748 0.000526600638839982 0.00854341600441116
"154" 0.000262021683876383 0.000239328267949011 9.24070838263753e-06 0.00037751634371403 0.000143924183863689 0.00015669807570643 7.39873129231903e-05 6.35443141669573e-05 0.00380246427214912 -0.00646198009968867 -0.00310126833789769 -0.00146622629313697 -0.00700445890304124 -0.00448536136821785 0.000521214924608891 0.00836218580553963
"155" 0.000268163272288121 0.000239063006156657 7.18088565995573e-06 0.000383912711430186 0.000137306064600562 0.000156823850262565 6.94208410197953e-05 7.06292790597763e-05 0.00365007925020523 -0.00647026084627235 -0.00308810197468065 -0.00146808046512686 -0.00705863632221106 -0.00443332867689571 0.000532655061519654 0.00818230632162761
"156" 0.000273342081151933 0.000238701232337095 4.20185690626051e-06 0.000389654897441697 0.000130610666293852 0.000156676840389244 6.46693949016248e-05 7.75971808857029e-05 0.00353410578563169 -0.00644561045074565 -0.00307655166511865 -0.00146621552506868 -0.00710209694607505 -0.00439428420601835 0.000560965779163222 0.00800440879417591
"157" 0.000277540685476962 0.000238316682762146 3.54303771718087e-07 0.000394749178254134 0.000123934788604671 0.000156289070684052 5.98044442567238e-05 8.44496572293096e-05 0.00345442458757352 -0.00638796040436922 -0.00306711566271384 -0.00146059430129375 -0.00713463522652287 -0.00436727628719114 0.000605977886885422 0.00782908966811819
"158" 0.000280745119907479 0.000237980131708544 -4.30537988442655e-06 0.000399208505944675 0.000117364942271002 0.000155690435358456 5.48857784913242e-05 9.11842775548422e-05 0.00341072690081375 -0.00629753571707603 -0.0030602322765117 -0.0014512135539956 -0.00715611124167254 -0.00435121863601335 0.000667354623957309 0.00765695591491829
"159" 0.000282966186546198 0.000237756631466416 -9.71170091547061e-06 0.000403054739464505 0.000110992259064045 0.000154925482024922 4.99855746193135e-05 9.77944846578262e-05 0.00340248837983606 -0.00617484315796045 -0.00305629676436502 -0.00143811172924906 -0.00716646884114305 -0.00434487460364203 0.000744566675215915 0.00748858491029673
"160" 0.000284220398283332 0.000237706239205165 -1.57906151879455e-05 0.000406315987671089 0.000104898783009025 0.000154033686052433 4.51752748531726e-05 0.000104282875439475 0.00342896064472399 -0.00602069770753936 -0.00305563669138578 -0.00142136634802561 -0.00716572609818906 -0.00434690467497431 0.000836930815095845 0.0073245596019499
"161" 0.000284546050704584 0.000237879789386891 -2.2466911014593e-05 0.00040902401838824 9.91648400060321e-05 0.000153059495785854 4.05233144170854e-05 0.000110644391168426 0.0034891373664723 -0.00583619872877043 -0.00305850674097724 -0.0014010928607783 -0.00715397576305212 -0.00435586064500008 0.000943584440465058 0.00716543573673934
"162" 0.000283991194226597 0.000238319453159015 -2.96502644515524e-05 0.000411215957652832 9.38663351692006e-05 0.0001520514218624 3.61016409404666e-05 0.000116876164194738 0.00358174945682964 -0.00562275287310836 -0.00306508009829489 -0.00137744046365887 -0.00713139867794169 -0.00437023252212784 0.00106353381796537 0.00701176136550264
"163" 0.000282614901844973 0.000239065952459009 -3.72520034309898e-05 0.000412938122301875 8.90755197044371e-05 0.000151060015863565 3.19799785457882e-05 0.00012297943446379 0.00370524488298187 -0.00538206736679146 -0.00307545181154029 -0.00135060623141434 -0.00709822861200998 -0.00438846299504802 0.00119563996369703 0.00686406006796823
"164" 0.000280492925314581 0.000240143969766627 -4.5182102274296e-05 0.000414235672481667 8.48522200598164e-05 0.00015013319477369 2.82242881230722e-05 0.000128943739341941 0.00385775967692414 -0.00511612992898062 -0.00308963744831405 -0.00132081248278947 -0.00705478197008695 -0.00440895315651937 0.00133864754625917 0.00672283264784957
"165" 0.000277710563589549 0.000241575839846402 -5.3342551660925e-05 0.000415158589415345 8.12536620504124e-05 0.000149326563057513 2.4899849267552e-05 0.000134766491483924 0.00403709841335192 -0.00482720377851549 -0.00310758506862117 -0.00128832482194212 -0.0070014567206879 -0.00443008859597806 0.00149119234395208 0.00658853379861793
"166" 0.000274354310052908 0.000243374116396142 -6.16308871940798e-05 0.000415759930920459 7.83309062001936e-05 0.000148689335350437 2.20651169754395e-05 0.000140443508292666 0.00424072940971063 -0.00451781976981575 -0.0031291598475406 -0.00125343619578301 -0.00693868985511807 -0.00445027275153472 0.00165182541894786 0.00646158440831496
"167" 0.000270530833763534 0.000245539714269641 -6.9955357756225e-05 0.000416091177194766 7.612780608044e-05 0.000148270902326352 1.97775159523754e-05 0.000145969515637635 0.00446576089564982 -0.00419072901853583 -0.00315418116377686 -0.00121646823906094 -0.00686699709759055 -0.00446792161432494 0.00181902338904592 0.00634235435463965
"168" 0.000266342130275214 0.000248074395483362 -7.82178120758088e-05 0.000416211811989727 7.46741524206269e-05 0.000148128219320903 1.80865023325165e-05 0.000151336608072239 0.00470893845559334 -0.00384889484679476 -0.00318242769797085 -0.00117777429553368 -0.006786943977006 -0.00448149952843697 0.00199119676443239 0.00623114896918461
"169" 0.000261901591147388 0.000250965496543226 -8.63167634369362e-05 0.000416173847179046 7.39985329537649e-05 0.000148303428683424 1.70370006149282e-05 0.000156543114315778 0.00496665262134836 -0.00349545893574558 -0.00321362882434634 -0.00113773085385892 -0.00669913472769031 -0.00448954155118363 0.00216672506081516 0.00612821599726941
"170" 0.000257321830059235 0.000254198201191243 -9.41623240120485e-05 0.000416032143220255 7.41159238826943e-05 0.000148845792980868 1.66646953635771e-05 0.000161573105741227 0.00523495168938039 -0.00313370111661262 -0.00324751167302199 -0.00109673052791147 -0.00660421823630849 -0.00449064736797015 0.00234395804898563 0.00603372966218333
"171" 0.000252715459279985 0.000257744053186694 -0.000101665398690222 0.000415842766873038 7.50395991238678e-05 0.000149797996240281 1.7004516700835e-05 0.000166431457870509 0.00550956240612289 -0.00276700356204942 -0.00328379712148545 -0.00105518885388908 -0.00650288612235887 -0.00448351457648852 0.00252124139046749 0.00594777514334277
"172" 0.000248197423426513 0.000261578662372036 -0.000108739129562575 0.000415655996558488 7.67681983720305e-05 0.000151196855738757 1.80776945294737e-05 0.00017110366599766 0.00578592296305034 -0.00239882008977962 -0.00332220212885499 -0.00101353217831403 -0.00639583577379093 -0.00446695619363985 0.00269693414808299 0.00587034912930419
"173" 0.000243881868758795 0.000265664184481109 -0.000115308418698576 0.000415520668578809 7.92910064595289e-05 0.000153080157840059 1.98991563004373e-05 0.000175583666982722 0.00605924012457626 -0.00203262053263975 -0.00336246845085246 -0.000972188800158778 -0.0062838009699405 -0.00443991368633694 0.00286943282711718 0.0058013580552078
"174" 0.000239875860313118 0.000269966413585103 -0.000121297224965676 0.000415484570105565 8.25957359296294e-05 0.000155478429427736 2.24786562913712e-05 0.000179863580555875 0.00632455315771974 -0.00167186980145236 -0.00340435028682763 -0.000931599687657983 -0.0061675205800372 -0.00440147041318313 0.00303717024884068 0.0057406048495962
"175" 0.000236280482837011 0.000274436922743762 -0.000126642349109117 0.000415587461126387 8.66570473821181e-05 0.000158415475036243 2.58135767100962e-05 0.000183942520036879 0.00657680808883875 -0.0013199557130953 -0.00344764898538587 -0.000892198460854532 -0.0060477282677126 -0.00435086057453029 0.00319865627951073 0.00568779353355186
"176" 0.000233191088560255 0.000279034903989414 -0.00013128546853787 0.000415871135864185 9.14432354098976e-05 0.000161911221033434 2.98935092559281e-05 0.000187807187104423 0.00681096216699478 -0.000980170548893944 -0.00349218782921393 -0.000854418302854195 -0.00592515644502772 -0.00428749821523664 0.00335246415039705 0.00564252683090423
"177" 0.000230698070444951 0.000283709143180977 -0.000135175925427982 0.000416366518386352 9.69167331634036e-05 0.000165980836682729 3.47024884052306e-05 0.000191457280893611 0.00702208805729251 -0.000655657431375258 -0.00353783145370223 -0.000818674365114913 -0.00580053979403445 -0.00421097614684847 0.00349727021605571 0.00560430220949725
"178" 0.000228879242169066 0.000288409614587731 -0.00013827816537293 0.000417103111716736 0.00010303067705966 0.000170630117463857 4.02121071863837e-05 0.000194880790283543 0.00720549463911614 -0.000349383253336487 -0.00358446946624822 -0.000785373611620718 -0.0056745785252372 -0.00412109277813772 0.00363186340020654 0.00557253095215299
"179" 0.000227807783988001 0.000293083710113561 -0.000140559340395344 0.000418104281457715 0.00010973456121609 0.000175861512098634 4.63906029892103e-05 0.000198076644025699 0.00735685836007059 -6.40903574512035e-05 -0.00363203650835258 -0.0007548934917481 -0.00554798176463952 -0.00401784391191338 0.00375513954881722 0.005546521160797
"180" 0.000227533645259095 0.000297679896138106 -0.000142000769364325 0.000419389227309323 0.000116967493267279 0.000181665513317536 5.31925560013499e-05 0.000201040181526855 0.00747233230315334 0.000197735747123451 -0.00368047712759063 -0.000727595632311207 -0.00542140265200161 -0.00390145362314378 0.00386614029760814 0.00552550086131883
"181" 0.000228110246889119 0.000302151324514194 -0.000142585808774975 0.000420967604461451 0.000124670925272912 0.000188033595471448 6.05671949945449e-05 0.00020376522505159 0.00754866633430937 0.000433884807386741 -0.00372975560787895 -0.000703802061865951 -0.00529548438021151 -0.00377234983313713 0.00396404514220339 0.00550862245476239
"182" 0.000229570041528235 0.000306439911735232 -0.000142311559360674 0.000422845094641591 0.000132774324589869 0.000194942929019534 6.84611510261858e-05 0.000206245618483878 0.00758332534503937 0.000642457464766698 -0.00377986343867668 -0.000683806608595182 -0.00517082623957155 -0.00363118009101612 0.00404817431517069 0.00549498193533186
"183" 0.000231935313674495 0.000310502592469926 -0.000141185531769458 0.0004250207758653 0.000141208019760764 0.000202371680916506 7.6809155903381e-05 0.000208479335186744 0.00757454260952646 0.000821885728324393 -0.00383077455605061 -0.000667861892504575 -0.00504798678058355 -0.00347881021710748 0.00411800773286866 0.005483615050322
"184" 0.000235215797101755 0.00031429042819605 -0.000139220998062382 0.000427488830442193 0.000149898128303054 0.000210287227238614 8.55424875621209e-05 0.000210465272452824 0.00752139503152714 0.000970943236204547 -0.00388247886293086 -0.000656186591423663 -0.00492749427106195 -0.0033163106574718 0.00417317248471628 0.00547352177968982
"185" 0.000239408169617207 0.000317758026778504 -0.000136440560992339 0.000430236327914136 0.000158767237532949 0.000218647688968032 9.45843646000543e-05 0.000212198532097223 0.00742382779094815 0.00108876490687002 -0.00393495740138426 -0.000648946916661829 -0.00480981502620834 -0.00314494286624075 0.00421346424149526 0.00546366508823624
"186" 0.000244495465874818 0.000320866798198753 -0.000132871720554419 0.000433243609352426 0.000167738441865924 0.000227412614980833 0.000103858105688386 0.000213679497771176 0.00728263948182809 0.00117484114755798 -0.00398818910030016 -0.000646273149486378 -0.00469538513231658 -0.00296615387504119 0.00423882808727234 0.00545300514837241
"187" 0.000250454052450831 0.000323579120912611 -0.000128555228974025 0.000436485909834941 0.000176731513460778 0.000236532206195408 0.000113279176008322 0.000214902559983509 0.00709946061466655 0.00122901616765031 -0.00404212164949932 -0.000648236815133756 -0.00458458502028502 -0.00278155606087878 0.00424936879220506 0.00544049444947665
"188" 0.000257238968069183 0.000325859436830825 -0.000123528197239463 0.000439934180702891 0.000185669842984551 0.000245948225163309 0.000122765490139876 0.000215867500567113 0.0068766642598619 0.00125148029782696 -0.00409671277158956 -0.000654871394927612 -0.00447773453650453 -0.0025928894824999 0.0042453387052336 0.00542510534093445
"189" 0.000264805739386245 0.000327685774508885 -0.000117844898347322 0.00044355069539495 0.000194475680831304 0.000255603783624147 0.000132231757049083 0.000216575650020531 0.00661731585822645 0.00124276597419092 -0.00415187700730584 -0.000666152544201265 -0.00437512053479739 -0.00240201836706428 0.00422712685006602 0.00540583681914612
"190" 0.000273091968451365 0.000329027775569803 -0.000111555400097863 0.000447297202788317 0.000203072917984796 0.000265436587202059 0.000141586271578097 0.000217026922129655 0.00632504809404406 0.00120371939416858 -0.00420753383658238 -0.000682013445257249 -0.00427696755712221 -0.00221087328159521 0.00419525443491245 0.00538172698927653
"191" 0.000282026357857455 0.000329874788216523 -0.000104717276946938 0.000451126708290639 0.000211385749219926 0.000275377288370738 0.000150745918835775 0.000217219801492964 0.00600394845840557 0.00113548398393665 -0.00426356663746095 -0.00070233314098532 -0.00418343562776814 -0.00202146892695538 0.00415037890727462 0.00535186836634941
"192" 0.000291529486326783 0.000330207655172671 -9.73939236951939e-05 0.000454990602722146 0.000219346541274955 0.000285359066384074 0.000159620433474622 0.000217160257553091 0.00565844771555724 0.00103948860764106 -0.00431984283315495 -0.000726946055299374 -0.00409465508576766 -0.00183580924569796 0.00409325163834933 0.00531541194326964
"193" 0.000301515457384003 0.00033002455964536 -8.96506748196217e-05 0.000458839576355256 0.000226886200483727 0.000295305228816664 0.000168127739402571 0.000216847760149854 0.00529318462866988 0.000917392316541056 -0.00437621386744545 -0.000755639373613668 -0.00401066075519116 -0.00165591211252208 0.00402474268904229 0.00527158945977097
"194" 0.000311888086785647 0.000329320018798694 -8.15541926488199e-05 0.00046261562044723 0.000233938888227149 0.000305146120258784 0.000176188175892847 0.000216285983608084 0.00491291665598714 0.000771090111360818 -0.00443251774409801 -0.000788152572093861 -0.00393145461697388 -0.00148373440430589 0.00394578541701352 0.00521970247397086
"195" 0.00032254719247785 0.000328099288250872 -7.31713541087052e-05 0.00046626349176685 0.000240452828781018 0.00031480353985299 0.000183721693553059 0.000215476403361089 0.00452240546761344 0.000602656426567803 -0.00448856986257475 -0.00082419067060594 -0.00385696971026412 -0.00132116926044328 0.00385740368101315 0.00515914224479562
"196" 0.000333387617546088 0.000326372914872902 -6.45789689754735e-05 0.000469726486943789 0.00024637051278923 0.000324207781010586 0.000190656952345321 0.000214430109821605 0.00412633484615411 0.00041433374225735 -0.00454417154759231 -0.00086340978869448 -0.00378709361962805 -0.00116999236923482 0.0037606633581739 0.00508939020122593
"197" 0.000344302718608373 0.000324152039937882 -5.58443622504589e-05 0.000472944147798776 0.000251646032657456 0.000333279473430761 0.000196923210875317 0.00021315141677259 0.00372922239093329 0.000208492773894329 -0.00459910443245453 -0.000905441863578379 -0.00372163982759558 -0.00103183816080637 0.00365667709640059 0.00501001549350189
"198" 0.000355179502739489 0.000321462289949161 -4.70392046504252e-05 0.000475857662431252 0.0002562395172362 0.000341946812527648 0.000202456791617255 0.000211645429944081 0.00333538208074596 -1.23953144374042e-05 -0.00465312835385153 -0.000949873631732719 -0.00366038261245223 -0.000908197798686405 0.00354657867354185 0.00492069820812325
"199" 0.000365909804816542 0.000318324647609518 -3.8236445121745e-05 0.000478412659402836 0.000260113958789081 0.000350136759557007 0.000207208547048371 0.000209925555391495 0.00294884651342516 -0.000245781811949581 -0.00470598676502536 -0.000996274580846055 -0.0036030425080971 -0.000800351169965638 0.00343150175639161 0.00482119250599017
"200" 0.000376376000737428 0.000314764971677014 -2.95119100342929e-05 0.000480550351523674 0.000263244448904419 0.000357781284297136 0.00021112205993845 0.000207999278567931 0.00257335376140697 -0.000489068501096657 -0.00475741091378141 -0.0010441829571823 -0.00354929029254405 -0.000709384167407122 0.00331258151563959 0.00471136045142802
"201" 0.000386471489673225 0.000310820251867703 -2.09324906053811e-05 0.000482219558432949 0.000265608088529688 0.000364813115565596 0.000214162202372603 0.000205876657829162 0.00221232221301579 -0.000739628780598165 -0.00480710030103075 -0.00109311534133112 -0.0034987571663238 -0.000636142295471728 0.00319092669430718 0.00459114030438818
"202" 0.000396081942504325 0.000306520991728015 -1.25692127323434e-05 0.000483368967882821 0.000267190236992105 0.000371166530288678 0.000216291904153002 0.000203573425641703 0.00186882894873454 -0.000994828510899123 -0.00485473955001481 -0.00114257657013857 -0.00345103562308201 -0.000581232471742481 0.00306761460195173 0.00446056833879088
"203" 0.000405106832026941 0.000301911933780634 -4.48950377226018e-06 0.000483953652176527 0.000267984018693951 0.000376788261824037 0.00021748437007076 0.000201105556138954 0.00154558925618816 -0.00125206227006928 -0.00489998330465784 -0.00119205806833703 -0.00340567854038031 -0.000545024536535148 0.00294366383890148 0.00431975877983232
"204" 0.000413446604105334 0.0002970308327293 3.23781065189787e-06 0.000483928481671099 0.00026798775452924 0.000381621173464586 0.000217725231938673 0.000198486571338241 0.0012449849386609 -0.00150874929137885 -0.00494247534974989 -0.00124104509802855 -0.00336221366811574 -0.000527628014185989 0.0028200349851969 0.00416891556466086
"205" 0.000421000900947503 0.000291921779507569 1.05531813711912e-05 0.000483258168414757 0.000267208092034689 0.000385614503550143 0.00021700465405979 0.000195730551175924 0.000969043739123788 -0.00176236411846111 -0.00498182968659356 -0.00128901944439312 -0.00332015335603458 -0.000528907183657941 0.00269759939245011 0.00400831114906763
"206" 0.000427681836171322 0.0002866323364038 1.7393538506874e-05 0.00048191179307398 0.000265660903396971 0.000388731587890097 0.000215320518476771 0.000192858375968522 0.000719452328720451 -0.00201044877997237 -0.00501764290916021 -0.0013354617929375 -0.00327899118033841 -0.000548476235413443 0.00257714280772036 0.00383828926115704
"207" 0.000433409049912292 0.000281202201124765 2.37002863711502e-05 0.000479863032562517 0.000263359640940209 0.000390926667165147 0.000212681652905855 0.000189888071616123 0.000497582836250428 -0.00225063948526052 -0.0050494921587795 -0.00137986830273194 -0.00323822213115782 -0.00058571487537908 0.00245935233623949 0.00365927304424458
"208" 0.000438110303812655 0.000275680736738986 2.94221468117403e-05 0.00047709063159538 0.000260330950985711 0.00039217813152268 0.000209106501254628 0.00018683769787475 0.000304488235631552 -0.00248066130316629 -0.00507693618605659 -0.00142173888035057 -0.00319734413420485 -0.000639777947728624 0.00234480206838443 0.00347174587014844
"209" 0.000441718379713928 0.000270111616460561 3.45079751368973e-05 0.000473584481840257 0.000256607086698098 0.000392455788907928 0.000204619075778058 0.000183730733517108 0.000140915572778281 -0.00269836552081664 -0.00509950560752768 -0.00146059714702699 -0.003155874811841 -0.000709624005921213 0.00223395422000902 0.00327625759687738
"210" 0.000444179053217017 0.000264540924324613 3.8910775256397e-05 0.000469336390496208 0.000252222865155805 0.000391746048563582 0.00019924827964122 0.000180582308635402 7.33165296754325e-06 -0.0029017294333427 -0.00511673126777225 -0.00149598071975167 -0.00311334154242593 -0.000794016164292136 0.00212715135219582 0.00307342522516886
"211" 0.000445451434043408 0.000259012989630044 4.25939546098736e-05 0.000464347389901538 0.000247218188742062 0.000390038457426654 0.000193036730985331 0.000177415682774456 -9.60717209725343e-05 -0.00308886803909667 -0.00512812297592056 -0.00152745826908605 -0.00306931357904396 -0.000891556008364224 0.00202462298627367 0.00286392010557294
"212" 0.000445495832135315 0.000253567469498053 4.55216505634066e-05 0.000458628185834212 0.000241638129939962 0.000387334955055013 0.000186032803144335 0.000174251570326691 -0.00016937107531008 -0.00325806954831515 -0.00513319435123554 -0.00155462764506341 -0.00302339429252524 -0.00100070349514119 0.00192646906163644 0.00264846833620636
"213" 0.000444295350765203 0.00024824362675157 4.76647762024143e-05 0.000452190403660696 0.000235534269743669 0.000383638429726611 0.000178286058814998 0.000171109647640662 -0.000212865318529958 -0.00340778955254119 -0.00513146571834422 -0.00157711807281735 -0.00297524622771366 -0.00111980729731959 0.00183268567286654 0.0024278664143602
"214" 0.000441832567331463 0.000243080200633458 4.90004869205228e-05 0.000445054912708103 0.000228954138766813 0.000378962329277336 0.000169855527673 0.000168009097203335 -0.00022709059290123 -0.00353667887945715 -0.00512246288651908 -0.00159460307935187 -0.00292457276263202 -0.00124714840263273 0.00174316388796904 0.00220296685005234
"215" 0.000438108447450943 0.000238114678085671 4.95153349044492e-05 0.000437253545102773 0.000221957685921356 0.000373329353297432 0.000160810243307999 0.000164971607805919 -0.000212792124491729 -0.00364358180743681 -0.00510573841004701 -0.00160679285220013 -0.00287115666895124 -0.00138093616935661 0.0016576756825093 0.00197468071263125
"216" 0.000433135090872498 0.000233372895430468 4.92010342499175e-05 0.000428818668151458 0.000214598332449673 0.000366767892036561 0.000151217941481231 0.000162011426130109 -0.000170910549932979 -0.00372756210785171 -0.00508088035788602 -0.00161345106042979 -0.00281484451384159 -0.00151935774195316 0.00157592328610568 0.00174398080219411
"217" 0.000426931940584444 0.000228891424598361 4.80621230347384e-05 0.000419793059071681 0.000206938887701579 0.000359316711998676 0.000141152418506795 0.000159145798182965 -0.000102556183682258 -0.00378791310540289 -0.00504749526314899 -0.00161438734978959 -0.00275556542374065 -0.00166060977124297 0.00149751433438184 0.00151189559160379
"218" 0.000419533080629599 0.000224692239685436 4.61008214277117e-05 0.000410221315719894 0.000199040348357539 0.000351015320017257 0.000130692270603439 0.000156392602903237 -9.02512532622413e-06 -0.00382416833023649 -0.00500526456546984 -0.00160945904677667 -0.00269332413955028 -0.00180289966498209 0.00142200212153502 0.00127951496077331
"219" 0.000410981025449469 0.000220799676716245 4.33398282872663e-05 0.000400155169610403 0.000190962208586268 0.000341918576555198 0.00011992075040155 0.00015376970580621 0.000108259991310266 -0.00383609899898951 -0.00495391082428525 -0.00159858075198372 -0.00262822206211838 -0.00194449564017179 0.001348880722857 0.00104797945327703
"220" 0.000401327481321762 0.000217229127989798 3.98024033600534e-05 0.000389652355183779 0.000182769468792917 0.000332081509887025 0.000108917418731575 0.000151281098941943 0.00024770903183919 -0.00382375106750284 -0.00489324255131647 -0.00158172590875222 -0.0025604257569416 -0.00208374461132275 0.00127761887301986 0.000818479978908905
"221" 0.000390633814848731 0.000214004187722977 3.5522733219467e-05 0.00037877172347446 0.000174518465866551 0.00032156816432299 9.77688072958397e-05 0.000148942844437096 0.000407615511074497 -0.00378741256113559 -0.00482313114308554 -0.00155892100857041 -0.00249020407887685 -0.00221906772425453 0.00120765104301642 0.000592249417754879
"222" 0.000378970271893439 0.000211138012011962 3.05477805563606e-05 0.000367579675046677 0.000166276532125619 0.00031044836907412 8.65590860645107e-05 0.000146765722515111 0.00058615257650354 -0.00372764076711272 -0.00474352538029852 -0.00153025010340662 -0.00241788541942209 -0.00234900682114704 0.0011384280201273 0.000370554710194535
"223" 0.000366414277007177 0.000208637728514067 2.49256124451788e-05 0.000356141357986549 0.000158103374845655 0.000298793850216006 7.53739433212621e-05 0.000144754427445894 0.00078138100532537 -0.00364524955420013 -0.00465447395607192 -0.00149585968999116 -0.00234388719503606 -0.00247222154060183 0.00106939839271366 0.000154697660393358
"224" 0.000353049895174818 0.000206518310388378 1.87175678529769e-05 0.000344530056467927 0.000150053573964989 0.000286686136845112 6.42999975649935e-05 0.000142916137541043 0.000991273002759002 -0.00354129837647223 -0.00455609713745771 -0.00145594564465414 -0.00226868831839191 -0.00258750378642729 0.0010000429024388 -5.40123497874954e-05
"225" 0.000338967046498774 0.000204781943531189 1.19918274444471e-05 0.000332813036544166 0.000142185554286519 0.000274206467635404 5.34166884299905e-05 0.000141255888311666 0.00121370125562255 -0.0034170907775574 -0.00444862045244987 -0.00141075681918581 -0.00219282287773702 -0.00269377813233046 0.000929881005701264 -0.000254260552674772
"226" 0.000324258230737585 0.000203433833932961 4.81960005253094e-06 0.000321067806590225 0.000134551380004815 0.000261438753460848 4.28064026138663e-05 0.000139773769256444 0.00144646374357462 -0.00327416418517315 -0.00433234916854137 -0.0013605995514673 -0.00211686508761236 -0.00279013029561895 0.000858484979511711 -0.000444736843793269
"227" 0.000309022520919327 0.000202477501323992 -2.71927511962848e-06 0.000309365808077439 0.000127205404328865 0.000248469506120487 3.2544496709434e-05 0.000138474523046136 0.00168727870690787 -0.0031142646380981 -0.00420767275327509 -0.00130582624767947 -0.00204143050699753 -0.00287577513216009 0.000785486378093262 -0.000624172174521925
"228" 0.000293360022499364 0.000201912464633581 -1.05409330889457e-05 0.000297779053357315 0.000120192327288496 0.000235388827818266 2.27053426525015e-05 0.000137352802568071 0.0019338023100313 -0.00293932731423536 -0.00407506346441796 -0.00124682518897985 -0.00196714271363702 -0.00295007837065699 0.000710588963591413 -0.000791330885600364
"229" 0.000277369117262118 0.000201741243242445 -1.855316478144e-05 0.000286385024238892 0.000113558308378916 0.000222286394224783 1.33551823977319e-05 0.000136411386236303 0.00218363732974129 -0.00275145524578023 -0.00393504766498622 -0.00118403327220899 -0.00189463804533645 -0.00301255458176661 0.000633570296799427 -0.000945033420490742
"230" 0.000261147234893061 0.000201958042818971 -2.66684795240451e-05 0.000275252921587026 0.000107340593965287 0.000209247975988863 4.55738808177201e-06 0.000135642671337501 0.00243433495577009 -0.00255288256657429 -0.00378822246989497 -0.0011179200195651 -0.00182453069126777 -0.00306286090724229 0.000554294606156854 -0.00108419437017562
"231" 0.00024479413139899 0.000202562885511697 -3.47882667648956e-05 0.000264453995841372 0.00010157926111763 0.000196361384841467 -3.63018597714475e-06 0.00013504403710358 0.00268341870715011 -0.00234595342422857 -0.00363522742940045 -0.00104897787978583 -0.0017574122728354 -0.00310078374491205 0.000472714167724844 -0.00120782018320417
"232" 0.000228406841927733 0.000203550637183165 -4.28282361796158e-05 0.000254056355087342 9.63028720793893e-05 0.00018371102605142 -1.11557969343764e-05 0.000134613843015339 0.00292840287141294 -0.00213307818108306 -0.00347675258411027 -0.000977728651303505 -0.0016938485949728 -0.00312623577430743 0.000388849725198525 -0.00131503177739248
"233" 0.000212077164960153 0.000204918782532546 -5.06860473879499e-05 0.000244127233794432 9.15391748302708e-05 0.000171377636928576 -1.79820665576284e-05 0.000134341257482618 0.00316681373594541 -0.00191671497225994 -0.00331349523146406 -0.000904711157838922 -0.00163433381927645 -0.00313926820719679 0.000302826643121262 -0.00140507168821664
"234" 0.000195889114323974 0.000206661587311451 -5.82749106013564e-05 0.000234728648228238 8.73096862114567e-05 0.000159440861178656 -2.40692369521417e-05 0.000134221343882696 0.00339621260306764 -0.00169931867340141 -0.00314617443853565 -0.000830467443707883 -0.00157930811991936 -0.00314003443486077 0.000214858629682923 -0.00147733109166178
"235" 0.000179926093882642 0.000208773224351813 -6.55047910610657e-05 0.000225918677444925 8.36338333963071e-05 0.000147970932643977 -2.93928728103441e-05 0.000134246116463284 0.00361421612718052 -0.00148331993597325 -0.00297551548451037 -0.000755547929683552 -0.00152913627149725 -0.00312879176310605 0.000125227231302458 -0.00153134306558643
"236" 0.000164264261412684 0.000211248470042534 -7.22912535565618e-05 0.000217754062029944 8.05220235633492e-05 0.000137037267028226 -3.39309909177893e-05 0.000134406479177985 0.00381854077586008 -0.0012710841768334 -0.00280224650370461 -0.000680507030066413 -0.001484108275872 -0.00310589493856241 3.43039323455987e-05 -0.00156680513305811
"237" 0.000148974284263625 0.000214083339014717 -7.85538479499287e-05 0.00021028244235659 7.79832358544239e-05 0.000126701112020532 -3.76727998107207e-05 0.000134695449320843 0.0040070153305373 -0.00106487408875099 -0.00262706986908224 -0.0006058877202746 -0.00144441399061812 -0.00307178745717482 -5.74619092057938e-05 -0.00158357510528582
"238" 0.000134116720343716 0.000217271483078175 -8.42123714552583e-05 0.000203551877129625 7.60204428734467e-05 0.000117016211871522 -4.06142289478405e-05 0.000135099638099193 0.00417764023606827 -0.000866813515537911 -0.00245067178882327 -0.000532212642360703 -0.00141016452660035 -0.00302699168886565 -0.000149562484679476 -0.0015816717590496
"239" 0.000119745680690079 0.000220805066472262 -8.92054844770951e-05 0.000197599635942176 7.46275733275765e-05 0.000108031250883452 -4.27625998863196e-05 0.000135610981152737 0.00432860157359428 -0.000678870844638556 -0.00227371042053444 -0.000459992030493432 -0.00138136719010647 -0.00297208412888431 -0.000241418056856418 -0.00156128816439456
"240" 0.000105909404699903 0.000224681966624835 -9.34617275554346e-05 0.000192461974706671 7.38036367197241e-05 9.97892707134958e-05 -4.41331767353738e-05 0.000136218128835714 0.00445831662580138 -0.000502819799940043 -0.00209681285721486 -0.000389711153280807 -0.00135794103541905 -0.00290769808960044 -0.000332409050170651 -0.001522783748097
"241" 9.26471624158825e-05 0.000228889390578473 -9.69312150270376e-05 0.000188166959698824 7.35302991126627e-05 9.23210657306704e-05 -4.47427914066145e-05 0.000136908086404595 0.00456546926884468 -0.000340216829619884 -0.00192057095765877 -0.000321822129425298 -0.00133970636576006 -0.00283451521734233 -0.000421859481211177 -0.00146666683462127
"242" 7.99863530543251e-05 0.000233420365742028 -9.95672425193766e-05 0.000184736053150641 7.37972651396822e-05 8.56494048896145e-05 -4.46248109985008e-05 0.000137663883199425 0.00464902078615419 -0.000192383051177628 -0.00174555475260966 -0.000256749064527061 -0.00132639810935806 -0.00275325684550557 -0.000509056222178074 -0.0013936024804291
"243" 6.7952794941583e-05 0.000238269641592366 -0.000101329458240986 0.000182186556012858 7.45800985459712e-05 7.97946759123943e-05 -4.38137387580719e-05 0.000138476429529257 0.00470825288904511 -6.03967409170276e-05 -0.00157227900081005 -0.000194877812432743 -0.00131766482947844 -0.00266466426301815 -0.000593254395351668 -0.00130439636604302
"244" 5.65646644609535e-05 0.000243428425393615 -0.00010218394825979 0.000180524249824021 7.58578301284674e-05 7.47660032092904e-05 -4.23547152683326e-05 0.000139327091315794 0.00474276006561669 5.49302724612906e-05 -0.0014012301252393 -0.000136553318499445 -0.00131308224798579 -0.00256949146866025 -0.000673688417488469 -0.00119998490415723
"245" 4.58286821428146e-05 0.000248884944471133 -0.000102109380769773 0.000179754859508668 7.75975358702625e-05 7.05615384795015e-05 -4.0296099255003e-05 0.000140201034168446 0.00475247348861089 0.000153045644285469 -0.00123286694923859 -8.20772957200643e-05 -0.00131214454691968 -0.0024685091441067 -0.00074957048000715 -0.00108142227770008
"246" 3.57459206085697e-05 0.000254627666115662 -0.00010109365703105 0.000179873966224861 7.97716177144074e-05 6.717366100488e-05 -3.76953078220659e-05 0.000141080944411512 0.0047376600567735 0.000233667522761989 -0.00106761038778254 -3.17123961800841e-05 -0.00131428728256161 -0.00236248824642568 -0.000820118831336629 -0.000949865628680676
"247" 2.63123566528031e-05 0.000260643685401722 -9.91262862285462e-05 0.000180866824047684 8.23428099185196e-05 6.45873199519277e-05 -3.46108729196172e-05 0.000141945659946037 0.00469890737284993 0.000296781359749087 -0.000905842738305361 1.43300759525668e-05 -0.00131891166754657 -0.0022521723192601 -0.000884545606031847 -0.000806566217368142
"248" 1.75197111747524e-05 0.000266920481960243 -9.62167039752702e-05 0.000182718335106875 8.52733181538275e-05 6.27788216652303e-05 -3.11123255490018e-05 0.000142777911413126 0.00463712302723007 0.000342618232422026 -0.000747932340514293 5.58800042014634e-05 -0.00132536713416993 -0.0021383036678466 -0.000942092834771327 -0.000652849960107751
"249" 9.34869002525783e-06 0.000273441368144097 -9.23732537111643e-05 0.000185400254624809 8.85262842690269e-05 6.1720298739834e-05 -2.72644584120756e-05 0.000143554430475112 0.00455349609882894 0.000371652061345216 -0.000594218142542548 9.28133043306728e-05 -0.00133297415272866 -0.00202158958877161 -0.000992005163343768 -0.000490105878935426
"250" 1.78199775883357e-06 0.000280186999305334 -8.76163027109516e-05 0.000188884653873148 9.2056843873563e-05 6.13731245572252e-05 -2.3139608187732e-05 0.000144255705392666 0.00444948881014955 0.000384582780988409 -0.000445010676123399 0.000125050149788333 -0.00134104003984794 -0.00190269743743214 -0.00103357498966627 -0.000319772892558139
"251" -5.20775820144653e-06 0.00028714202379854 -8.19725934658697e-05 0.00019313041567739 9.58217868265251e-05 6.16943162549809e-05 -1.8813206632708e-05 0.00014485727592302 0.0043267951327131 0.000382307582851691 -0.000300596811682285 0.000152558513299906 -0.00134885845561405 -0.00178228692061253 -0.00106613638535827 -0.000143316315927659
"252" -1.16458878751538e-05 0.000294283418540879 -7.54806618545973e-05 0.000198091880133066 9.97779689416104e-05 6.26352712589031e-05 -1.43603288102713e-05 0.000145341067635124 0.00418729230728405 0.000365917171826849 -0.000161249460832413 0.000175338605970274 -0.00135573427047137 -0.00166092225569046 -0.00108907670421437 3.77705175153328e-05
"253" -1.75674977551142e-05 0.00030158566553709 -6.81825180510719e-05 0.000203719510072784 0.000103877527026642 6.41423250647202e-05 -9.85927810359322e-06 0.000145677940035817 0.00403301586869747 0.000336652125064636 -2.72250658525453e-05 0.000193440583352209 -0.00136097340916924 -0.00153916143115494 -0.00110185393879484 0.000222002489258576
"254" -2.30038163122368e-05 0.000309026908754328 -6.01298932436863e-05 0.000209958908440007 0.000108078656051214 6.61577680543589e-05 -5.3819392453845e-06 0.00014585059833867 0.00386611996449596 0.0002958882901943 0.000101248999429436 0.000206948852915802 -0.00136390598944127 -0.00141749512353509 -0.00110400334238073 0.000407899965350989
"255" -2.79918824853004e-05 0.000316574547280249 -5.13854666873648e-05 0.00021674550038375 0.000112330578039978 6.86203177536344e-05 -1.00430804222602e-06 0.000145833818162877 0.0036888327942463 0.000245117244018184 0.000223937009183128 0.000215983014658756 -0.00136389100895195 -0.00129634674008165 -0.00109515038606202 0.000593999764014049
"256" -3.25696005955409e-05 0.000324199095081928 -4.20086985032911e-05 0.000224012470751502 0.000116592206016941 7.14620185024807e-05 3.19563663921826e-06 0.000145603860856228 0.0035034199951449 0.000185911352193894 0.000340643214124768 0.000220696581645142 -0.00136032268028847 -0.00117609791560377 -0.00107502498789018 0.000778890458896118
"257" -3.67745683881537e-05 0.000331869018136194 -3.20721647396706e-05 0.000231690484422871 0.000120817812536644 7.46204096758307e-05 7.15568492027484e-06 0.00014514173791854 0.00331215254856755 0.000119903208160293 0.000451169442449191 0.000221267456366163 -0.00135264542078775 -0.00105705733048124 -0.00104346968774926 0.000961190603280901
"258" -4.06438240629907e-05 0.000339550090726114 -2.16552113577836e-05 0.000239701826460524 0.000124964089898474 7.80273074872666e-05 1.08071319328823e-05 0.000144427137625425 0.00311727334618266 4.87614111449092e-05 0.000555338517680961 0.000217902376305829 -0.00134034618584228 -0.000939487139641166 -0.00100045398094833 0.00113958896244198
"259" -4.42173352556132e-05 0.000347203931465236 -1.08364942735328e-05 0.000247968604157051 0.000128990203764199 8.16116430663652e-05 1.4081915281009e-05 0.000143438148225635 0.00292094533070307 -2.58348914008743e-05 0.000652984470981641 0.000210830735068142 -0.00132297802503513 -0.000823591504046526 -0.000946076814012259 0.00131284238592598
"260" -4.75320876760444e-05 0.000354790646408108 2.93761286453218e-07 0.00025640954254713 0.000132857240444062 8.53100957512332e-05 1.69246370981126e-05 0.000142163629276559 0.00272525126512021 -0.000102208152175766 0.000743953188381181 0.000200293623958625 -0.00130016873920265 -0.000709510520138775 -0.000880594230162596 0.00147979231889604
"261" -5.0623031252544e-05 0.000362272016499607 1.16482443263533e-05 0.000264940056258677 0.000136526526458997 8.90538155497984e-05 1.92822547321698e-05 0.000140583989251615 0.00253216150955375 -0.000178722454582939 0.000828109553520142 0.000186550802827127 -0.00127160926485017 -0.000597345316914205 -0.000804401788095967 0.00163937205192846
"262" -5.35286844516885e-05 0.000369601112460168 2.31280689685725e-05 0.000273475647182374 0.000139965504397702 9.27773428137075e-05 2.11070584168167e-05 0.000138690710650089 0.00234351065950885 -0.000253780224470864 0.00090532934581509 0.00016987572596299 -0.00123706558183825 -0.000487145426911428 -0.000718056230829986 0.00179061363133932
"263" -5.62787388368003e-05 0.000376734337447793 3.46407811077928e-05 0.000281928123929351 0.000143143053975956 9.64207850972951e-05 2.23578404983314e-05 0.000136469143874451 0.00216099597734167 -0.000325856928997385 0.000975500421135105 0.000150548404279396 -0.00119638773392397 -0.000378918341200354 -0.000622278764829955 0.00193266082025943
"264" -5.89069383236379e-05 0.000383623898731862 4.60839613740634e-05 0.00029021069727553 0.000146028830169324 9.99218527031004e-05 2.29969008461169e-05 0.000133909187818055 0.00198615426664899 -0.000393484558723246 0.00103852024504554 0.0001288522467424 -0.00114950805727879 -0.000272634233851508 -0.000517950892140397 0.00206475739437498
"265" -6.14431864406201e-05 0.000390220102923262 5.73557289778322e-05 0.000298237062190438 0.000148597753727797 0.000103228339160385 2.2998315288237e-05 0.000131014044503133 0.00182036352134816 -0.00045527922365977 0.00109431419442305 0.000105075076664575 -0.00109645225131235 -0.000168223321257018 -0.0004061121441482 0.00218625955841609
"266" -6.39096394159542e-05 0.000396477912786167 6.83586008759158e-05 0.000305922202704331 0.000150830643613343 0.000106285982973656 2.23353719712491e-05 0.000127774337838395 0.00166481873342047 -0.000509958457075801 0.00114280948643526 7.95039738119485e-05 -0.00103732380178351 -6.56015153468752e-05 -0.000287947269858319 0.00229663901577689
"267" -6.63343856658342e-05 0.000402349267009868 7.8992417751766e-05 0.000313184643053541 0.00015270473039434 0.000109048439977686 2.09948084855402e-05 0.000124190955676682 0.00152055519172083 -0.000556334534715448 0.00118395936608937 5.24238579702948e-05 -0.000972319493339319 3.53355061630823e-05 -0.000164788256070515 0.00239547482255897
"268" -6.87376418078628e-05 0.000407777131826819 8.91506539130702e-05 0.000319940415997363 0.00015420721757462 0.000111472308479725 1.89699225802844e-05 0.000120270614655188 0.00138842485373304 -0.000593323280900149 0.00121771392525693 2.41093665694528e-05 -0.000901732486289723 0.000134717949028277 -3.80992411575669e-05 0.00248245805847665
"269" -7.11364389467831e-05 0.000412719513345874 9.87424913657991e-05 0.000326115833071123 0.000155327174002731 0.000113520634702575 1.62537068223559e-05 0.000116011216319763 0.00126910561397017 -0.000619963648945655 0.00124404632582912 -5.16866239280723e-06 -0.000825933193479229 0.000232668255653295 9.05535886435341e-05 0.0025573849245889
"270" -7.35457487652451e-05 0.000417122510618162 0.000107668180577622 0.000331634734794749 0.000156058401323559 0.000115162992290045 1.28556638979022e-05 0.00011142780961991 0.001163105980403 -0.000635401446411801 0.00126294693524389 -3.5144777558407e-05 -0.00074538373278084 0.000329309730717296 0.000219510008342213 0.00262016126877075
"271" -7.59834551826737e-05 0.000420941427726974 0.000115840643234708 0.000336433549465855 0.000156390649345466 0.000116368732537205 8.78627586048848e-06 0.000106527660918967 0.00107075297191812 -0.000638903975861676 0.00127440703154581 -6.55715857052795e-05 -0.000660623837742896 0.00042476906683242 0.000347051756531108 0.00267077422221775
"272" -7.84532713284612e-05 0.000424132829384105 0.000123176268997659 0.000340446902265685 0.000156330863314652 0.000117118348849769 4.05970384959333e-06 0.000101325669536104 0.000992218287077837 -0.000629852236997058 0.00127844246099558 -9.62052589606004e-05 -0.000572273575479069 0.000519150238188638 0.000471416824486918 0.00270930925919084
"273" -8.0962503347302e-05 0.000426650716928746 0.000129592209911054 0.000343622265360092 0.000155881927259171 0.000117395538897436 -1.29495859607792e-06 9.58356303358353e-05 0.000927503821960654 -0.000607753996820888 0.00127507248277931 -0.000126821176976137 -0.000481031993630218 0.00061253503019955 0.000590833919427445 0.00273593902648005
"274" -8.3518597713002e-05 0.000428460848543182 0.000135016437824122 0.000345909825892781 0.000155045523839105 0.000117184764882217 -7.2500022924603e-06 9.00773431250123e-05 0.000876472403060095 -0.000572239869980145 0.00126433814230977 -0.000157207029082691 -0.000387653521767074 0.000704979739111982 0.000703552121905641 0.0027509005396283
"275" -8.61220799802395e-05 0.000429525220111618 0.000139386186181923 0.000347268534782564 0.000153834517370972 0.000116486941576506 -1.37714508910284e-05 8.40698467693666e-05 0.00083883371320776 -0.000523063935488251 0.00124627713516935 -0.000187165046456335 -0.000292956916860581 0.00079651095696295 0.000807853382314682 0.00275450571148557
"276" -8.87700188563009e-05 0.000429813207957016 0.000142647971163169 0.00034766748003624 0.000152267525170347 0.000115294999161583 -2.08147317724608e-05 7.78374408211274e-05 0.000814175900438861 -0.000460106783447122 0.00122095302729004 -0.000216511199703965 -0.000197801411992386 0.000887112737277343 0.000902105836300633 0.00274712231586405
"277" -9.14640556886977e-05 0.000429299853253268 0.000144751955331618 0.000347079165130072 0.00015035512297768 0.000113615409646294 -2.83385740919008e-05 7.1400219539367e-05 0.000801947197083349 -0.000383385904485719 0.00118844169445137 -0.000245080585013205 -0.000103086458671396 0.000976729404113672 0.000984767136094445 0.0027291760789043
"278" -9.41967276403958e-05 0.000427967577950484 0.000145665562032134 0.00034548986250628 0.000148119333979435 0.000111455783861642 -3.6292638323505e-05 6.47880222164763e-05 0.0008014874832876 -0.000293030224695186 0.00114883850311425 -0.000272721204208266 -9.73533691670155e-06 0.00106526114113891 0.00105441228858631 0.00270112579537076
"279" -9.69616755962794e-05 0.000425799932877192 0.000145367314686454 0.000342892965660207 0.00014558705718768 0.000108830326108119 -4.46184069781439e-05 5.80286786423901e-05 0.000812021098513035 -0.000189293308245419 0.00110225171115996 -0.00029930045422101 8.13302196740509e-05 0.00115255753648301 0.00110977009057232 0.00266346518931103
"280" -9.97513128437728e-05 0.000422790727088284 0.000143839866691064 0.000339288106627628 0.000142777554594951 0.000105758586174117 -5.32656989529987e-05 5.11472959634833e-05 0.000832680237557249 -7.2561988359257e-05 0.00104880997537035 -0.000324695013811497 0.000169190120238629 0.00123841670728301 0.00114972917823265 0.00261673054304011
"281" -0.000102561038316561 0.000418933518794788 0.00014108310765689 0.000334687488395595 0.000139725313495911 0.00010225701635091 -6.21689867263199e-05 4.4178825432075e-05 0.000862514242064711 5.66721275843194e-05 0.000988660014546946 -0.000348807768697481 0.000252946437768381 0.00132260679200095 0.0011733608697204 0.00256146879541838
"282" -0.000105380939290675 0.000414245921239753 0.000137110050531229 0.000329106594983356 0.000136457896396035 9.83532728253484e-05 -7.12699551442108e-05 3.7151633697866e-05 0.000900498770979016 0.000197787268047887 0.000921987162316407 -0.000371550990311416 0.000331752537812412 0.00140481723081718 0.00117993023133044 0.00249824485056812
"283" -0.000108200527668169 0.000408734072236516 0.000131940772810963 0.000322577625432655 0.000133005573675852 9.40745388655333e-05 -8.05067828586018e-05 3.00999922877919e-05 0.000945546476639556 0.000350063650798801 0.00084898207206803 -0.000392855174972728 0.000404802360758217 0.00148470840631669 0.00116889952901844 0.0024276388139017
"284" -0.000111017490407699 0.000402417712407479 0.000125605548052357 0.000315128906222064 0.000129400894841335 8.94551529154989e-05 -8.9813496090002e-05 2.30562226720436e-05 0.000996542410567818 0.000512668155151869 0.000769877140877104 -0.000412664488209143 0.00047135531861265 0.00156189320896891 0.00113993103613973 0.00235023255417081
"285" -0.000113819355876052 0.000395320285374092 0.000118151496140606 0.000306804615059077 0.000125678627930268 8.45249603958959e-05 -9.91248420594274e-05 1.60516954302224e-05 0.00105233502138455 0.000684667229681187 0.00068491177440994 -0.00043093510744705 0.00053075491038253 0.00163593777166685 0.00109289494017756 0.00226661650745813
"286" -0.000116600811612261 0.000387478729162014 0.000109626662865908 0.000297653913847501 0.00012187472713471 7.93237173610455e-05 -0.00010838192691035 9.12153461479191e-06 0.00111175741605717 0.00086502634861531 0.000594383771192444 -0.000447640093604848 0.000582447041076648 0.00170637534152155 0.00102787269629193 0.0021773751209642
"287" -0.000119364789924907 0.000378929803290844 0.000100102827357661 0.000287727164589266 0.000118021196938954 7.38847608627973e-05 -0.00011752077232774 2.30029322651024e-06 0.00117363922012384 0.00105262702998431 0.000498604971647032 -0.00046276321822666 0.000625986699145548 0.00177271323985685 0.000945132055203418 0.00208309396045776
"288" -0.000122100288628923 0.00036971736955608 8.96421627792844e-05 0.000277086700232314 0.000114150075109897 6.82531746822733e-05 -0.000126481317014525 -4.38499759540566e-06 0.00123682867968345 0.00124627634751269 0.000397918495184956 -0.000476303326439197 0.000661038210455579 0.00183444382835513 0.000845128295076773 0.00198435026592401
"289" -0.000124816184222364 0.000359885650948988 7.83283288595841e-05 0.000265793645421115 0.000110300208145013 6.24647099970102e-05 -0.000135207776917054 -1.08974025043159e-05 0.00130020224595172 0.00144471693937175 0.000292697523614258 -0.000488266566697223 0.000687387782868619 0.00189104258999291 0.000728490800906689 0.00188171035571205
"290" -0.000127509546604448 0.000349492322877917 6.62456604214637e-05 0.000253913320894004 0.000106499302871362 5.65639847176075e-05 -0.000143645936304135 -1.72107311188472e-05 0.00136266981748576 0.00164662622161342 0.000183347334075075 -0.000498667517623812 0.000704964289465334 0.00194199057845018 0.000596016687815255 0.00177573678243043
"291" -0.000130184834899521 0.000338591353909056 5.34848331434406e-05 0.00024151809124226 0.000102780151572918 5.0589853449481e-05 -0.000151744738273405 -2.32947918177172e-05 0.00142320288205205 0.00185065078821496 7.03042702772654e-05 -0.000507523294383703 0.000713800212944273 0.00198677405664261 0.000448646122664772 0.00166698171771493
"292" -0.000132859447433119 0.000327242713997364 4.01429446422372e-05 0.000228678034328304 9.91715018560242e-05 4.45831142463873e-05 -0.000159458769205048 -2.91211629607712e-05 0.00148082198451335 0.00205539105055134 -4.59565842967025e-05 -0.00051486263510428 0.000714080946940046 0.00202490381864816 0.000287462675711674 0.0015559893176054
"293" -0.000135538077240463 0.000315513061800444 2.63182990691443e-05 0.000215465688045904 9.56984616347909e-05 3.85846255415487e-05 -0.000166747319556618 -3.46606165130061e-05 0.00153464010667516 0.00225943899799304 -0.000164943028633409 -0.000520716276736392 0.000706095113679601 0.00205592128907251 0.000113656667479398 0.00144328147332597
"294" -0.000138234295737928 0.000303465229733035 1.21140324888412e-05 0.000201955977119891 9.23907074293633e-05 3.26326220414495e-05 -0.000173572993822743 -3.98950242026327e-05 0.00158384292785608 0.00246138237481699 -0.000286123330789293 -0.00052511144342595 0.000690264421573466 0.00207940816779214 -7.14587864847098e-05 0.00132937162476406
"295" -0.000140973369714961 0.000291170665392102 -2.36763026428483e-06 0.000188221731294042 8.92678224588443e-05 2.67660193120099e-05 -0.000179902938201942 -4.48007407542275e-05 0.00162771210235035 0.00265980487642549 -0.000408955239833538 -0.000528081527308606 0.000667112638852609 0.00209499292013249 -0.000266491118797499 0.00121477250868166
"296" -0.00014376963229139 0.000278694027877743 -1.70223860121801e-05 0.000174335194501732 8.63500249579998e-05 2.10209425849606e-05 -0.000185713501885599 -4.93538048573677e-05 0.00166563055744072 0.00285333390633344 -0.000532855741189904 -0.000529649223938184 0.000637259273868818 0.00210237399974572 -0.000469978484490895 0.0010999637828332
"297" -0.000146650548405662 0.000266109951722247 -3.17438599973083e-05 0.000160369297509487 8.36538901952774e-05 1.54268972910641e-05 -0.000190980709271628 -5.35419818128471e-05 0.0016970947994098 0.00304062358069405 -0.000657240197796754 -0.000529843007766879 0.000601419883825374 0.00210131588301028 -0.000680384534164235 0.000985421412369708
"298" -0.000149639103591299 0.000253487444409231 -4.64308236622236e-05 0.000146393096510436 8.11979606816304e-05 1.00184199960915e-05 -0.000195692792743076 -5.73507321666603e-05 0.00172171489186077 0.0032203817366694 -0.000781481293066959 -0.000528679880422878 0.000560375853067203 0.00209165689699664 -0.000896136334024916 0.000871605870829519
"299" -0.000152767941061959 0.00024089367776483 -6.09866835853395e-05 0.000132473711143732 7.89920782411878e-05 4.82281679722695e-06 -0.000199838574608811 -6.07636474836829e-05 0.00173920810533069 0.00339138764392625 -0.000904958223405343 -0.000526169004195813 0.000514971251428919 0.00207331649193642 -0.00111561505010176 0.0007589604378146
"300" -0.000156063896494611 0.000228401353449791 -7.53086481281066e-05 0.000118675490175846 7.70449123498233e-05 -1.3834466817867e-07 -0.000203411081243366 -6.37719404608051e-05 0.00174941274631568 0.00355249785919277 -0.00102701104133848 -0.000522313731438864 0.000466097464632484 0.00204629572368849 -0.00133718834648121 0.000647908990978749
"301" -0.000159559461305818 0.000216081056902769 -8.93008135786716e-05 0.000105062059476803 7.53635731080462e-05 -4.83741328795429e-06 -0.000206414066906055 -6.6371323474754e-05 0.00175226608342958 0.00370266179274991 -0.00114699758374557 -0.000517109560864467 0.000414674937738991 0.00201068216701642 -0.00155920004395757 0.000538862208480716
"302" -0.00016328749323117 0.000203998955749351 -0.000102878858609231 9.16887763120414e-05 7.39543495189409e-05 -9.2617290949547e-06 -0.000208853952450858 -6.85570519788726e-05 0.00174781753972748 0.00384093575720926 -0.00126425031569397 -0.000510541202160437 0.000361647566530735 0.00196663972950541 -0.00177999376360112 0.000432219154878704
"303" -0.000167277575321032 0.000192217678564462 -0.000115951827566141 7.86115552588906e-05 7.28190131582502e-05 -1.33956635989987e-05 -0.000210738898456111 -7.03269780851244e-05 0.00173621556707484 0.00396650112950673 -0.00137812138974025 -0.000502588511494921 0.000307950104814947 0.00191442569383383 -0.00199791705911395 0.000328356931806975
"304" -0.000171569539639024 0.000180801409401118 -0.000128443911350877 6.58780733611847e-05 7.19547758675152e-05 -1.72261505503765e-05 -0.000212083016338128 -7.16852264355784e-05 0.00171770481025535 0.00407865980143829 -0.00148794531085563 -0.000493215401481713 0.000254518574940961 0.00185436789676207 -0.00221132299956366 0.000227644268987662
"305" -0.000176188530551077 0.000169814965608964 -0.000140275695187002 5.35341613382023e-05 7.13586692168413e-05 -2.07503349126364e-05 -0.000212907616791792 -7.26321283622767e-05 0.00169259767299962 0.00417684438823668 -0.00159307117808884 -0.00048238000913002 0.00020226678613432 0.00178687220378573 -0.00241858617263888 0.000130427801206626
"306" -0.000181171977453628 0.000159308042041871 -0.00015138047781161 4.16175153472382e-05 7.10271209842895e-05 -2.39616530114163e-05 -0.000213235884342387 -7.31793908499042e-05 0.00166128280343478 0.00426063460923041 -0.00169286504247653 -0.000470034315492039 0.00015207123232484 0.0017124224521233 -0.00261810962484932 3.70375497281186e-05
"307" -0.000186543366061235 0.000149337255614376 -0.000161699798971839 3.0167200264953e-05 7.09542717699193e-05 -2.68614291963558e-05 -0.00021309066544666 -7.33359709902372e-05 0.00162420394421855 0.0043297432213424 -0.00178669742767849 -0.000456118736096462 0.000104768690448269 0.00163154211258842 -0.0028083283966415 -5.2196999128965e-05
"308" -0.000192333964197228 0.000139951510772775 -0.000171175098369278 1.92104389450451e-05 7.11266998908249e-05 -2.94582783567511e-05 -0.000212502405920006 -7.3114835594122e-05 0.00158185034894362 0.00438402661146205 -0.00187396298399439 -0.000440564482610344 6.11460637035126e-05 0.00154481126670711 -0.00298773136875884 -0.000136974101009135
"309" -0.000198566392045767 0.000131191888840605 -0.000179760135657434 8.77302930666465e-06 7.15414282179797e-05 -3.1754128000563e-05 -0.000211503148393872 -7.25320540379374e-05 0.00153474638471314 0.00442348126757141 -0.00195409003137811 -0.000423311198719253 2.19220365209406e-05 0.00145284380174613 -0.00315485544918552 -0.000216993495937596
"310" -0.000205263692907669 0.000123100383812342 -0.000187413682696036 -1.12941136577919e-06 7.21807511574974e-05 -3.376182668802e-05 -0.000210126858367977 -7.16076703091827e-05 0.00148342495754791 0.00444823700265029 -0.00202652538759479 -0.00040427939634069 -1.22467834710894e-05 0.00135629432898288 -0.00330830941827477 -0.000291980946888885
"311" -0.00021244335462329 0.000115705129642327 -0.000194103107482951 -1.04815582685237e-05 7.30336411039031e-05 -3.55006435880398e-05 -0.000208406001650011 -7.03600089181114e-05 0.00142842399709641 0.00445854579674567 -0.00209074829116489 -0.000383396391656582 -4.07738283914437e-05 0.00125581124786614 -0.00344677625444059 -0.000361662351826279
"312" -0.000220115964021266 0.000109035836841316 -0.000199807978785049 -1.92751825792042e-05 7.40887849013241e-05 -3.6980191177308e-05 -0.000206375809417212 -6.88143647316235e-05 0.00137027515128501 0.0044547905430528 -0.00214627865261265 -0.000360590688356274 -6.31597076362409e-05 0.00115206863588875 -0.00356903637433222 -0.000425781055748381
"313" -0.000228290678413452 0.000103113256639234 -0.000204505870885272 -2.75110118580758e-05 7.53299425219535e-05 -3.82220682859178e-05 -0.000204076357425163 -6.69946200393812e-05 0.00130948041592882 0.00443745573183474 -0.00219268067130877 -0.000335789479364478 -7.89732219586546e-05 0.00104573456756248 -0.00367396831974803 -0.000484097553822908
"314" -0.000236978078209684 9.79520451099243e-05 -0.000208192339804157 -3.51894489625772e-05 7.67416111237834e-05 -3.92526112966892e-05 -0.000201543817007189 -6.49300109898762e-05 0.00124652451146907 0.00440712656855669 -0.00222954600600972 -0.000308921556737773 -8.7873309652206e-05 0.000937458762437328 -0.00376058254231392 -0.000536366698800163
"315" -0.000246167263282428 9.35586405579032e-05 -0.000210865933247267 -4.23231552663371e-05 7.83078824138767e-05 -4.00899540289485e-05 -0.000198812982659667 -6.26505835049642e-05 0.00118182890213942 0.0043644676680312 -0.0022565348154587 -0.000279932754925714 -8.95971415499358e-05 0.000827879339551952 -0.00382802336486467 -0.000582375844949982
"316" -0.000255860959996046 8.99335555959121e-05 -0.00021253311772597 -4.89256996528177e-05 8.00170333250144e-05 -4.0762466359195e-05 -0.000195920157903603 -6.01836728830653e-05 0.0011157744211851 0.00431021989140751 -0.00227335117432711 -0.000248765937999022 -8.39756346384691e-05 0.000717594525092444 -0.00387558889389481 -0.000621912116269202
"317" -0.000266042486734874 8.70701482398011e-05 -0.000213209706732383 -5.50160375317091e-05 8.1849040215543e-05 -4.12922628676751e-05 -0.000192902199447567 -5.75643722717741e-05 0.00104868673745564 0.00424516355345738 -0.00227975476377219 -0.000215382963971182 -7.09232724221774e-05 0.000607152323622886 -0.00390274550794816 -0.000654783318950584
"318" -0.000276695064274663 8.49527387554279e-05 -0.000212918327005765 -6.06201158637778e-05 8.37909112244917e-05 -4.17120233279241e-05 -0.000189791518485659 -5.48246020385716e-05 0.000980830144479385 0.00417012952443691 -0.00227556502900764 -0.000179756169297778 -5.04386533875082e-05 0.000497052755743904 -0.00390915382934188 -0.000680798910890542
"319" -0.000287797157782141 8.35645482435786e-05 -0.000211688964315889 -6.57687589439667e-05 8.58287315917641e-05 -4.20442009724033e-05 -0.00018662046775213 -5.20016344720909e-05 0.000912398288864926 0.00408597108540911 -0.00226066717399556 -0.000141880762471842 -2.26130355032698e-05 0.000387744549427477 -0.00389466061136714 -0.000699796496588542
"320" -0.0002993192574828 8.28741302611644e-05 -0.000209558356049016 -7.04961425061112e-05 8.79428681754028e-05 -4.23148263610099e-05 -0.000183419147132725 -4.9125953623565e-05 0.00084352301286048 0.00399354942184178 -0.00223500499975397 -0.000101759411110653 1.23887112332784e-05 0.000279609768293592 -0.00385932687773588 -0.000711619265545367
"321" -0.000311228974963474 8.28509137469063e-05 -0.000206574476853842 -7.4840166049576e-05 9.0121966986351e-05 -4.25511889660795e-05 -0.0001802160424575 -4.62330603497118e-05 0.000774264604221833 0.0038937248267664 -0.0021986003601016 -5.94305415464488e-05 5.43187086965452e-05 0.000172976974229003 -0.00380342767920539 -0.000716134191684735
"322" -0.000323485483067345 8.34453849022243e-05 -0.000202781300662494 -7.88458028768043e-05 9.23519749124634e-05 -4.27800112523345e-05 -0.000177039375719803 -4.33595921995384e-05 0.000704618362421347 0.00378733337330135 -0.00215153653565856 -1.49419906656248e-05 0.000102856469150873 6.80946179353403e-05 -0.00372745802012414 -0.000713219503438636
"323" -0.000336048426384622 8.46149553770196e-05 -0.000198241621040796 -8.25591640731141e-05 9.46204511051183e-05 -4.30209131542788e-05 -0.000173907489472214 -4.05362188063807e-05 0.000634508384906109 0.00367518622862339 -0.00209396955556933 3.1626190219906e-05 0.000157604613342029 -3.48553960011643e-05 -0.00363212979106211 -0.000702778250333802
"324" -0.000348865774539779 8.63038510791265e-05 -0.00019301173179879 -8.60277126779959e-05 9.69137296450756e-05 -4.32968393194937e-05 -0.00017084467812342 -3.780011609628e-05 0.000563777059262044 0.00355805245328868 -0.00202612156187427 8.01649430793024e-05 0.000218121745489777 -0.00013577222578389 -0.00351836562237854 -0.00068473223196932
"325" -0.000361885311530159 8.84505709767077e-05 -0.000187162657331139 -8.93066175168141e-05 9.92208944110014e-05 -4.36291005576533e-05 -0.000167867254900884 -3.51802299660889e-05 0.000492224920315062 0.00343665734186346 -0.00194828582483494 0.000130540205579959 0.000283895348139304 -0.000234597033037337 -0.00338730049809462 -0.0006590295993642
"326" -0.00037505182213739 9.09944380901162e-05 -0.000180761159317883 -9.24491744622135e-05 0.000101528537194009 -4.40328335944616e-05 -0.000164992507675836 -3.2706993886941e-05 0.000419589041786194 0.00331167655425965 -0.00186083104348987 0.000182589172342716 0.000354374214684124 -0.00033135747759412 -0.00324025788548478 -0.000625647879676305
"327" -0.000388303288850635 9.38603623095709e-05 -0.000173884703385049 -9.55115280546027e-05 0.000103829856170518 -4.452421439237e-05 -0.000162232762219531 -3.04130086452275e-05 0.000345550927150906 0.00318372456604599 -0.00176420213198867 0.000236117325881696 0.000428955443341753 -0.000426131320053958 -0.00307873955123119 -0.000584583622047808
"328" -0.000401573976421658 9.69792651872405e-05 -0.000166610470503519 -9.85485123072334e-05 0.00010611272455026 -4.51128574683639e-05 -0.00015959708490282 -2.83233756198404e-05 0.000269757072829441 0.00305335954602954 -0.00165890318836676 0.000290902963364025 0.000507013381580228 -0.000519056334656814 -0.00290439665306733 -0.000535881148048533
"329" -0.00041480266452388 0.00010026812586111 -0.000159016162378351 -0.000101621221396474 0.000108369322437841 -4.58098250575264e-05 -0.000157093336050068 -2.64649177958338e-05 0.000191812021104279 0.0029210779776052 -0.00154550816908279 0.000346692194572791 0.000587897435040953 -0.000610310189742618 -0.00271899418657874 -0.000479622197085758
"330" -0.000427918372028648 0.00010365271046262 -0.000151189223233126 -0.000104782342207408 0.000110592283726335 -4.66223999927085e-05 -0.000154726129345567 -2.48588173720594e-05 0.000111297249822778 0.00278730396817143 -0.00142464762916322 0.00040320933269104 0.000670947802464236 -0.000700113867419805 -0.00252441049347527 -0.000415928082958174
"331" -0.000440849640316623 0.000107051153784876 -0.000143205182247274 -0.000108088125836997 0.000112774750045453 -4.755292610786e-05 -0.000152497782293091 -2.35272467167537e-05 2.77704125936207e-05 0.0026524078991987 -0.00129701724907944 0.000460146034779882 0.000755497518505606 -0.000788720014091556 -0.00232258241391718 -0.000344975542640283
"332" -0.000453528400162584 0.000110380769188891 -0.000135149877101795 -0.000111593725335367 0.000114909089874128 -4.86046034221584e-05 -0.000150409302270238 -2.24838373310404e-05 -5.92090077300284e-05 0.00251670353057886 -0.00116335878393201 0.000517177437858541 0.000840894189006873 -0.000876390046249522 -0.00211548668979852 -0.000267003017626354
"333" -0.000465881342596672 0.000113560666971182 -0.000127104055283367 -0.000115348576452947 0.000116989884159739 -4.97726898381934e-05 -0.000148459079538288 -2.17417553990305e-05 -0.00015008790333108 0.00238044183603107 -0.00102446426844588 0.000573949599149874 0.000926502487281111 -0.000963411956249673 -0.00190511068723518 -0.000182309743672988
"334" -0.000477837760630515 0.000116515157611418 -0.000119149302762413 -0.00011939760808745 0.000119012438999015 -5.10544982199439e-05 -0.000146638185213131 -2.13177834413608e-05 -0.000245295559217843 0.00224382953897137 -0.000881170418280036 0.000630103886424462 0.00101171094626295 -0.00105005594731546 -0.00169342153886401 -9.12576486958611e-05
"335" -0.000489326001160623 0.000119161828841654 -0.000111362674623971 -0.000123786463388237 0.000120971870090998 -5.2445824271234e-05 -0.000144945178686402 -2.12135792687625e-05 -0.000345250723533038 0.0021070283983858 -0.00073432332960674 0.000685263637930055 0.00109595969412824 -0.00113659161830644 -0.00148232841270951 5.70530163365485e-06
"336" -0.000500276006247647 0.000121428697120329 -0.000103815244775716 -0.000128551954346927 0.000122865148214197 -5.3935728983093e-05 -0.000143370496822171 -2.14337282252896e-05 -0.000450328828496105 0.00197017226562962 -0.000584819588398538 0.000739044764966745 0.00117872556115646 -0.00122323789378369 -0.00127367677267123 0.00010805198587191
"337" -0.000510620162999556 0.000123249162325725 -9.65790063054835e-05 -0.000133724408604167 0.000124690767804657 -5.55173761489323e-05 -0.000141905341020403 -2.19800929026713e-05 -0.000560875498234269 0.00183334423982983 -0.00043354552235664 0.000791062946211209 0.00125956628342227 -0.00131020479437951 -0.0010692119206668 0.000215177689288858
"338" -0.000520292228765153 0.000124558178313921 -8.97190552545922e-05 -0.000139331115288459 0.000126442791401546 -5.71762704223941e-05 -0.000140536127938411 -2.2844372470478e-05 -0.000677177927287412 0.00169662171757711 -0.000281395856772116 0.000840939694206992 0.00133807973061325 -0.00139762391312975 -0.00087056360769425 0.00032638482873308
"339" -0.000529227357713976 0.000125301094099401 -8.32882971686826e-05 -0.000145387139393046 0.000128125045951605 -5.89018948213715e-05 -0.000139253215828367 -2.40202043014716e-05 -0.000799455341405642 0.00156004295865932 -0.000129269573764314 0.000888302480647963 0.00141395491062997 -0.00148557394786895 -0.000679222693615348 0.000440886637789208
"340" -0.000537362403028752 0.000125429350867078 -7.73450899230155e-05 -0.00015190533576643 0.000129730296343322 -6.06828762491456e-05 -0.000138040952420103 -2.54923987001182e-05 -0.000927857328462931 0.00142364922246937 2.19575730184317e-05 0.000932798097025275 0.00148693857281823 -0.0015740554747736 -0.000496535037971 0.000557806152033345
"341" -0.000544642292997243 0.000124900426022638 -7.19288444341573e-05 -0.00015888701315089 0.000131261871789479 -6.25035452412097e-05 -0.00013688715660737 -2.72483360371542e-05 -0.0010624533939057 0.00128746398705776 0.000171440948589257 0.000974090016463219 0.00155686447931841 -0.00166299699486102 -0.000323681769328394 0.00067616808626204
"342" -0.000551005039739654 0.000123681542014562 -6.70754232655052e-05 -0.000166324353126224 0.000132721031435279 -6.43495774679612e-05 -0.000135772589001727 -2.92652979485721e-05 -0.001203220445899 0.0011515205535789 0.000318361393258355 0.00101186804166303 0.00162364021045648 -0.00175222050672036 -0.000161679752255613 0.000794923847856751
"343" -0.000556407155816376 0.000121754371195796 -6.28161281570948e-05 -0.000174206218117625 0.000134105228221167 -6.620719539343e-05 -0.000134680327837231 -3.15202892363117e-05 -0.00135005207560864 0.00101585515458922 0.000461945408337091 0.00104585360502275 0.00168724667883824 -0.00184146731497965 -1.13756111512948e-05 0.00091292870878801
"344" -0.00056079577050725 0.000119101095778307 -5.91656491775058e-05 -0.000182505261402004 0.000135414393373081 -6.80634642463539e-05 -0.000133598735460913 -3.39835796228669e-05 -0.00150274047532957 0.000880507265112359 0.000601477537620617 0.00107580182604191 0.0017477398886542 -0.00193036174133843 0.000126558897007871 0.00102897934112229
"345" -0.000564130651762056 0.000115719802282179 -5.613709247923e-05 -0.000191191892130051 0.000136653790223867 -6.99034993924809e-05 -0.000132505870735756 -3.66239782693319e-05 -0.00166098685932899 0.000745539683232197 0.000736298759740113 0.0011015070536795 0.0018052520323756 -0.00201843447994522 0.000251631174648903 0.00114179523225456
"346" -0.000566370761218886 0.000111620057071588 -5.37275954520687e-05 -0.000200226959138339 0.000137822393708463 -7.17172527994719e-05 -0.000131387239614307 -3.94078092157959e-05 -0.00182439015607874 0.000611021815789133 0.0008658113239718 0.00112280214599174 0.00185996312274649 -0.0021051036939389 0.000363506119325343 0.00125006088600126
"347" -0.000567482263678914 0.000106815136696913 -5.1933967495263e-05 -0.000209560248262797 0.000138919216145178 -7.34893535390887e-05 -0.000130222300669103 -4.22971213754574e-05 -0.00199245908196284 0.000477051940256088 0.000989497472862308 0.001139557750523 0.00191210942893945 -0.00218967688127148 0.000462019317498573 0.00135241503927819
"348" -0.000567437888466596 0.000101322405044903 -5.0735495427799e-05 -0.000219140148559721 0.000139945319930584 -7.5209294125334e-05 -0.000129002255898475 -4.52567641618978e-05 -0.00216460768943905 0.000343748319253353 0.00110691989722185 0.00115170250308544 0.00196197771489969 -0.00227136160071352 0.000547161163270431 0.00144748376737354
"349" -0.000566209428740615 9.51860719109026e-05 -5.01064203468232e-05 -0.000228904464672362 0.000140904637487067 -7.68654993907095e-05 -0.0001277034236434 -4.82397060410582e-05 -0.00234016803353427 0.000211254771167832 0.00121773482554704 0.00115919598572493 0.00200989179940183 -0.00234926162519171 0.000619074016775323 0.00153388664960491
"350" -0.000563780925791283 8.84374640830344e-05 -5.00239677743186e-05 -0.000238787593382879 0.000141789820212686 -7.8452187224269e-05 -0.000126316321132217 -5.12087654960116e-05 -0.00251839667981282 7.97512228302416e-05 0.00132166885277621 0.00116204500889843 0.00205619672526268 -0.00242237975889386 0.000678029673102229 0.0016102654453779
"351" -0.000560135953578289 8.11263457449365e-05 -5.04418773907236e-05 -0.000248715294819677 0.000142605481299212 -7.99544378486332e-05 -0.000124825235378766 -5.41215855269024e-05 -0.00269848256171771 -5.05537017649881e-05 0.00141855299035595 0.00116030332037526 0.00210126335880342 -0.00248962634591909 0.000724425675949071 0.00167529683964053
"352" -0.000555267469085883 7.3309945867619e-05 -5.13171659926025e-05 -0.000258612870093316 0.000143345253220027 -8.1367381019012e-05 -0.000123220847807906 -5.69261340286118e-05 -0.00287955806028474 -0.000179427728114913 0.00150830990462873 0.00115406200557211 0.00214546426613941 -0.00254984372023193 0.000758780992017011 0.00172771029089086
