"V1" "V2" "V4" "V5" "V7" "V8" "V10" "V11" "V13" "V14" "V15" "V17" "V18" "V20" "V21" "V23"
"1" 0.0001439873023123 -1.2903915386068e-05 8.33807604620349e-05 -1.10484994851065e-06 -0.000197175166403191 -0.000186965375654433 -0.000297361615584905 -0.000309271585160105 -0.000136061292836157 -0.000169307601920523 -8.05558956724863e-06 5.55576143552928e-05 3.06991179068172e-06 0.000257463773711337 -0.00011949874107755 0.000298519776345521
"2" 0.000177383727770875 -2.3344785237705e-06 0.000113602878358876 -8.84959237131431e-07 -0.000188094371843645 -0.000180169742746427 -0.000280607029996156 -0.000287996179306956 -0.000148357989553136 -0.000181335504482581 -1.27078149498e-05 4.55732571617903e-05 -5.06154948363633e-06 0.000249730621784251 -0.000122563260182607 0.000284991133546133
"3" 0.000210558259547015 7.43118572476603e-06 0.000143054098172637 -2.4816633617289e-07 -0.00017849868740323 -0.000172838916879021 -0.000263288671173385 -0.000265893896142633 -0.000159536317086412 -0.000192320906950869 -1.68467354672034e-05 3.5736102018694e-05 -1.20654715136307e-05 0.000242733549242588 -0.000124913133973852 0.000270240283932206
"4" 0.000243227180198605 1.61591300212721e-05 0.000171526128409404 8.37390483478394e-07 -0.00016843684978699 -0.000164973784702513 -0.00024545937493172 -0.0002431403693966 -0.000169374215663046 -0.00020211672220244 -2.03675874167186e-05 2.61626708963264e-05 -1.79072456274322e-05 0.000236568656811232 -0.000126548862107163 0.000254443759498664
"5" 0.000275122392646217 2.36404749051127e-05 0.000198833382154628 2.41269390596768e-06 -0.00015795998414146 -0.000156569348898618 -0.000227172267232625 -0.000219909248840656 -0.000177698897089835 -0.000210598941761607 -2.31875353942416e-05 1.6963721683377e-05 -2.25690860236225e-05 0.000231300346090036 -0.00012747693171983 0.000237783449413786
"6" 0.00030600359405367 2.96959643329313e-05 0.000224805322149261 4.50833212433451e-06 -0.000147117879226607 -0.000147624659812656 -0.000208481441253858 -0.000196372992446594 -0.000184365210948254 -0.000217660088756271 -2.52407690924953e-05 8.24547722643818e-06 -2.60469936753273e-05 0.000226965829269949 -0.000127717265803842 0.000220466025958527
"7" 0.000335644267713864 3.41701236283378e-05 0.000249303873127519 7.17013407011522e-06 -0.00013595524758624 -0.000138130480801815 -0.000189436734361811 -0.000172686957038033 -0.000189275890830604 -0.000223219734202995 -2.64698586833959e-05 1.03827545296768e-07 -2.8350852189382e-05 0.000223558005103559 -0.000127297142236397 0.000202698520687081
"8" 0.000363858670458287 3.695574532454e-05 0.000272216893606881 1.0436470684896e-05 -0.000124518318911664 -0.000128085136348069 -0.000170091579661996 -0.000149002630124163 -0.000192373034809173 -0.000227217907520319 -2.68458350446017e-05 -7.36751632910432e-06 -2.95095273114363e-05 0.000221051244459465 -0.000126258255531589 0.000184694050606112
"9" 0.000390480806401582 3.79707694309639e-05 0.000293459759356704 1.4346401549629e-05 -0.000112847248280645 -0.000117485583679458 -0.00015049357095217 -0.000125456942098878 -0.000193639337488948 -0.000229620790093626 -2.63455713978138e-05 -1.40867933791013e-05 -2.95548045835691e-05 0.000219382855765764 -0.000124650737379087 0.000166671068550662
"10" 0.000415379608657627 3.71810399548593e-05 0.000312975003489906 1.89385532293827e-05 -0.000100973469810919 -0.000106323633391371 -0.000130692793009528 -0.000102171203162291 -0.00019309946409203 -0.000230414834738257 -2.4973996763421e-05 -1.99822640361923e-05 -2.85375281540036e-05 0.000218459510775415 -0.000122525461185651 0.000148846333200129
"11" 0.000438455779911639 3.45792817638449e-05 0.000330733687026996 2.4254916725662e-05 -8.89284125495503e-05 -9.45981051502499e-05 -0.000110732943758391 -7.9260493485712e-05 -0.000190810593065796 -0.000229613698329706 -2.27438130225148e-05 -2.49903925566043e-05 -2.65174350256324e-05 0.000218172468237648 -0.000119948017928006 0.000131427205207682
"12" 0.000459645606669319 3.02006344822535e-05 0.000346741710712333 3.03289092509528e-05 -7.67408857366295e-05 -8.23116065043958e-05 -9.06607799348166e-05 -5.68210551376992e-05 -0.000186866817125025 -0.00022724757966614 -1.96917749869367e-05 -2.90574563950358e-05 -2.35630055395804e-05 0.000218380327638834 -0.000116981212461131 0.000114622168990628
"13" 0.000478911573755921 2.41163450001247e-05 0.000361025282310353 3.71946080125752e-05 -6.44313603127241e-05 -6.94602944862485e-05 -7.05187078262868e-05 -3.493324177295e-05 -0.00018138719561344 -0.000223367627580713 -1.58601273089044e-05 -3.213681469399e-05 -1.97512896115164e-05 0.000218941336737658 -0.00011369786579471 9.86232039514362e-05
"14" 0.0004962528944986 1.64224309537008e-05 0.000373636740111509 4.48801083791844e-05 -5.20152638595926e-05 -5.60503121027208e-05 -5.0355108442793e-05 -1.36679644455954e-05 -0.000174517735434354 -0.000218044346542835 -1.13075528329451e-05 -3.41944527185968e-05 -1.51630505585384e-05 0.000219690812250286 -0.000110167935987546 8.36176849804722e-05
"15" 0.000511689253754739 7.25078731990084e-06 0.000384649455928535 5.34113348307658e-05 -3.95128736982456e-05 -4.20847771179425e-05 -3.02065680615119e-05 6.91637902720879e-06 -0.000166425238180668 -0.000211359529754743 -6.10354111821562e-06 -3.52022344234204e-05 -9.89099347650212e-06 0.000220457408716816 -0.000106463106566935 6.97754656312834e-05
"16" 0.000525274237356054 -3.25296030073807e-06 0.000394158421760786 6.28065819366153e-05 -2.69306901853208e-05 -2.75765877910902e-05 -1.01168683328819e-05 2.67757388528815e-05 -0.000157281688736072 -0.000203409249252715 -3.19596183260019e-07 -3.51430573793918e-05 -4.03045002059412e-06 0.000221076795648095 -0.00010265254654798 5.72499473696193e-05
"17" 0.000537080095721363 -1.49134205498815e-05 0.00040227484769872 7.30752204590747e-05 -1.42761884911777e-05 -1.25340182146757e-05 9.87335056251568e-06 4.58732218306726e-05 -0.000147268955326849 -0.000194293679413406 5.96357288057111e-06 -3.40053436864227e-05 2.3242234225181e-06 0.000221384199568898 -9.88092950167955e-05 4.61835249979437e-05
"18" 0.000547197769276143 -2.75445125615739e-05 0.000409119212309578 8.42255705179801e-05 -1.5598923038707e-06 3.02629866036846e-06 2.97271589111518e-05 6.41875373264229e-05 -0.000136578342279947 -0.00018412804274337 1.26589366057115e-05 -3.17844137105332e-05 9.07309274476557e-06 0.000221216716711445 -9.49959447604532e-05 3.66933103692438e-05
"19" 0.000555740288663648 -4.09485005293096e-05 0.000414825848151068 9.62534809246716e-05 1.12123897657903e-05 1.90857187296877e-05 4.94021114942326e-05 8.16954184936805e-05 -0.000125385143036413 -0.000173023598380282 1.96845377504212e-05 -2.84849922233527e-05 1.611737787324e-05 0.000220431777787272 -9.12771501965753e-05 2.88850466626596e-05
"20" 0.000562825022042932 -5.49248413386989e-05 0.000419528900524088 0.000109143701277974 2.40339090483844e-05 3.56172081408753e-05 6.88568245690403e-05 9.83837763625037e-05 -0.000113862705898036 -0.000161094750910403 2.69560296183508e-05 -2.41149156261243e-05 2.33554470063483e-05 0.000218904963663532 -8.77102727125118e-05 2.28424139715668e-05
"21" 0.000568585590632315 -6.9268209319934e-05 0.000423369438722387 0.000122877623695341 3.68959637184344e-05 5.25957092133776e-05 8.80540860680849e-05 0.000114242865989448 -0.000102172461873841 -0.000148461201621613 3.43902397111249e-05 -1.86939897178516e-05 3.06886984882917e-05 0.000216520478801684 -8.43498202790102e-05 1.86281367500784e-05
"22" 0.000573159302112413 -8.37772248842207e-05 0.000426487356933148 0.000137417466827746 4.97892988184682e-05 6.99839320411777e-05 0.000106945841523705 0.000129265503469079 -9.04576895961317e-05 -0.00013523233342653 4.19107805664826e-05 -1.22409239080245e-05 3.8021238996082e-05 0.000213200052780331 -8.12384603794618e-05 1.62870209180941e-05
"23" 0.000576681495055282 -9.82641813657809e-05 0.00042901357413702 0.00015272421313069 6.27047952620271e-05 8.77457672332583e-05 0.000125491305035558 0.000143439747215096 -7.88391380354499e-05 -0.000121516989050755 4.94465314826416e-05 -4.7882053026288e-06 4.52549970286031e-05 0.000208878829127459 -7.84202491058068e-05 1.58427425386883e-05
"24" 0.000579288939326365 -0.00011254817617088 0.000431080261806824 0.000168742647315956 7.56193115089553e-05 0.000105837044289234 0.000143643796492217 0.00015675831991865 -6.74199250128432e-05 -0.00010741989658556 5.69277574250192e-05 3.63331607491961e-06 5.2303943385761e-05 0.000203523491272953 -7.59271011233646e-05 1.72987067850251e-05
"25" 0.000581113544735374 -0.000126459821618253 0.000432798290911667 0.000185405489430869 8.85153939934922e-05 0.000124200558189117 0.000161352413609022 0.000169205081114973 -5.62794227765225e-05 -9.30381427163943e-05 6.42991404292478e-05 1.29806327600822e-05 5.90768934409042e-05 0.000197125426524598 -7.37851322547435e-05 2.06342792420765e-05
"26" 0.000582278016209982 -0.000139857054818955 0.00043427091755138 0.000202638532837766 0.000101366397001594 0.000142784312658671 0.000178565785303664 0.000180762091977196 -4.54683694379213e-05 -7.8457936936596e-05 7.15105585301824e-05 2.32065619902326e-05 6.54950424243354e-05 0.0001897114284128 -7.2017023455631e-05 2.58191673187473e-05
"27" 0.000582900533857871 -0.000152608533355284 0.000435593668113774 0.000220356936723736 0.000114143591327569 0.000161523277909479 0.000195226131357595 0.000191410312318153 -3.501834611359e-05 -6.37675291494743e-05 7.85152902511211e-05 3.42601914741533e-05 7.14769533539435e-05 0.00018132580451027 -7.06344041401444e-05 3.27915961817844e-05
"28" 0.000583080649357257 -0.000164605482789196 0.000436845396485684 0.000238461533071096 0.000126809749301255 0.00018034674857712 0.000211277890122484 0.00020112195811539 -2.49379538709163e-05 -4.90396876240069e-05 8.52791218984577e-05 4.60798242986995e-05 7.69501463041776e-05 0.000172041694208436 -6.96443297335822e-05 4.14793344924009e-05
"29" 0.000582909418577956 -0.000175768090026113 0.000438081767794203 0.000256849040443988 0.00013932402468167 0.000199180169727607 0.000226658093099818 0.000209861814012813 -1.52106102738082e-05 -3.43445588325404e-05 9.17741145612193e-05 5.86016212902025e-05 8.18524214959941e-05 0.000161957737197758 -6.90506859088779e-05 5.17877639423126e-05
"30" 0.000582465460686606 -0.00018602573495273 0.000439351610638134 0.00027540741635958 0.00015164365497976 0.000217941547380003 0.000241305397668005 0.000217595122431848 -5.80427734173929e-06 -1.97436655569017e-05 9.79780241753282e-05 7.17544546605083e-05 8.61189813168989e-05 0.000151190540812016 -6.88419425250354e-05 6.36083479897496e-05
"31" 0.000581810141771695 -0.000195341992191959 0.000440690175910976 0.000294018371633047 0.000163714447217366 0.000236547182030569 0.000255156845990876 0.000224281953506462 3.32833869165765e-06 -5.29420324824095e-06 0.000103873571597134 8.54599659264224e-05 8.96972614080437e-05 0.000139877249829981 -6.90176564257998e-05 7.68197874892634e-05
"32" 0.000580997046926051 -0.000203688554013907 0.000442114442266025 0.000312556001954841 0.000175486734154373 0.000254908013100104 0.000268146591901383 0.000229880747207689 1.2246188205366e-05 8.95320583460286e-06 0.000109453213885212 9.96379839653572e-05 9.25384598040447e-05 0.000128164499645189 -6.95567371606664e-05 9.12834978482762e-05
"33" 0.000580063060550697 -0.000211064011982978 0.000443625842076218 0.000330893708876162 0.000186906261140071 0.000272933920221713 0.000280212901028146 0.000234348374106332 2.10177547130586e-05 2.29496291042713e-05 0.00011470807803396 0.00011419750261672 9.46075836729537e-05 0.000116214115197364 -7.04446209950019e-05 0.000106853470835626
"34" 0.000579039712873088 -0.000217478465054291 0.000445232783178253 0.000348905435550393 0.000197917326444591 0.000290536662778071 0.000291299091095947 0.000237647387889709 2.97119821687241e-05 3.66540495991941e-05 0.000119637052259224 0.000129048860460612 9.58657033667248e-05 0.000104180706146506 -7.16627504017182e-05 0.000123370076872105
"35" 0.00057793782334717 -0.00022295545992249 0.000446916148539518 0.00036646927054941 0.000208464361821805 0.000307624915920774 0.000301353230846618 0.000239746997654945 3.83910507394356e-05 5.00196446650302e-05 0.0001242378079272 0.00014409418497277 9.62935112553175e-05 9.22231071382029e-05 -7.31891454173574e-05 0.000140670684427307
"36" 0.000576775735653391 -0.000227527137061192 0.000448667493699624 0.000383459189895905 0.000218491620081055 0.000324115652045786 0.000310329871096904 0.000240618338387389 4.71155045313186e-05 6.30084597041058e-05 0.000128506173164764 0.000159235574717967 9.58711386219735e-05 8.0498310597863e-05 -7.50031458143747e-05 0.0001585905305732
"37" 0.000575559937790565 -0.000231231904952029 0.000450464810827838 0.000399761061249204 0.000227953212563405 0.00033992708559823 0.0003181988448923 0.00024024844840257 5.59293257632759e-05 7.55751298429052e-05 0.00013244040671348 0.000174369663403396 9.45880381973144e-05 6.91419163158008e-05 -7.70834363805789e-05 0.000176959365572895
"38" 0.000574285939088035 -0.000234116367679051 0.00045228868496085 0.000415268016716753 0.00023680552724475 0.000354983395598463 0.000324932014423958 0.000238637555986718 6.48663663856932e-05 8.76797347804283e-05 0.00013603806423773 0.000189397134265487 9.2446067550798e-05 5.82829824303215e-05 -7.94118098629838e-05 0.000195613717672749
"39" 0.000572961910396055 -0.000236217888858079 0.000454129960544277 0.000429882777666472 0.000245006768487044 0.000369224505155249 0.000330524241956582 0.000235796716872645 7.39309619156483e-05 9.92748708858392e-05 0.000139292881811494 0.000204213092110766 8.94481435218426e-05 4.80244309864531e-05 -8.19673833997565e-05 0.0002143896957062
"40" 0.000571587417358074 -0.000237582461732692 0.00045597952927838 0.000443518503632916 0.000252528537613385 0.000382591570584009 0.000334982503372427 0.000231762410515604 8.31067202446618e-05 0.000110316345244008 0.000142192208055558 0.000218717044506464 8.56095769352075e-05 3.8441897592337e-05 -8.47378222119292e-05 0.000233128979668695
"41" 0.000570173243143783 -0.000238241591274866 0.000457828579978105 0.000456105348817722 0.000259353887537064 0.000395043210373434 0.000338330203491216 0.00022658462698177 9.23585030796157e-05 0.000120755207735804 0.000144722837405214 0.000232806705899119 8.09545926817075e-05 2.95984836687834e-05 -8.77123500112599e-05 0.000251687530751073
"42" 0.00056871976517796 -0.000238227895043355 0.000459685751152552 0.000467580551304929 0.000265464205457143 0.000406544960147049 0.000340602354767418 0.000220329577708426 0.00010162193459976 0.00013053896219109 0.000146869253262206 0.00024638918781544 7.55104904067002e-05 2.15154467898331e-05 -9.08758108425278e-05 0.000269924309985241
"43" 0.000567246280715268 -0.000237562131514783 0.000461560512624728 0.000477906649806535 0.000270860086613677 0.000417077119691696 0.000341858189551964 0.000213088039022343 0.000110805258345247 0.00013961519029072 0.000148607750729236 0.000259368236713324 6.93175694113381e-05 1.4195450568991e-05 -9.42306680826584e-05 0.000287717185822522
"44" 0.000565767681564555 -0.000236259209443826 0.000463477065898768 0.000487047164046981 0.000275548294883847 0.000426635532458461 0.000342168946549518 0.000204966857126804 0.000119799123983945 0.0001479310808449 0.000149917702726518 0.000271659972565208 6.24162946029184e-05 7.61426607060909e-06 -9.7768739249254e-05 0.000304949982416296
"45" 0.000564307174027382 -0.000234328194864118 0.000465463282423966 0.000494990857661926 0.000279544996767588 0.000435223353324178 0.000341620645053803 0.000196090569970649 0.000128478858252951 0.000155433483315557 0.000150772556847117 0.000283179320313386 5.48628853724291e-05 1.72510450169473e-06 -0.000101493978931157 0.000321521135623744
"46" 0.000562886414813989 -0.000231766442671594 0.000467554740856341 0.000501731462349502 0.000282877114739751 0.000442854862193149 0.000340308814656762 0.000186593702507125 0.000136698997289197 0.000162070622506656 0.000151145629367493 0.000293854122968048 4.67087410655924e-05 -3.54161055025275e-06 -0.000105402795796265 0.000337347265099844
"47" 0.0005615406076857 -0.000228570735617804 0.000469793118399815 0.000507282854421206 0.000285575353175582 0.000449556890677167 0.00033834464498225 0.000176625654234965 0.000144300667642677 0.000167792734451878 0.000151011705080356 0.000303614354031177 3.80185924427751e-05 -8.27329313463408e-06 -0.000109505259987363 0.000352346864899846
"48" 0.00056029721753164 -0.000224731415485915 0.000472220261999317 0.000511666277961464 0.000287682604989505 0.000455364853454737 0.000335841697886958 0.000166344088723841 0.000151132076049614 0.000172553724145843 0.000150346275060411 0.000312402081630314 2.88598852419684e-05 -1.25634528275242e-05 -0.000113799869515762 0.000366460239174592
"49" 0.000559185455025795 -0.000220236780874831 0.000474887976735445 0.000514910278905986 0.00028924189027086 0.000460322537848081 0.000332928369581072 0.000155906773345501 0.000157032638163491 0.000176314639264925 0.000149127825668728 0.00032016632376003 1.93054155847884e-05 -1.65224476833844e-05 -0.000118289577641801 0.000379638515762797
"50" 0.000558238775857536 -0.000215075836274737 0.000477842046936447 0.0005170572464305 0.000290305130700027 0.000464474857847864 0.000329718899768644 0.000145479457846489 0.000161851687840089 0.000179043151438687 0.000147342198121211 0.000326865805461402 9.43006821662318e-06 -2.02556993421001e-05 -0.000122976933291635 0.000391836477774439
"51" 0.000557476710507493 -0.000209245157255179 0.000481118691676787 0.000518154549181113 0.00029092459804301 0.000467874322517093 0.000326338778023159 0.000135214785767559 0.000165452713983584 0.000180713396191301 0.000144973530024086 0.000332464305552782 -6.9203343099564e-07 -2.38722779505214e-05 -0.000127860897133964 0.000403031573409936
"52" 0.000556923218162783 -0.000202737806955578 0.000484761184687536 0.000518252248434355 0.000291148448120776 0.00047057537830603 0.000322910623462142 0.000125270134591813 0.000167712906447625 0.000181307972674946 0.000142021529286173 0.000336940740936696 -1.0977852557881e-05 -2.74782086337786e-05 -0.000132935668589166 0.000413196893175232
"53" 0.000556593601931104 -0.000195555896761996 0.00048880076634066 0.000517411614968475 0.000291037586957432 0.00047263266894585 0.000319538592163263 0.000115787375601601 0.000168528933417236 0.000180824011628494 0.000138488380574228 0.000340280466827522 -2.13488304952855e-05 -3.11642274601205e-05 -0.000138196495714001 0.000422318713867837
"54" 0.000556498334619704 -0.000187714324876162 0.000493254680600875 0.000515687809693445 0.000290640737470446 0.000474100918085623 0.000316336646049389 0.000106895555157898 0.000167824922954567 0.000179262721435751 0.000134386199618106 0.000342475386011626 -3.1725502781841e-05 -3.50141938852766e-05 -0.000143629408952495 0.000430395818639528
"55" 0.000556632878172282 -0.000179232503442062 0.000498133774782782 0.000513147320772372 0.000290007609949503 0.000475033950803883 0.000313392007925548 9.87142647466118e-05 0.000165551840940861 0.000176641196561244 0.000129733668461497 0.000343533957146013 -4.20279057330749e-05 -3.90935424792556e-05 -0.000149215373594659 0.000437427483183345
"56" 0.000556993297933573 -0.000170136158357488 0.000503446080036716 0.000509855567947695 0.000289187769180014 0.000475481604239383 0.000310787846271326 9.13430282784827e-05 0.000161681058693055 0.000172985589086899 0.000124558744158802 0.000343466418391092 -5.2179231923607e-05 -4.34607581091723e-05 -0.000154936370734653 0.000443420238806499
"57" 0.000557562160651626 -0.000160467712143217 0.000509173913648725 0.000505876275403417 0.000288224895563394 0.00047549521125341 0.000308598421504258 8.48666690205523e-05 0.000156219171734813 0.000168332114030624 0.000118897791323177 0.000342295117997088 -6.21025984728901e-05 -4.81493614165144e-05 -0.000160766109224325 0.000448389008180925
"58" 0.000558319065938022 -0.000150274541777163 0.000515296302051805 0.000501284143752122 0.000287160340232593 0.000475115325187474 0.00030687353620639 7.9354599954394e-05 0.000149195588271799 0.000162726226943344 0.000112792343154018 0.000340049772701032 -7.17264622946615e-05 -5.31852555268108e-05 -0.000166671194938658 0.00045235122452965
"59" 0.000559228208633622 -0.000139613141952006 0.000521780358199371 0.000496141197481542 0.000286033459259396 0.000474388486351168 0.000305663408872398 7.48568242460448e-05 0.000140671677157872 0.000156225008424227 0.000106299235019659 0.000336771391208394 -8.09866002034656e-05 -5.85714891713477e-05 -0.000172617658309692 0.000455332378408993
"60" 0.000560254283651643 -0.000128546156053248 0.000528581509317105 0.000490523434937866 0.000284871964264493 0.000473351577609297 0.0003049946858124 7.14054125968474e-05 0.000130723481412876 0.000148890144474737 9.94701199463935e-05 0.000332503693895788 -8.98164876063687e-05 -6.43011557947963e-05 -0.000178569152830778 0.000457357079834165
"61" 0.000561355586166054 -0.000117145076696588 0.000535643986065604 0.000484499582284088 0.000283706894041124 0.000472039272105365 0.000304888032050954 6.90195842148934e-05 0.000119454680774805 0.000140792678012696 9.23664785947894e-05 0.000327301215427251 -9.81631395959808e-05 -7.03587448311327e-05 -0.000184481656045812 0.000458459293477907
"62" 0.000562485332782545 -0.000105487518755401 0.000542910493676963 0.000478139598630407 0.000282567372912618 0.000470485665647782 0.000305348008048208 6.77002643387432e-05 0.000106992046267382 0.000132009848057996 8.50576489822315e-05 0.000321223972073372 -0.000105971233476827 -7.6705054938949e-05 -0.00019031330616691 0.000458672995153484
"63" 0.000563594283741148 -9.36455645548265e-05 0.000550306446058502 0.000471519559095793 0.00028147009125237 0.000468723099177907 0.000306369835125807 6.74383887918689e-05 9.3469163544973e-05 0.000122624379410522 7.76130585465862e-05 0.000314337673747586 -0.000113196516220402 -8.33033867768083e-05 -0.000196012942564772 0.000458042307938236
"64" 0.000564628040956064 -8.16987581190357e-05 0.000557759973847344 0.000464713898128352 0.000280438525363377 0.000466778238091906 0.00030794015182444 6.82072751917391e-05 7.90372387929992e-05 0.000112718794471372 7.0097471806809e-05 0.000306713707080194 -0.00011980261837527 -9.01083465514171e-05 -0.000201541154556516 0.000456605935204416
"65" 0.000565545171533853 -6.97279746254389e-05 0.000565196419667737 0.000457796015109331 0.000279491325365173 0.000464678976619979 0.000310038462775523 6.99750200530717e-05 6.3853874741734e-05 0.00010237930297874 6.25850465844748e-05 0.000298426149022451 -0.000125755838208946 -9.70673775411544e-05 -0.000206842244436748 0.000454411456392452
"66" 0.000566290793711969 -5.78034748888442e-05 0.000572531718446269 0.000450842227324108 0.00027863631645699 0.000462451446439868 0.000312634833122011 7.26983368949005e-05 4.80847054268868e-05 9.16944182537925e-05 5.51436370142992e-05 0.000289554187542171 -0.000131036301651227 -0.000104126667365691 -0.000211878202389191 0.000451506578208453
"67" 0.00056682211658234 -4.59944805305654e-05 0.000579690271166706 0.00044393035145197 0.000277893623956252 0.000460124083880148 0.000315693663602579 7.63248022227676e-05 3.18992486243493e-05 8.07521864584802e-05 4.78420252900277e-05 0.000280180953228363 -0.000135627197545992 -0.000111229620070718 -0.000216599450800897 0.000447942883899867
"68" 0.00056709871660392 -3.4370411467648e-05 0.0005865934066246 0.000437136726512008 0.00027727099708498 0.000457718429493748 0.000319172901568235 8.08023550631433e-05 1.54561247305124e-05 6.96328140998519e-05 4.07422051528101e-05 0.000270385620812061 -0.000139521104053734 -0.00011832887782655 -0.000220962316100502 0.0004437691848612
"69" 0.000567087147086843 -2.29822246036783e-05 0.00059316241763592 0.000430539338925441 0.000276783937581378 0.0004552647392757 0.000323034276003661 8.60672537205872e-05 -1.07671065246498e-06 5.84244171100707e-05 3.39041200829755e-05 0.000260259017836742 -0.000142714891633338 -0.000125367243964539 -0.00022492690765852 0.000439043171805447
"70" 0.00056675524389047 -1.18814013628002e-05 0.000599327963741916 0.00042421655556682 0.000276436191399892 0.000452787047716143 0.000327228541445126 9.20606952420614e-05 -1.75446811038155e-05 4.71995189280037e-05 2.7383718106082e-05 0.000249882231675635 -0.000145218018485502 -0.000132301760143429 -0.000228456436903777 0.000433818568282852
"71" 0.000566083032415871 -1.10960526370019e-06 0.000605029917685778 0.000418245810974374 0.000276241836228923 0.000450313924521517 0.00033171625446015 9.87126691028245e-05 -3.37977938576995e-05 3.60363778877781e-05 2.12312724077162e-05 0.000239341131420587 -0.000147045002418629 -0.000139087946734977 -0.000231515390250383 0.000428145572962737
"72" 0.000565055877063573 9.30859777751476e-06 0.000610198438636133 0.000412700197147129 0.000276208860148283 0.000447871186512924 0.000336447718117886 0.000105961249866382 -4.96961465462168e-05 2.50043496567816e-05 1.54873632739083e-05 0.000228721053513499 -0.00014821887592065 -0.000145691834046073 -0.000234075077327635 0.000422082742630536
"73" 0.000563669330831063 1.93460939730139e-05 0.000614785845110985 0.000407656164059067 0.000276347113835492 0.000445488892265239 0.000341381437510565 0.000113743037244454 -6.511039132557e-05 1.41668793008872e-05 1.01942333503151e-05 0.000218101992198401 -0.000148766990454813 -0.000152077461383636 -0.000236107912195711 0.000415681373733182
"74" 0.000561916940338795 2.89975806715248e-05 0.000618743946901995 0.000403183413499464 0.000276662189944655 0.000443193671602577 0.000346472016761131 0.000121990854832174 -7.9927194751205e-05 3.57848693801779e-06 5.37507992047973e-06 0.000207566435224804 -0.000148723995044241 -0.000158226138127189 -0.000237594219012205 0.000408994308289244
"75" 0.000559816447102579 3.82622318781359e-05 0.000622038332527094 0.00039934837798648 0.00027717166677524 0.00044101807450619 0.000351680784536069 0.00013064627236564 -9.40359455366871e-05 -6.7043725700131e-06 1.06005583863248e-06 0.000197185780557803 -0.000148135339178445 -0.000164114898275687 -0.000238517947160532 0.000402069814218665
"76" 0.000557375921371224 4.71437692897132e-05 0.000624633046799533 0.000396216512867873 0.000277875869932059 0.000438993466971805 0.000356973443354894 0.000139646988935781 -0.000107345670143289 -1.66358664329744e-05 -2.7350855880225e-06 0.000187039524870584 -0.000147045148432736 -0.000169732065460176 -0.000238865373786063 0.000394957212578133
"77" 0.000554621028710536 5.56583134300407e-05 0.000626510128348683 0.000393844731817775 0.000278783980676549 0.000437144505408278 0.000362312375469023 0.000148938476904013 -0.000119775388368458 -2.61770343875161e-05 -6.00017632909611e-06 0.000177190781892308 -0.000145504470804182 -0.000175064626713239 -0.000238631342563586 0.000387703104799387
"78" 0.000551578165070762 6.38358623003867e-05 0.000627652896909723 0.000392291171663541 0.000279910316887896 0.000435505233915903 0.000367671377052398 0.000158465172199392 -0.000131258578582836 -3.52926294754976e-05 -8.73274560774161e-06 0.000167705339894904 -0.00014356977038751 -0.000180110786876018 -0.000237815178677485 0.000380350035456532
"79" 0.000548283814216407 7.17044326352236e-05 0.000628055861927616 0.000391599031543444 0.000281255229708379 0.000434101343909924 0.000373019679208945 0.000168173863554718 -0.000141736186267005 -4.39557423876371e-05 -1.09291274482608e-05 0.000158642455604287 -0.000141303179712863 -0.000184873045641963 -0.000236416767268924 0.000372936387702717
"80" 0.00054477301425937 7.92986797238697e-05 0.000627719198989431 0.000391808620917697 0.00028282743993237 0.000432965503341589 0.000378341397542884 0.000178018044542644 -0.000151161708560935 -5.21429387173672e-05 -1.26028994704339e-05 0.000150057272363435 -0.000138765787373432 -0.000189348115669167 -0.000234444277991254 0.000365501743684151
"81" 0.000541093259344491 8.66601643847947e-05 0.000626652463273369 0.000392954689107739 0.000284635392628105 0.000432122990826265 0.00038361567092639 0.000187951001955419 -0.000159503253712028 -5.98331590048463e-05 -1.3762968578799e-05 0.000141993015046708 -0.000136023210548781 -0.000193545028886019 -0.00023190822443172 0.000358075620503116
"82" 0.000537289248586177 9.38390666510604e-05 0.000624870516078508 0.000395061713963152 0.000286684506487883 0.000431598058818066 0.000388828987325036 0.000197929569590945 -0.000166734601289407 -6.7016280609669e-05 -1.44273366109876e-05 0.000134494937708608 -0.000133140450328778 -0.000197468264805621 -0.000228826510525878 0.000350688614822779
"83" 0.000533410114117964 0.000100879673727767 0.000622388450433253 0.000398147358100748 0.000288973706376727 0.00043141671537491 0.000393971175139172 0.000207914621582662 -0.000172836119433011 -7.36808937829516e-05 -1.46167661924373e-05 0.00012759769476318 -0.000130187469062584 -0.000201120436896989 -0.000225221123134003 0.000343369032542775
"84" 0.000529504681693159 0.000107830097792991 0.000619240564411167 0.000402216887799535 0.000291510432757856 0.00043159769782265 0.000399040528252084 0.000217867328711755 -0.000177808753719044 -7.98268659230654e-05 -1.43561611090679e-05 0.000121332035950721 -0.000127232533910816 -0.000204516888395704 -0.000221111541459751 0.000336134391478598
"85" 0.000525628767317413 0.000114744725611022 0.000615456419104958 0.0004072722962499 0.000294293874888849 0.00043216193852149 0.000404033064199568 0.000227752869756769 -0.000181645618520471 -8.54499632872855e-05 -1.36773658556662e-05 0.000115717909145423 -0.000124338595777004 -0.000207656362718707 -0.000216527810162655 0.000329004250751086
"86" 0.000521827074066485 0.000121671702716949 0.000611073482544953 0.000413299183723136 0.000297320975990873 0.000433124931247323 0.000408951015630637 0.00023753908892679 -0.000184358189466254 -9.0555054055001e-05 -1.26118364999809e-05 0.000110772643399832 -0.000121576105763109 -0.000210550793294468 -0.000211502589718759 0.000321991563191579
"87" 0.000518156711424213 0.000128658965810641 0.00060612792339268 0.00042028041930309 0.000300595626584291 0.000434497516964491 0.000413794894802923 0.000247191038348615 -0.000185963466788745 -9.51500460937261e-05 -1.11951149789617e-05 0.000106505216743549 -0.000119007804016699 -0.000213206199416736 -0.000206071159746647 0.000315110284865273
"88" 0.000514666113760903 0.000135757551431113 0.000600676168413827 0.000428182877577148 0.000304110437676679 0.000436292527445934 0.000418581253017184 0.000256686861134545 -0.00018648173841848 -9.92470251321376e-05 -9.46411446671793e-06 0.00010292273584501 -0.000116695277429195 -0.000215624260922325 -0.000200266820470648 0.000308364085300414
"89" 0.000511402797260024 0.000143011067738722 0.000594756928634276 0.00043696774600886 0.000307857729053374 0.000438509891988546 0.000423316234664855 0.000265995425782626 -0.000185944964742031 -0.000102855582678451 -7.45692610367679e-06 0.000100016797271586 -0.000114700712849482 -0.00021781668383591 -0.000194137071060782 0.000301757207681578
"90" 0.000508412852913553 0.0001504643924989 0.000588431959667306 0.000446589267446461 0.000311838321878054 0.000441157522569675 0.00042801548856827 0.000275098092272109 -0.000184387852339035 -0.000105997831864808 -5.22073517611359e-06 9.77808182426132e-05 -0.000113079233873 -0.000219779840491852 -0.000187719868921745 0.000295288109518025
"91" 0.000505741891257219 0.000158152428338572 0.000581751004153068 0.000456988595380601 0.000316036841674748 0.000444229974699539 0.000432698404457762 0.000283972512627104 -0.000181855052120274 -0.000108692512653765 -2.79476262069034e-06 9.61998233448367e-05 -0.000111883418248461 -0.000221529354307726 -0.00018106438506289 0.000288958413938276
"92" 0.00050343184775423 0.000166117466403804 0.000574778311674282 0.000468097928623792 0.000320444405279555 0.000447721049067092 0.000437378074943119 0.000292600105461508 -0.000178395411826195 -0.000110960934889575 -2.25682122257555e-07 9.52536961420238e-05 -0.000111159837683165 -0.000223062909617703 -0.000174219592849885 0.000282759192377035
"93" 0.00050151601082352 0.000174392120485746 0.000567571233470205 0.000479848752187751 0.000325052235671931 0.000451622777654351 0.000442078981131012 0.000300966609914014 -0.000174066465367951 -0.00011283302341868 2.43890901584952e-06 9.49127826665186e-05 -0.000110955368283074 -0.000224392496848577 -0.000167237255429608 0.000276683266269459
"94" 0.00050003076504389 0.000183001531967554 0.000560192878061178 0.000492157852389005 0.000329844975575261 0.000455921225837559 0.000446824512941786 0.000309059491913108 -0.000168932181606863 -0.000114335995187383 5.15547883432153e-06 9.51485774176572e-05 -0.000111308013194923 -0.000225524282074253 -0.000160166838055029 0.000270721101604309
"95" 0.000499007287520662 0.000191970977436454 0.000552705796592015 0.000504935735367807 0.000334810390002845 0.000460598111554337 0.000451638962161733 0.000316870720289181 -0.000163061082751251 -0.000115501878623579 7.86786960464715e-06 9.59215053459063e-05 -0.000112251949623873 -0.000226469835646161 -0.000153066002880173 0.000264859506940519
"96" 0.000498467919072425 0.000201324093010335 0.000545176761358098 0.000518089892598238 0.000339933204407975 0.000465632307057558 0.000456544389869751 0.000324393807204582 -0.000156530261196168 -0.000116366106691553 1.05346232767863e-05 9.71940344710616e-05 -0.000113812605232855 -0.000227236405694224 -0.00014598655549356 0.000259083566430857
"97" 0.00049843785347257 0.000211071949090087 0.000537667548177876 0.000531521826830061 0.00034519469214492 0.000470997499513126 0.000461568955833128 0.00033162555184334 -0.000149421863864552 -0.000116964762865656 1.31036850764696e-05 9.89195691041148e-05 -0.000116019743112118 -0.000227846935083235 -0.000138989348940147 0.000253381694975027
"98" 0.000498927778029802 0.000221226373328505 0.000530244113306819 0.000545127952779026 0.000350576838284631 0.000476663892030045 0.000466736603179561 0.000338567073901044 -0.000141827052536343 -0.000117339767074014 1.55226111204972e-05 0.000101051354782682 -0.000118885342850676 -0.000228317534543033 -0.000132129330293892 0.000247735999081182
"99" 0.000499952756073851 0.0002317950900489 0.000522967574313925 0.0005588004682085 0.000356058304525107 0.000482600258650984 0.000472070182843297 0.000345218529265137 -0.000133839363273163 -0.000117531341557465 1.77452235492175e-05 0.000103538431962033 -0.000122425328345534 -0.000228670287374135 -0.000125460281657669 0.000242131068887072
"100" 0.000501515116636028 0.000242778308988142 0.000515900042258468 0.000572430512882553 0.000361621867126399 0.000488766464087633 0.000477598733231966 0.00035158274670276 -0.000125551233064897 -0.000117580665842151 1.97236214992089e-05 0.000106326108828276 -0.000126645744655798 -0.000228922096827164 -0.000119046040399021 0.000236547061465453
"101" 0.000503617591333304 0.000254172236068638 0.000509100753484 0.000585903695961914 0.000367246111991326 0.000495121655645331 0.000483338191635914 0.00035767100559933 -0.000117071659108127 -0.000117534871657799 2.14064494884076e-05 0.000109361249521474 -0.000131548125008357 -0.000229104473798227 -0.000112935187826473 0.000230968398397704
"102" 0.000506247669646832 0.000265962116711902 0.000502620099615684 0.000599104271630889 0.000372901857763957 0.000501624055402592 0.000489311194074936 0.000363486125781051 -0.000108499401787987 -0.000117437205693941 2.27519904048129e-05 0.000112587460417273 -0.000137127252023558 -0.000229241258547983 -0.000107188848037895 0.000225376786547867
"103" 0.000509396942463648 0.000278136107762725 0.000496512065335026 0.00061192176312538 0.000378569098934151 0.000508224250294152 0.000495539146643794 0.000369037953977895 -9.99449879574621e-05 -0.000117337147631837 2.37117394200721e-05 0.000115945082334362 -0.000143377255746437 -0.000229366776755103 -0.000101854210130229 0.000219752671077141
"104" 0.000513046412657047 0.00029067288465601 0.000490817928856059 0.000624237935970713 0.000384222072902341 0.00051487110418978 0.000502030431615331 0.000374334387876601 -9.15087653398235e-05 -0.000117279210861411 2.4243811094277e-05 0.000119378556122736 -0.000150281157733143 -0.000229507415154981 -9.69828928245089e-05 0.000214079546953111
"105" 0.000517161970015571 0.000303541523773086 0.00048557804118382 0.000635938419675283 0.000389826127647576 0.000521507311123433 0.000508794170828375 0.000379383934108352 -8.32971769036404e-05 -0.000117311043773736 2.43098912449793e-05 0.00012283083275302 -0.000157821396171876 -0.000229695009198072 -9.26274946543305e-05 0.000208339108682191
"106" 0.000521718868526989 0.000316714564223228 0.000480824216170734 0.000646914089432858 0.000395360774780704 0.000528077816556935 0.000515837066631148 0.000384192621591866 -7.54125621675368e-05 -0.000117475959586512 2.38726575647873e-05 0.000126244457571171 -0.000165976129893513 -0.000229962966967251 -8.88243794352026e-05 0.000202516083482469
"107" 0.000526674396958555 0.000330146937949611 0.000476580703286446 0.000657051384954711 0.000400786598325761 0.000534523359164606 0.000523159704581368 0.000388768727338886 -6.79483033887475e-05 -0.000117819942207394 2.29008566933154e-05 0.000129565885193975 -0.000174715638899781 -0.000230334940059837 -8.56206846514083e-05 0.000196586619445798
"108" 0.00053197942381196 0.000343795893909428 0.000472862932704219 0.000666243530999351 0.000406075496639241 0.00054077500333064 0.000530753654852454 0.000393114100432223 -6.10003439481228e-05 -0.000118387340139628 2.13636548675369e-05 0.000132738674582847 -0.000184012976650525 -0.000230842716146556 -8.3047804902053e-05 0.000190535822037027
"109" 0.000537579547786948 0.000357609974053664 0.000469683880141812 0.000674389103119931 0.000411190620658975 0.000546772076489879 0.000538611838239645 0.00039722947320973 -5.46518329772875e-05 -0.000119214248161513 1.9236456858806e-05 0.000135715229787672 -0.000193832388724014 -0.000231511019687737 -8.11383708279264e-05 0.000184349198136985
"110" 0.000543419680627891 0.000371536307285368 0.000467044007316675 0.000681386490064819 0.000416099631974565 0.000552444189026886 0.000546706226303148 0.000401113038246388 -4.89807071723315e-05 -0.000120344335383182 1.64982120323906e-05 0.00013844504528786 -0.000204139436291893 -0.000232359644877287 -7.99165920295001e-05 0.000178002975011559
"111" 0.000549430681953383 0.000385515153893316 0.000464929924944496 0.000687144200657103 0.000420765307839646 0.000557726659128043 0.000555024253139695 0.000404757939935559 -4.40537162095097e-05 -0.000121809763165921 1.31380503170709e-05 0.000140882455788219 -0.000214890054252495 -0.000233405825600853 -7.94035671471302e-05 0.000171482900920718
"112" 0.000555541878446492 0.000399482655650842 0.000463326307105989 0.000691574828628539 0.000425145498901053 0.000562544523623917 0.000563528660281856 0.000408157280515624 -3.99303897576023e-05 -0.000123644559086448 9.1414648723843e-06 0.000142985097160578 -0.00022604603871516 -0.000234661533621178 -7.9615792071056e-05 0.000164772269247393
"113" 0.000561678150872598 0.000413369411694122 0.000462208843181143 0.000694598408616783 0.000429208413956015 0.000566832989957671 0.000572176853913281 0.000411299992596513 -3.66603086156176e-05 -0.000125877994530276 4.50420384100601e-06 0.000144715203697093 -0.000237562149825702 -0.000236142422278041 -8.05610060185915e-05 0.000157847239865714
"114" 0.000567760411226163 0.000427105688075523 0.000461541446506437 0.000696139256792471 0.000432910343312832 0.000570518562675361 0.000580940506796935 0.000414167054486813 -3.42801970379795e-05 -0.000128533200426739 -7.72953778628284e-07 0.000146036954490384 -0.000249395772207738 -0.000237846415875043 -8.223798210227e-05 0.000150694534605301
"115" 0.000573703140541403 0.00044062443533626 0.000461286006129646 0.000696131923147562 0.00043621364806047 0.000573536740243693 0.000589756899469608 0.000416743239551985 -3.28197979568833e-05 -0.000131635796462462 -6.68529441353599e-06 0.000146921991125677 -0.000261499238452326 -0.000239775141746807 -8.46491597396835e-05 0.000143294509646102
"116" 0.000579423375114443 0.000453848806300066 0.000461387255275516 0.000694522566607739 0.000439079037548627 0.000575817595668506 0.000598577860467257 0.000419008539777244 -3.22924728218335e-05 -0.000135201987616829 -1.32197506940886e-05 0.000147344396852903 -0.00027382857091441 -0.000241927499851586 -8.7782843323867e-05 0.000135624565888668
"117" 0.000584833509448531 0.000466706469909822 0.000461796812432626 0.000691262072415556 0.000441472449326086 0.000577299364998401 0.000607344575295705 0.000420934660397201 -3.27029573227217e-05 -0.000139242828003989 -2.03618373154998e-05 0.000147282777875662 -0.000286333856068026 -0.000244289638103696 -9.16240897078248e-05 0.000127671760625854
"118" 0.000589845643484812 0.000479126912313576 0.000462445512231682 0.000686312276650197 0.000443351783066902 0.000577918627006855 0.000615994594259989 0.000422498266077134 -3.40486608271896e-05 -0.000143771481297037 -2.80954817775839e-05 0.000146718155510366 -0.000298972075840371 -0.000246847385565668 -9.61497451479573e-05 0.000119408658946911
"119" 0.000594374682837024 0.00049103755726369 0.000463270828871476 0.000679644883490289 0.000444685533993318 0.000577620523398297 0.000624462754497105 0.000423672735289712 -3.63119306123837e-05 -0.000148793837564281 -3.63890647157728e-05 0.000145643046784019 -0.000311697071895579 -0.000249587013037217 -0.000101334102522796 0.00011082420876049
"120" 0.000598332297729495 0.00050237244688241 0.000464197962388751 0.00067124199115883 0.000445439842201562 0.000576350254621083 0.000632678277899957 0.000424431271441117 -3.94691945711376e-05 -0.000154307570748344 -4.52156272985439e-05 0.000144048222399717 -0.000324458613748439 -0.000252482739165171 -0.000107147213543337 0.0001018904979499
"121" 0.000601639333302042 0.000513068558576835 0.000465158610712292 0.000661097273697793 0.000445582406653164 0.000574061995651379 0.000640573219419459 0.00042474705484734 -4.34836131852929e-05 -0.00016031496006418 -5.45431595278806e-05 0.000141933576167467 -0.000337216608558832 -0.000255514062801757 -0.000113550933915779 9.25916847868739e-05
"122" 0.000604210707152812 0.000523062488630373 0.00046606731276029 0.000649216460062776 0.000445089816933183 0.000570714378696618 0.000648078369207789 0.000424589958341692 -4.8313697997239e-05 -0.000166803032331156 -6.43338449786348e-05 0.000139301207348124 -0.000349925484474135 -0.000258650630951518 -0.000120504610492994 8.29073129125792e-05
"123" 0.000605974026748106 0.00053229700852476 0.000466849724685642 0.000635609232590518 0.000443934638732234 0.000566272556726639 0.000655122488290353 0.000423939556269576 -5.39106705453736e-05 -0.000173767786743762 -7.45451853241381e-05 0.000136160775207585 -0.00036254476865961 -0.000261866330821472 -0.000127959830694378 7.28172993564162e-05
"124" 0.000606858691631318 0.000540729007926557 0.00046743008208149 0.000620305650258466 0.000442098681514194 0.000560709296720199 0.000661636770421606 0.000422768490451913 -6.02165762094377e-05 -0.000181190374959154 -8.513598769129e-05 0.000132524993341806 -0.000375029752324545 -0.00026512965373926 -0.000135871044743713 6.23038317008489e-05
"125" 0.000606800659292032 0.000548306272256313 0.000467728611868959 0.000603338896946144 0.000439563865560569 0.000554001430027571 0.000667556386869293 0.00042106213585095 -6.71696408548726e-05 -0.000189051484843229 -9.60586001446629e-05 0.000128413455265403 -0.000387341936749782 -0.000268407508380855 -0.000144182889148922 5.13493632746393e-05
"126" 0.000605736261775494 0.000554990654480353 0.000467666507885722 0.00058475604337826 0.000436318975470902 0.000546141905250904 0.000672818402539272 0.000418797489596857 -7.46998906500514e-05 -0.000197330986963682 -0.000107263420902234 0.000123846938391667 -0.000399443447252642 -0.000271667888789431 -0.000152840780151357 3.99365670327846e-05
"127" 0.00060361898460579 0.000560753776613363 0.000467172404434778 0.000564611525408655 0.000432359271402778 0.000537124549491072 0.000677364178778999 0.000415970068538495 -8.27366257593351e-05 -0.000206001648802606 -0.000118698640425874 0.000118853671195104 -0.000411299111645835 -0.000274881054174134 -0.000161786732464769 2.80533006417122e-05
"128" 0.000600401199141243 0.000565569655734402 0.000466172787476493 0.000542973336622765 0.00042768188225411 0.000526953888184119 0.000681140319707699 0.00041256414986398 -9.12088665364608e-05 -0.000215035596187993 -0.000130313436067698 0.000113465066020797 -0.000422869015130391 -0.000278014004689546 -0.000170962230791932 1.5684279435562e-05
"129" 0.000596048168193997 0.000569414370648692 0.00046460179537332 0.000519911862439296 0.00042229023704999 0.000515647238299951 0.000684099243315772 0.000408585923216263 -0.000100032848909558 -0.000224398479084512 -0.000142053930744613 0.00010771752388079 -0.000434124105607003 -0.000281033726623366 -0.000180306135416003 2.82232097362124e-06
"130" 0.000590530386151137 0.000572282692319577 0.000462403844880401 0.000495514026496728 0.000416192914215025 0.00050322542715237 0.000686200371512604 0.000404031078513783 -0.00010913378281848 -0.000234055783439226 -0.000153864036934038 0.000101651224147546 -0.000445030053704761 -0.00028391217625401 -0.000189756294162337 -1.0539039022941e-05
"131" 0.000583830415895916 0.000574163335309866 0.000459514792161821 0.00046986754755873 0.000409403963861687 0.000489719826165392 0.000687410076568341 0.000398914609525904 -0.000118427412973559 -0.000243965318831004 -0.000165687183378104 9.53069672459717e-05 -0.000455556890547901 -0.00028662113943152 -0.000199248515195913 -2.44062626970583e-05
"132" 0.000575930964018236 0.000575056829133019 0.000455885504787395 0.000443070746537478 0.000401944855198251 0.000475172955544694 0.000687703383897512 0.00039324706163933 -0.000127840213535685 -0.000254090590804635 -0.00017746909377418 8.87342907067702e-05 -0.000465673781721239 -0.000289137731133263 -0.000208727036141792 -3.87743777656754e-05
"133" 0.000566834344763022 0.000574971462922112 0.000451477141547056 0.000415226290053764 0.000393841102854531 0.000459635241891193 0.000687060343546798 0.000387054748899751 -0.000137289240868001 -0.000264383232831973 -0.000189152389026947 8.19807720541043e-05 -0.000475353846827066 -0.000291432526663438 -0.000218127379982524 -5.36389666194698e-05
"134" 0.000556542286228479 0.000573920895484689 0.000446244586449042 0.000386443751701439 0.000385118384354329 0.000443164945169969 0.000685472309346486 0.000380364060056625 -0.000146699134990162 -0.000274799197744878 -0.000200680328053732 7.50998865131031e-05 -0.000484571088837117 -0.000293487374536652 -0.000227390302461399 -6.89886814178753e-05
"135" 0.000545066086140657 0.00057192358730795 0.000440166993586805 0.000356835951871082 0.000375820374942 0.000425826582177322 0.000682943332345804 0.000373207559877346 -0.000155993296880039 -0.000285289356088265 -0.000211999354617419 6.81445481857545e-05 -0.000493298350784904 -0.000295286579737082 -0.000236457521867984 -8.48111054215557e-05
"136" 0.00053242945798073 0.000568997400951886 0.000433217939096116 0.000326518830362128 0.000365981740645339 0.000407696203148967 0.000679480367437004 0.000365628532734966 -0.000165101201433301 -0.000295803117140821 -0.000223054596205261 6.11718775784659e-05 -0.0005015140641158 -0.000296812194883345 -0.00024527650017777 -0.000101081384703431
"137" 0.000518659419934229 0.000565174867798169 0.000425383590920265 0.000295615033610183 0.000355646155717871 0.000388856529141065 0.00067510170879051 0.000357669733252866 -0.000173952989432839 -0.000306289492343636 -0.000233791830809011 5.42408266402599e-05 -0.000509190382530764 -0.000298051799496345 -0.000253788929776426 -0.000117772040388279
"138" 0.000503789742841447 0.000560483366354623 0.000416659835457794 0.000264243575155039 0.000344870370353755 0.000369395764132435 0.000669835167818808 0.000349388128970624 -0.000182484866020726 -0.000316697969298086 -0.000244158926351902 4.74081151964606e-05 -0.000516308456057754 -0.000298999871059217 -0.000261946596202518 -0.000134851328414351
"139" 0.000487865052522152 0.000554960489130275 0.000407045013633181 0.000232525600915999 0.000333700688564074 0.000349407527238498 0.000663717979669265 0.000340838732221384 -0.000190640754082799 -0.000326975590254745 -0.000254108875682108 4.07328182683609e-05 -0.000522845150488937 -0.00029965162761023 -0.000269706652310371 -0.000152278231456875
"140" 0.000470933069854055 0.000548642020865699 0.000396552515685748 0.000200582951048867 0.000322198433729458 0.000328990500948472 0.000656798451561352 0.000332085876795229 -0.000198360820723454 -0.00033706589834126 -0.000263588094335977 3.42767041867541e-05 -0.000528781574021485 -0.000300005355585821 -0.00027702015963682 -0.000170008080680651
"141" 0.000453046722416641 0.000541572552622691 0.000385200364645839 0.00016854023242715 0.000310422760145825 0.000308254598093154 0.000649124729656651 0.000323193796189433 -0.000205599516882188 -0.000346919721460569 -0.000272555939235643 2.80970136711943e-05 -0.000534096736600435 -0.000300064658978075 -0.000283851683514199 -0.000187986187077921
"142" 0.000434267603643993 0.00053379278501157 0.00037300994261276 0.000136515605068426 0.000298438145216167 0.000287303073265105 0.000640761587951355 0.000314238207080047 -0.000212315309960222 -0.000356484314745826 -0.00028096727705239 2.22513353392169e-05 -0.000538772469386725 -0.000299841414838586 -0.000290162641821298 -0.000206155027167534
"143" 0.000414658424322138 0.000525350519245504 0.00036001988284816 0.000104624248947955 0.00028630721034566 0.000266252337108447 0.00063177861512289 0.00030529062514315 -0.000218472627849711 -0.000365707139949129 -0.000288780870745563 1.67984008859078e-05 -0.000542789404595582 -0.000299341736051033 -0.000295926123129287 -0.000224446915751243
"144" 0.000394289523694842 0.000516283244046248 0.00034626695903474 7.29820411991711e-05 0.000274095693213774 0.000245210746744717 0.000622249429881779 0.00029642981650864 -0.000224038275254671 -0.000374538563268419 -0.000295962634165004 1.17920053277936e-05 -0.000546130504853432 -0.000298579948658892 -0.00030111450227684 -0.000242797107270094
"145" 0.000373229628212276 0.000506647195932909 0.000331799035323979 4.16974406704813e-05 0.00026187625423114 0.000224298258828682 0.000612257822869203 0.000287733732999546 -0.000228991826453508 -0.000382930744020438 -0.000302474479342819 7.28564528486082e-06 -0.000548780526707895 -0.000297575504299152 -0.000305705990997191 -0.000261124930174738
"146" 0.000351554840577708 0.000496485323826339 0.000316667088230311 1.08741248940165e-05 0.000249710375346244 0.00020362492437642 0.000601886241313506 0.000279286249944061 -0.000233318190278101 -0.000390836027475092 -0.00030828657676373 3.32930127774858e-06 -0.000550718655373805 -0.000296350994523472 -0.000309682697081818 -0.000279350817437819
"147" 0.000329341327262115 0.000485843395254583 0.000300932704699463 -1.93875839653083e-05 0.00023766858238691 0.000183307596898507 0.000591227323920794 0.000271165314169189 -0.000237008438200045 -0.00039821439982397 -0.000313376536516158 -3.06251368336309e-08 -0.000551935455429434 -0.000294930840149265 -0.000313038114320367 -0.000297392076809244
"148" 0.000306667386526905 0.000474769441616787 0.000284662347461216 -4.89954528245765e-05 0.00022581834557222 0.000163456507537938 0.000580371597878374 0.000263452814858355 -0.000240057958083143 -0.00040502078157168 -0.000317715087172106 -2.7510699239331e-06 -0.000552415266487259 -0.000293339383167698 -0.000315757095217672 -0.000315161964429815
"149" 0.00028360809284639 0.00046330547681603 0.000267914787663778 -7.78630070645039e-05 0.000214224021566664 0.000144179782802502 0.00056941352790955 0.000256227890593097 -0.000242469908344599 -0.000411219079875686 -0.000321289519526406 -4.79064455722648e-06 -0.000552142592092852 -0.000291605585783723 -0.000317844398824032 -0.000332567795256974
"150" 0.000260245083427599 0.00045149458217577 0.000250771608320493 -0.000105914402451303 0.000202947277263316 0.000125584113418435 0.000558445979780311 0.000249566631352722 -0.000244256488131079 -0.000416773735326589 -0.000324077921384479 -6.11880154080952e-06 -0.000551105788881975 -0.000289765630631069 -0.00031929837140325 -0.000349519959028182
"151" 0.000236650989767018 0.000439378709668641 0.000233305572781007 -0.000133079528597411 0.000192048599190481 0.000107765762856507 0.000547568876800626 0.000243542833899982 -0.000245433985668416 -0.000421654152011283 -0.000326073817285239 -6.70456701265504e-06 -0.000549292243267341 -0.000287846767517581 -0.000320129065946211 -0.00036592789553485
"152" 0.000212903383278291 0.000426996085601536 0.000215593069221623 -0.000159293047786942 0.000181583237316419 9.08169059211614e-05 0.000536868421326824 0.000238228152082559 -0.000246020190361789 -0.000425833398155453 -0.000327268598240288 -6.52256479387335e-06 -0.000546692712947268 -0.000285881575332012 -0.000320344411686867 -0.000381697886467038
"153" 0.000189075997459924 0.000414384563385294 0.000197716124919127 -0.000184502699734195 0.000171600735686426 7.48258285408324e-05 0.000526438326202043 0.000233684789549133 -0.000246037877923977 -0.000429284826878015 -0.000327660329171119 -5.55424484024288e-06 -0.000543297842052597 -0.000283902818804706 -0.000319961347218431 -0.000396743993070673
"154" 0.000165240270614729 0.000401576847257045 0.000179748259594964 -0.000208665129347549 0.000162152094808389 5.98672374298588e-05 0.000516361547154081 0.000229971633802542 -0.000245521156292402 -0.000431990937847356 -0.000327248695003497 -3.78710661230954e-06 -0.000539100073255727 -0.000281940582023445 -0.00031899853540429 -0.000410977927909805
"155" 0.000141460400926102 0.000388601971581102 0.000161775657469856 -0.000231745083077374 0.000153276457149886 4.60119526962585e-05 0.00050671967023699 0.000227141709176846 -0.000244500557696318 -0.000433937726954314 -0.00032603965844747 -1.21480361638281e-06 -0.000534091718195528 -0.000280027263700309 -0.000317477009534422 -0.000424314413905085
"156" 0.000117798488427875 0.000375486965162438 0.000143874207907606 -0.000253715322964387 0.000145007834160502 3.33184259574837e-05 0.000497585045307625 0.000225239730505352 -0.000243011257917905 -0.000435110098864312 -0.000324039174751246 2.16430961842808e-06 -0.000528268616691667 -0.000278188238035338 -0.00031542358299288 -0.000436679067818458
"157" 9.43162429074634e-05 0.000362254288851679 0.000126118037598908 -0.000274561104796739 0.000137378377558136 2.18336420827113e-05 0.000489027739754064 0.000224301360472905 -0.000241090186290588 -0.000435503706177369 -0.000321266452574443 6.34394287601001e-06 -0.000521632148391072 -0.000276451632719807 -0.000312866112352952 -0.000447998025368503
"158" 7.10657528482274e-05 0.000348925274950125 0.000108587390442408 -0.000294275554824609 0.000130405121724841 1.15956424243334e-05 0.00048110311090187 0.000224356030804424 -0.000238778070175159 -0.000435111789915783 -0.000317734257705523 1.13097822060569e-05 -0.000514174505423263 -0.000274835674232172 -0.000309834297910574 -0.000458206811960429
"159" 4.80919408143133e-05 0.000335513087298173 9.13509378639081e-05 -0.000312858872979802 0.000124108727400358 2.63026365093173e-06 0.000473865172817418 0.000225417184129536 -0.000236109675595164 -0.0004339371090873 -0.00031346032300835 1.70467865628334e-05 -0.000505899907047429 -0.000273357965509749 -0.000306364236699845 -0.000467250912439725
"160" 2.54431689906569e-05 0.000322036963067679 7.44711372590809e-05 -0.000330322974485028 0.000118493819499221 -5.04757669335677e-06 0.000467350098422015 0.000227497427315798 -0.000233132213427289 -0.000431985968449923 -0.000308474251331114 2.35280311835858e-05 -0.000496811661768486 -0.000272036397489617 -0.000302486992065172 -0.000475075312251005
"161" 3.1477699899613e-06 0.000308500088660457 5.80183129257113e-05 -0.000346690360632677 0.000113559067101624 -1.14386118052158e-05 0.000461593575703615 0.000230588049630854 -0.000229877483736334 -0.00042926369679837 -0.000302796888348711 3.07214502684301e-05 -0.000486914298908147 -0.000270875618169628 -0.000298238299779663 -0.000481645361339533
"162" -1.87567987806743e-05 0.000294907358921993 4.20443291918837e-05 -0.000361988387600105 0.000109296999446193 -1.65486013217371e-05 0.000456611990146773 0.000234682269457882 -0.000226390520144229 -0.000425786730080625 -0.000296462541988159 3.85894186594911e-05 -0.000476219623542069 -0.000269882410202763 -0.000293654622206463 -0.000486931516645347
"163" -4.02516876158542e-05 0.000281266721712627 2.66018656997604e-05 -0.000376250523139215 0.000105696343882879 -2.04009856398301e-05 0.000452415837301698 0.000239751930009281 -0.000222704814315132 -0.00042156881400142 -0.00028950463377223 4.70874401306854e-05 -0.000464734667424222 -0.000269051105153347 -0.000288774337039974 -0.000490911925065921
"164" -6.13155484378538e-05 0.000267576966682406 1.17394645952387e-05 -0.000389524810844889 0.0001027274271056 -2.30297988080142e-05 0.000449004822966763 0.000245762169489239 -0.000218858361805268 -0.000416630384927094 -0.000281952685118269 5.6168072024333e-05 -0.000452475774191955 -0.000268378790301588 -0.000283631608933799 -0.000493582401534385
"165" -8.19344151594259e-05 0.00025383348386572 -2.50773178219823e-06 -0.0004018620595684 0.000100367031071573 -2.44806278049708e-05 0.000446363790881499 0.00025266720573653 -0.000214883727772596 -0.000410996836176182 -0.000273852999464373 6.57751601523294e-05 -0.000439459399307675 -0.000267852892050407 -0.000278266772363959 -0.000494943621407084
"166" -0.000102107269193156 0.000240033857081512 -1.61082215547186e-05 -0.000413314559670583 9.85740569776946e-05 -2.48066498655654e-05 0.000444474367796731 0.000260413901223814 -0.000210814324089417 -0.000404692377953412 -0.000265239255483376 7.58496856287042e-05 -0.000425704274737004 -0.000267454677713234 -0.000272712103000741 -0.000495007168886557
"167" -0.000121830868791226 0.000226169339769608 -2.90320083481631e-05 -0.000423949763962305 9.73018102873705e-05 -2.40742405788972e-05 0.000443297674687512 0.000268930642850678 -0.000206674716751328 -0.000397747885043446 -0.000256157509301734 8.63279396158676e-05 -0.000411238074501144 -0.000267161586123886 -0.000267004522140149 -0.000493799447991114
"168" -0.000141108387823882 0.000212237842852317 -4.12648212167103e-05 -0.000433832695353086 9.65048228651968e-05 -2.23617110166444e-05 0.000442793421062283 0.000278143384814666 -0.000202496433033715 -0.000390196023185028 -0.000246649085094895 9.71429597127774e-05 -0.000396080669857445 -0.00026694386452802 -0.000261178897054952 -0.000491355052587293
"169" -0.000159947733822596 0.000198225620064307 -5.27885035742191e-05 -0.000443031471050221 9.61241960391946e-05 -1.97499565064183e-05 0.000442910929053228 0.000287969660440397 -0.000198304033935499 -0.000382071403636666 -0.000236762707170585 0.000108223754165267 -0.000380267314532052 -0.000266776199548141 -0.000255265537061689 -0.000487719237680823
"170" -0.000178365921184736 0.000184128443812122 -6.36074398645889e-05 -0.000451621170989356 9.6099924048442e-05 -1.63300664045446e-05 0.000443586373458879 0.000298314800296952 -0.000194114313579273 -0.000373410058925629 -0.000226541608401785 0.000119493623708804 -0.0003638309248981 -0.000266615526543231 -0.000249296554372803 -0.000482947106962434
"171" -0.000196380239460135 0.000169936555399479 -7.37164213414368e-05 -0.000459674364941701 9.63668322033195e-05 -1.2201674106386e-05 0.000444750398328576 0.000309075215951232 -0.000189946733841298 -0.000364253036802011 -0.000216033849387131 0.000130881743896624 -0.000346805371804926 -0.000266428475956131 -0.000243301211652316 -0.000477101369863833
"172" -0.000214008510981082 0.000155647501239422 -8.31209719946153e-05 -0.000467271786792911 9.68535603853942e-05 -7.46652813218167e-06 0.000446328856753888 0.000320151217351423 -0.000185820544591363 -0.000354640412137212 -0.000205290132291147 0.000142308306350077 -0.00032923013001173 -0.000266166114914745 -0.000237304577625474 -0.00047026212537386
"173" -0.000231274779485797 0.000141250677144577 -9.1841470474423e-05 -0.000474484127082095 9.7490863167701e-05 -2.22965287018421e-06 0.000448242129116793 0.000331426586263842 -0.000181750836984148 -0.000344612468850719 -0.000194353812429758 0.000153696519136945 -0.000311150410811614 -0.000265788049715451 -0.000231333556862465 -0.000462502170541835
"174" -0.000248202198220417 0.000126746837316698 -9.98906765778665e-05 -0.000481388300846147 9.8205488744628e-05 3.39364871543225e-06 0.000450401786825451 0.000342788068347555 -0.000177747549829124 -0.000334214632777089 -0.000183279768018802 0.000164966246421386 -0.000292612491303203 -0.000265248721477583 -0.000225407958477467 -0.000453914605408749
"175" -0.000264814879517102 0.00011213251307606 -0.000107294632669873 -0.000488057270139157 9.89206891540496e-05 9.29740478526554e-06 0.000452720456194121 0.000354121286435142 -0.000173818862490767 -0.000323489040676644 -0.000172108045737565 0.000176046555499398 -0.000273662122317507 -0.000264499380031839 -0.00021955124819579 -0.000444591032852191
"176" -0.000281142978759485 9.74087662787211e-05 -0.000114080846062948 -0.000494559538816261 9.95660882398212e-05 1.53686885118459e-05 0.000455104490818464 0.000365303383343416 -0.000169975879427773 -0.000312478548366733 -0.000160891493691292 0.000186858521155245 -0.00025435262949463 -0.00026349003582711 -0.000213777755334321 -0.000434634393425102
"177" -0.000297209898741735 8.25846450815315e-05 -0.000120279453427898 -0.000500964339877164 0.000100061453109108 2.14970119179435e-05 0.000457463898175132 0.000376219199689039 -0.000166223578884362 -0.000301227728464975 -0.000149671678939963 0.000197332301924163 -0.000234740858089453 -0.000262178727557233 -0.000208104890294467 -0.000424145642679876
"178" -0.000313036743281843 6.76641492138082e-05 -0.000125925199896913 -0.000507330969364465 0.000100340672599853 2.75767145899813e-05 0.000459706036682524 0.000386751403633166 -0.000162567063373116 -0.000289779688830597 -0.000138496474756614 0.000207395625461659 -0.000214876550361295 -0.000260519629078603 -0.000202543100288048 -0.000413234215508266
"179" -0.000328649561918057 5.26629234072169e-05 -0.000131052396699313 -0.000513716586437093 0.000100332898806408 3.35063374938318e-05 0.000461743900490508 0.0003967892694849 -0.000159010403270573 -0.000278175092350032 -0.000127406701902039 0.000216986895832416 -0.000194824241661322 -0.000258467334402454 -0.000197104607203612 -0.000402005169288095
"180" -0.000344066910852125 3.75964366833511e-05 -0.000135701010181607 -0.000520174433518833 9.99727626906093e-05 3.91857774387871e-05 0.000463486651071163 0.000406222809734194 -0.000155560765645728 -0.000266457414319041 -0.000116444271864462 0.000226040894182268 -0.000174640352885418 -0.000255985010824607 -0.000191798981852712 -0.000390573604737511
"181" -0.000359305221650262 2.24856875813005e-05 -0.000139910094789288 -0.000526745213979395 9.91994412459526e-05 4.45229095951868e-05 0.000464853867201378 0.000414951886527425 -0.000152215021380115 -0.000254663643121945 -0.000105646238375253 0.000234504814242429 -0.000154385522527417 -0.000253034053470733 -0.000186629408595276 -0.000379041285822838
"182" -0.000374381491401973 7.3573008021325e-06 -0.000143719120767073 -0.000533466996935842 9.79589515486781e-05 4.94393004392451e-05 0.000465770083760273 0.000422881377078371 -0.000148979703071643 -0.000242831483126193 -9.50512783836826e-05 0.000242328730451846 -0.000134125634567389 -0.000249586036742739 -0.000181601788903162 -0.00036752261315965
"183" -0.000389299557333328 -7.76163723751385e-06 -0.000147164203729095 -0.000540370287940955 9.62005352578127e-05 5.38570342150732e-05 0.000466165104633134 0.000429925548228318 -0.000145859695847676 -0.000230999802274495 -8.46939813456703e-05 0.000249468884347044 -0.000113916274625905 -0.000245612285312567 -0.00017671658837518 -0.000356119322292554
"184" -0.000404066959316929 -2.28336812590153e-05 -0.000150281635076066 -0.00054747825312487 9.38888477116737e-05 5.77116802294818e-05 0.000465978755677975 0.000436006688830253 -0.000142856520633352 -0.000219198886899875 -7.46004793192125e-05 0.000255887841531514 -9.38263264991662e-05 -0.000241096017994299 -0.000171974863075184 -0.000344933220742173
"185" -0.000418687604279183 -3.78237981899198e-05 -0.000153115368590108 -0.000554801970158765 9.09800361587337e-05 6.09523580374033e-05 0.000465154766183589 0.000441063869682178 -0.000139975696746337 -0.000207463163648792 -6.48038718549106e-05 0.000261555734903488 -7.39147378281142e-05 -0.000236023017411408 -0.000167376611019766 -0.000334054057757202
"186" -0.000433152998814164 -5.26864661954447e-05 -0.000155691868086574 -0.000562349577335824 8.745626461947e-05 6.35348262754951e-05 0.000463651140133299 0.000445041186667057 -0.000137220431999535 -0.000195819923731639 -5.53220084465471e-05 0.00026645353846465 -5.42434177115627e-05 -0.000230385720183547 -0.00016291814331825 -0.0003235806732407
"187" -0.000447455354859303 -6.73773548405434e-05 -0.000158048109236781 -0.000570120535504891 8.32956081033614e-05 6.54285223342289e-05 0.00046143852320614 0.000447899666709652 -0.000134600169487726 -0.000184292425812469 -4.61828823105105e-05 0.000270564428395104 -3.48738911281753e-05 -0.000224183500621325 -0.000158597185831972 -0.000313587466398405
"188" -0.000461579265381507 -8.18441769594394e-05 -0.000160212801011749 -0.00057809934998847 7.84945393009526e-05 6.66149561812014e-05 0.000458492590171829 0.000449616220197823 -0.000132124183964626 -0.000172910448173844 -3.74010343998208e-05 0.000273883962840629 -1.58649929677379e-05 -0.000217430811340672 -0.000154409354282663 -0.000304154532582504
"189" -0.000475501253180011 -9.60340403672327e-05 -0.000162212421009874 -0.000586271092404418 7.30479595862229e-05 6.70919517452971e-05 0.000454803969538738 0.000450175713232092 -0.000129798863033152 -0.000161689364893725 -2.89887251416615e-05 0.00027641311437079 2.72825319866434e-06 -0.000210142570331163 -0.000150345771480135 -0.000295343792640073
"190" -0.000489204688932328 -0.000109888945643206 -0.000164067955970139 -0.000594611225122073 6.69723823423173e-05 6.68630235954566e-05 0.00045037767226456 0.000449580064743509 -0.000127640155082026 -0.00015065032174391 -2.09635397009505e-05 0.000278165950518655 2.08450124989992e-05 -0.000202343924301648 -0.000146404125472001 -0.000287212472511153
"191" -0.000502653972654617 -0.000123350095652526 -0.00016579845747717 -0.000603083594543236 6.02856455529016e-05 6.5953054730123e-05 0.000445229430279321 0.000447850986206537 -0.000125663327240635 -0.000139808313255515 -1.3327433450839e-05 0.000279157040730382 3.84420004163583e-05 -0.000194071862902806 -0.000142578458303727 -0.00027980582024527
"192" -0.000515816114618185 -0.000136355743318008 -0.000167423509624697 -0.000611648559933297 5.30174464459715e-05 6.43915879479552e-05 0.000439385191813667 0.000445018944899028 -0.000123879745640008 -0.000129175134422113 -6.08259383613417e-06 0.000279416544622408 5.54620900382038e-05 -0.000185366330798849 -0.000138863098208122 -0.000273157540710925
"193" -0.000528653739124475 -0.000148843420568384 -0.000168955229710569 -0.000620262037315589 4.52055522134948e-05 6.22258872247967e-05 0.000432888015811943 0.000441130866869244 -0.000122313761496849 -0.000118762478620625 7.63577765392506e-07 0.000278976901581032 7.18632415378901e-05 -0.000176283457895968 -0.000135249984978065 -0.000267289200584821
"194" -0.00054112326944015 -0.000160749668090799 -0.000170398680660344 -0.000628869310594166 3.68994149715612e-05 5.95116345437149e-05 0.000425787125817858 0.000436246584938671 -0.000120980010457067 -0.000108578538012021 7.21761039516466e-06 0.000277879543501374 8.76017144385027e-05 -0.000166873146047854 -0.000131734272601883 -0.000262217367832337
"195" -0.000553179622501055 -0.00017200742389525 -0.000171763943279218 -0.00063741682554794 2.81544997778938e-05 5.63182941713375e-05 0.000418149637565914 0.000430443263954528 -0.000119907666407646 -9.86295159055889e-05 1.32825373478103e-05 0.000276176260378185 0.00010263850389943 -0.00015721057698674 -0.000128312489146018 -0.000257937517186778
"196" -0.000564774834241901 -0.000182554887883885 -0.000173046927460737 -0.000645839647285344 1.90352247143713e-05 5.27222273316722e-05 0.000410049380084707 0.00042381056124689 -0.00011911582387029 -8.89172037290287e-05 1.89709914081256e-05 0.000273919191191357 0.000116943325961368 -0.000147364241036266 -0.000124977242417142 -0.000254438289059342
"197" -0.000575859021893184 -0.000192330987794333 -0.000174256707113361 -0.000654075877091988 9.61121350607972e-06 4.88122692988552e-05 0.000401572988910116 0.000416449670668938 -0.000118632523758299 -7.94456897300754e-05 2.42903883216321e-05 0.000271172589389209 0.000130481682548849 -0.000137414569637186 -0.000121725810514306 -0.000251700548002638
"198" -0.000586380900342482 -0.000201272130568208 -0.0001753796738631 -0.000662059074433055 -3.77384778174708e-08 4.46834001352096e-05 0.000392814552928857 0.000408469617870787 -0.000118485403539348 -7.02165474608897e-05 2.92567980006516e-05 0.00026799907541063 0.000143229477872311 -0.000127447646344324 -0.000118557525654627 -0.00024968608301615
"199" -0.000596287444441495 -0.000209319632362984 -0.00017641758455651 -0.000669718689333872 -9.82977071396236e-06 4.04376751197561e-05 0.000383876418515727 0.000399997440131745 -0.000118701868572184 -6.12292647472411e-05 3.38871672648099e-05 0.000264472674792812 0.00015516813052814 -0.000117551075146308 -0.000115467765825242 -0.000248349114013689
"200" -0.000605528644415387 -0.000216420874217899 -0.00017735961647365 -0.000676986825315311 -1.9677913168958e-05 3.61808255423663e-05 0.000374873248731662 0.000391159615912898 -0.0001193058975051 -5.24768873790145e-05 3.81995093634994e-05 0.000260666512516732 0.000166279710635313 -0.000107821160006425 -0.000112457113334642 -0.000247639170320256
"201" -0.000614050762553816 -0.000222524512187463 -0.000178196415058826 -0.000683792933185211 -2.94865922804641e-05 3.20285317642603e-05 0.000365919516570963 0.00038210088014146 -0.00012033066646713 -4.39616462322658e-05 4.22118821010329e-05 0.000256657022738978 0.000176554389759288 -9.83493675620242e-05 -0.000109524211567225 -0.000247488416102344
"202" -0.000621805893664695 -0.000227584659780856 -0.000178917854395109 -0.000690069649927334 -3.91664820766206e-05 2.8089393878843e-05 0.000357134581053199 0.000372960444375107 -0.00012180209403474 -3.56802083332434e-05 4.59505365096e-05 0.000252521703426835 0.000185988855906485 -8.92333957488638e-05 -0.000106671387982548 -0.000247826472058047
"203" -0.000628742672604336 -0.000231555689439721 -0.000179508671149017 -0.00069575412178174 -4.8617052438518e-05 2.44817216284644e-05 0.000348647125368761 0.000363892397778368 -0.000123748088658083 -2.76258566351068e-05 4.94385040602295e-05 0.000248343758872681 0.00019457725813002 -8.05723873975458e-05 -0.000103897168455721 -0.000248572470204922
"204" -0.000634823131310454 -0.000234408972059345 -0.000179960047134738 -0.000700779690810388 -5.77451909345205e-05 2.1318877526166e-05 0.000340578412235967 0.000355050019172858 -0.000126188855644861 -1.97974659564869e-05 5.269984435011e-05 0.000244198557646263 0.000202329531818629 -7.24598256930522e-05 -0.000101210683866787 -0.000249639119808807
"205" -0.000640002277891918 -0.000236111757818874 -0.000180261616232958 -0.000705088859808644 -6.64543811925125e-05 1.87077800017602e-05 0.0003330573113011 0.000346581441127128 -0.000129149604898598 -1.21892330023581e-05 5.57619888233276e-05 0.000240165350089067 0.000209249908381142 -6.49899499066628e-05 -9.86079448208876e-05 -0.000250940101962405
"206" -0.000644245600412266 -0.000236645127216285 -0.000180399482470739 -0.000708628550787815 -7.4650606327591e-05 1.67598511638278e-05 0.000326206187246433 0.000338643242407025 -0.000132649509057845 -4.79866560346691e-06 5.86479908632727e-05 0.000236320273055143 0.000215354756717204 -5.82489266177156e-05 -9.60997422583388e-05 -0.000252378214821403
"207" -0.000647519984880565 -0.000235995278906645 -0.000180361665728002 -0.000711350913295443 -8.22427760519118e-05 1.55770251854012e-05 0.000320146279019465 0.000331386174289564 -0.00013670932525945 2.37562983815253e-06 6.13880211134719e-05 0.000232735187477164 0.000220661855229406 -5.23250079730833e-05 -9.36890786257944e-05 -0.000253856607567771
"208" -0.000649801186681591 -0.00023415408001723 -0.000180137005365601 -0.000713212391915901 -8.9145858523813e-05 1.52469542507287e-05 0.000314993941223043 0.000324956382423324 -0.000141337231690382 9.33833082704543e-06 6.40057852715055e-05 0.000229476590234564 0.00022519270399993 -4.72941182081716e-05 -9.13804673350415e-05 -0.00025528420199251
"209" -0.000651068486834613 -0.000231123310430373 -0.000179719436436117 -0.000714176729218704 -9.52752120873409e-05 1.58618797954839e-05 0.00031085923109957 0.000319493806252692 -0.000146545631663655 1.60874106761499e-05 6.65266834119661e-05 0.000226607506136728 0.000228974621568018 -4.32290817006339e-05 -8.91840550441269e-05 -0.000256559118792569
"210" -0.000651306766953194 -0.000226914570872421 -0.000179097601275399 -0.000714217473363831 -0.000100561887012148 1.74914768928538e-05 0.00030784214555115 0.000315130309329798 -0.000152339310954388 2.26234748255124e-05 6.89776271871872e-05 0.000224185844878031 0.000232039150517002 -4.0189318740989e-05 -8.71034281404861e-05 -0.000257593836560109
"211" -0.000650510920682983 -0.000221547325822788 -0.000178268582879782 -0.000713317800633366 -0.000104930096452317 2.02022129825669e-05 0.00030603476727029 0.000311989719642641 -0.000158717857160345 2.89432388793705e-05 7.13827346725863e-05 0.00022226088692847 0.000234418819389539 -3.82262606977089e-05 -8.51481034490649e-05 -0.000258298280235821
"212" -0.00064868002607229 -0.000215043158012918 -0.000177228041090549 -0.000711462123931018 -0.000108327624938129 2.40429689792123e-05 0.000305518003327706 0.000310188421230295 -0.000165677942420167 3.50472923906695e-05 7.37647836041767e-05 0.000220871697814136 0.000236151176300716 -3.73908351490894e-05 -8.33221073445732e-05 -0.000258587472766319
"213" -0.000645818213828537 -0.000207444852782032 -0.000175972319596848 -0.000708650681867096 -0.000110699759662921 2.90515612207428e-05 0.000306359645865041 0.000309826378768802 -0.000173206908130672 4.09265466107378e-05 7.6144779247991e-05 0.000220055804574757 0.000237275468116858 -3.77033066737331e-05 -8.16332911010843e-05 -0.000258386157648563
"214" -0.000641944063919158 -0.000198792073031136 -0.00017450462955066 -0.000704888048811456 -0.000112005898024045 3.52513247267499e-05 0.000308617876730616 0.000310989566246194 -0.000181291636639365 4.65771952830428e-05 7.85422551470776e-05 0.000219832076831467 0.00023783213081868 -3.9191307606853e-05 -8.0086618308189e-05 -0.000257625907853057
"215" -0.000637078308011422 -0.000189132951758656 -0.000172827891736172 -0.000700190336431799 -0.00011221520782403 4.2650250507226e-05 0.000312333492278626 0.000313753362667801 -0.000189915058463616 5.19884058825515e-05 8.09700420039579e-05 0.000220218056275063 0.000237870235489823 -4.18565839154774e-05 -7.86918739462861e-05 -0.000256245029445039
"216" -0.000631247332010577 -0.000178528635509858 -0.000170945218403647 -0.000694584458495929 -0.000111306510826286 5.1240659277134e-05 0.000317532788258426 0.000318173308465352 -0.000199045480609804 5.71535615597119e-05 8.34513116476646e-05 0.000221219820841714 0.000237429706211783 -4.56946291342422e-05 -7.74508245092453e-05 -0.000254193995552169
"217" -0.00062448766277928 -0.000167044150016921 -0.000168862714962168 -0.000688100034212439 -0.000109271984436179 6.09989556384546e-05 0.00032422697847081 0.000324292628246925 -0.000208655655062358 6.20582348023419e-05 8.59928541449935e-05 0.000222829237882076 0.000236561794837951 -5.06843272529212e-05 -7.63700926848527e-05 -0.000251434698584106
"218" -0.000616841151082911 -0.000154754775798337 -0.000166595875382412 -0.000680781419682008 -0.000106112359453125 7.18859494334196e-05 0.00033241116600166 0.00033213275322259 -0.000218708490184386 6.66919751102947e-05 8.86046985838191e-05 0.000225032882943766 0.00023530994896151 -5.67973055507459e-05 -7.54499855969482e-05 -0.000247934598373009
"219" -0.000608362402965753 -0.000141740345804405 -0.000164155013797141 -0.000672676977691406 -0.000101845822534646 8.38468613693652e-05 0.000342062537868821 0.000341698295142519 -0.000229160170638261 7.10391400864538e-05 9.12990488362461e-05 0.000227806740384848 0.000233726174303274 -6.39825036562582e-05 -7.46948280207832e-05 -0.000243683472301006
"220" -0.000599102135805467 -0.000128081173011295 -0.000161556108116124 -0.000663845843312386 -9.64917606661001e-05 9.68141619211932e-05 0.000353145310258203 0.000352978077808097 -0.00023996224592017 7.50879357014937e-05 9.40789375109018e-05 0.000231114147147245 0.000231856058121578 -7.21799155567034e-05 -7.41038477891756e-05 -0.000238675880901678
"221" -0.000589126435114949 -0.000113871180806785 -0.000158816413693429 -0.000654355459822618 -9.00919690942038e-05 0.000110700715861784 0.000365603486407144 0.00036593705270832 -0.000251062184990355 7.88228151790123e-05 9.69452112196484e-05 0.000234912121121111 0.000229745687445742 -8.13158027653849e-05 -7.36778393351958e-05 -0.000232917211528925
"222" -0.000578500762919873 -9.92051187029269e-05 -0.000155956676951049 -0.000644274999580056 -8.26922644957515e-05 0.000125413979911965 0.000379368332486527 0.00038052593583722 -0.000262402135714282 8.22297351744041e-05 9.9903498720541e-05 0.000239146072585746 0.000227441336070698 -9.13087632293845e-05 -7.34107112825061e-05 -0.000226434161861519
"223" -0.000567303496487813 -8.41832375920815e-05 -0.000153001313868749 -0.000633682554298722 -7.43556631043914e-05 0.000140836646924304 0.000394352783205117 0.00039667426993537 -0.000273917942435301 8.52933015854454e-05 0.000102951600411163 0.000243756817095411 0.000224989022037378 -0.000102056451996647 -7.33005915596968e-05 -0.000219256832077299
"224" -0.000555607809807079 -6.89083367191861e-05 -0.000149973137496451 -0.000622666220134332 -6.51453508643216e-05 0.000156851938669024 0.000410454606758114 0.000414292751287522 -0.000285539585245056 8.79995077885085e-05 0.00010608662694353 0.000248675564498457 0.000222432597353766 -0.000113448350428669 -7.33405827871609e-05 -0.000211430902526891
"225" -0.00054350123762731 -5.3487966075996e-05 -0.000146899898596436 -0.000611311172417354 -5.51473339806438e-05 0.000173324169119847 0.000427560121102417 0.000433273869731515 -0.000297196670853797 9.0335555621646e-05 0.000109301743307478 0.00025382350575885 0.000219812306968932 -0.0001253665369825 -7.35224207279187e-05 -0.000203012142955244
"226" -0.000531069748365912 -3.80339560684827e-05 -0.000143813533051184 -0.000599708755082248 -4.44470215558175e-05 0.000190110920918734 0.000445538180593145 0.000453491601529876 -0.00030881038975856 9.22934894389298e-05 0.000112594481202466 0.000259121803048041 0.000217168078024995 -0.000137679323503701 -7.38334836554678e-05 -0.000194070071516213
"227" -0.000518397947726865 -2.26483476933963e-05 -0.000140739902638561 -0.000587953843958346 -3.31409908514496e-05 0.000207064100159186 0.000464249473599398 0.000474808306424064 -0.000320298744965942 9.38602798490408e-05 0.000115957344112454 0.000264485160688329 0.000214540564932654 -0.000150243173243417 -7.42636465532992e-05 -0.000184684288287398
"228" -0.000505584635012538 -7.45210321930626e-06 -0.000137715526730725 -0.000576144437546679 -2.13379354791526e-05 0.000224028634179126 0.000483540334262243 0.000497061078047455 -0.000331579333958853 9.503465989504e-05 0.000119381009042357 0.000269821598806687 0.000211959535421823 -0.000162917978165296 -7.4796975520502e-05 -0.00017494070238738
"229" -0.000492717713444266 7.44827749542063e-06 -0.000134769244182619 -0.000564374438153598 -9.14648509266739e-06 0.000240843771726543 0.000503251584863233 0.000520082276140317 -0.00034256101942764 9.58107436179505e-05 0.000122861146549643 0.000275040730731457 0.000209459025329188 -0.000175547147775565 -7.54148496594032e-05 -0.000164932281829449
"230" -0.000479895471066314 2.19421612647117e-05 -0.000131933636946589 -0.000552743233427996 3.31865346482104e-06 0.000257349279806122 0.000523207113716577 0.000543686236570194 -0.000353158075859902 9.61867590454155e-05 0.000126387466512167 0.000280044166663006 0.00020706985362029 -0.000187974828495888 -7.61019637373005e-05 -0.000154764141945759
"231" -0.000467209354375999 3.59171355191479e-05 -0.000129244715462689 -0.000541341105350845 1.59305126739875e-05 0.000273380619685728 0.000543234109636558 0.000567677579164138 -0.000363276836405013 9.61685766418652e-05 0.00012995029777089 0.000284744150714611 0.000204819111492532 -0.000200038806862723 -7.68328947258071e-05 -0.000144543250967296
"232" -0.000454749375023153 4.92665324927328e-05 -0.000126735027588598 -0.000530264881589255 2.85710324636093e-05 0.000288778843745643 0.000563149386504289 0.000591849242937718 -0.000372825864650589 9.57638990935607e-05 0.000133546613862106 0.0002890440916022 0.000202729401167061 -0.000211577498195036 -7.7587781992527e-05 -0.000134384616325194
"233" -0.000442610554345776 6.18909959408547e-05 -0.000124432724292743 -0.000519602869562337 4.11148657794717e-05 0.000303383428717329 0.000582769819413644 0.000615990957517388 -0.000381714922912619 9.49787165736165e-05 0.000137163432160065 0.000292854489264768 0.00020082198976395 -0.000222434075071787 -7.83415986822986e-05 -0.00012440360331353
"234" -0.000430876761239156 7.36857510110041e-05 -0.000122368738184375 -0.000509438766507856 5.34337630558134e-05 0.000317046253412918 0.000601907640106968 0.000639882993272761 -0.000389851948426837 9.38331563224535e-05 0.000140796754392957 0.000296086492241777 0.000199116000767942 -0.00023244308822406 -7.90665670732528e-05 -0.000114720006918285
"235" -0.000419629621214842 8.45603512579267e-05 -0.000120570856208967 -0.000499849764706061 6.54025144086048e-05 0.000329619270823208 0.000620375284326958 0.000663301975973817 -0.000397151340525348 9.23427452989958e-05 0.000144442386162811 0.000298658927268496 0.00019762708791498 -0.000241457097060524 -7.97355822175654e-05 -0.000105454457701421
"236" -0.000408951294166205 9.44261482494558e-05 -0.000119065592689553 -0.000490910719112757 7.69022364723337e-05 0.000340964787741079 0.000637988246574362 0.00068602964106715 -0.000403524931492141 9.05325191380129e-05 0.000148090915398913 0.000300495693198996 0.000196370986389396 -0.000249322274312933 -8.03208659169414e-05 -9.67219697832849e-05
"237" -0.0003989096975751 0.000103205847383999 -0.000117868978463163 -0.000482685763332492 8.78141321320997e-05 0.000350956255365395 0.000654571446625643 0.000707840685979838 -0.000408897808861135 8.84247793787623e-05 0.000151739515894272 0.000301526512187234 0.00019535808628477 -0.000255905087532876 -8.07907886354037e-05 -8.86432991499302e-05
"238" -0.000389569573937933 0.000110821120657884 -0.000117003970344421 -0.000475233322152823 9.80263450454095e-05 0.000359483599221455 0.000669947281389591 0.000728521797064617 -0.000413193589402425 8.60516691517703e-05 0.000155387262485966 0.000301692189738324 0.000194592710111712 -0.000261073405912349 -8.11155395975966e-05 -8.1322796511469e-05
"239" -0.000380989166630772 0.000117217549005848 -0.000116476163017011 -0.000468600154373652 0.000107430322257331 0.00036644434092103 0.000683952191917836 0.000747860692457066 -0.000416345121733756 8.34445141198556e-05 0.000159027712469174 0.000300935576453083 0.000194086687535594 -0.000264712268348937 -8.12642025084149e-05 -7.487648102091e-05
"240" -0.000373212289613188 0.00012233336556638 -0.000116297740700307 -0.000462827033602769 0.000115931507286257 0.000371752657196684 0.000696430058394665 0.000765653493657339 -0.000418295616375168 8.0639411082412e-05 0.000162663053097542 0.000299215834124359 0.000193843207188897 -0.000266718193137545 -8.12047578764468e-05 -6.93999644036325e-05
"241" -0.000366284240650049 0.00012613744222296 -0.000116466601209123 -0.00045794474283624 0.00012343905233769 0.000375340914505051 0.000707232008476482 0.00078171344938647 -0.000418994108535377 7.76756717410898e-05 0.00016629264800763 0.000296502037771982 0.000193864421719238 -0.000267005279307503 -8.09098880549698e-05 -6.49869904930158e-05
"242" -0.000360225665892068 0.000128590365845469 -0.000116982933355596 -0.000453969088006951 0.000129879031262049 0.000377157737996624 0.000716232612970515 0.000795860403042163 -0.000418404966749829 7.45905409360543e-05 0.00016991287733001 0.000292770878498271 0.000194151902473477 -0.000265501912789932 -8.03462921660699e-05 -6.17176847305989e-05
"243" -0.000355054423236258 0.000129682854979855 -0.000117826666578871 -0.000450909423879684 0.000135181412248465 0.00037717003846873 0.000723309937841673 0.000807936939409583 -0.00041649940196455 7.14268446690654e-05 0.000173528088035007 0.00028801583210763 0.000194704886094401 -0.000262161132954942 -7.94835381019254e-05 -5.96636677958161e-05
"244" -0.000350781754109057 0.000129406174141069 -0.000118989554306038 -0.000448765757765818 0.000139289880235796 0.000375365746769184 0.000728364645574118 0.000817795263857199 -0.000413263270172947 6.82264739985457e-05 0.000177138274658268 0.000282239645648507 0.00019551931784464 -0.000256948339378023 -7.82931009661944e-05 -5.88844953426767e-05
"245" -0.000347397137578379 0.00012777248963962 -0.00012044354613515 -0.000447521732886524 0.000142169680285866 0.000371749244030556 0.000731308418676296 0.000825314736114716 -0.000408697738405913 6.50337966746076e-05 0.000180746307087366 0.000275456541518174 0.000196597669547313 -0.000249858592864664 -7.67462298798941e-05 -5.94270632530154e-05
"246" -0.000344887655760298 0.000124803936201678 -0.000122158234301202 -0.000447156314966842 0.000143792076309536 0.000366348626228492 0.000732073240667589 0.000830388800298905 -0.00040281060970338 6.18895599812103e-05 0.000184355356718969 0.000267698921886591 0.000197931947188442 -0.000240896776968816 -7.48212028272136e-05 -6.13224731910904e-05
"247" -0.000343221902266339 0.000120533084511726 -0.000124096628490432 -0.000447634807558629 0.000144139120085459 0.000359208534626865 0.000730611856146542 0.000832937043396198 -0.000395626992935945 5.8837355822966e-05 0.000187967676924895 0.00025900442326916 0.000199516549461289 -0.000230098681376193 -7.24880039541096e-05 -6.45864709081875e-05
"248" -0.000342361232570801 0.000115019624929944 -0.000126217635652191 -0.000448909254047561 0.000143218283554113 0.000350396292117476 0.000726892680706206 0.000832906923389995 -0.0003871917344733 5.59210959453222e-05 0.000191584873116608 0.000249430516547238 0.000201347003956149 -0.000217519364790943 -6.97260341671899e-05 -6.92185590460527e-05
"249" -0.000342255507356363 0.000108316504386241 -0.00012847207211346 -0.000450931520777183 0.000141039626125817 0.000339996070004956 0.000720902963847704 0.000830262300909638 -0.000377552700893208 5.31788104740576e-05 0.000195213981005279 0.000239044925198076 0.000203418889936947 -0.000203239894461711 -6.65158153540597e-05 -7.52000261166458e-05
"250" -0.00034284702228323 0.000100505722077473 -0.000130811254143128 -0.000453633536832142 0.000137635871284183 0.000328114092688755 0.000712653304903684 0.000824996496258527 -0.00036677587835931 5.0651335906289e-05 0.000198858907042464 0.000227927595624867 0.000205722379468801 -0.000187351742334246 -6.28371991658993e-05 -8.24964139393116e-05
"251" -0.000344068921064869 9.16751486422371e-05 -0.000133177801029975 -0.000456946126847814 0.000133052873376325 0.00031487091384855 0.000702170386882499 0.000817126085108768 -0.000354942103451018 4.8374265013809e-05 0.00020251991249574 0.000216168704407736 0.000208249499428748 -0.00016997899303982 -5.86753157184924e-05 -9.10581112894689e-05
"252" -0.000345837456574827 8.192117327465e-05 -0.00013551571092246 -0.000460787838113141 0.000127345280804601 0.000300405381955499 0.000689499683372478 0.000806695812903639 -0.000342143747022149 4.63848314556166e-05 0.00020620329080569 0.000203873686934446 0.00021099575736663 -0.000151257438437978 -5.40172839411958e-05 -0.000100808338223051
"253" -0.000348076781285304 7.13543745968892e-05 -0.000137761651991282 -0.000465071700674007 0.000120587885576996 0.000284874793202632 0.000674704717794483 0.00079376972888545 -0.000328477715172804 4.47153918040616e-05 0.000209917800559734 0.000191155983005316 0.000213950193402154 -0.000131348125642259 -4.88514090282538e-05 -0.000111662367758483
"254" -0.000350690634484732 6.00888623927365e-05 -0.000139858172432403 -0.00046970624827088 0.000112856512072171 0.000268445144337637 0.000657873129527695 0.000778444314931907 -0.000314060448357213 4.33954480148257e-05 0.000213662914140072 0.000178138263323827 0.000217106928269746 -0.000110425342564107 -4.31706586519569e-05 -0.000123512396578168
"255" -0.000353588479721289 4.82524062088107e-05 -0.000141743435760918 -0.000474592955620091 0.000104251232956571 0.000251300383920648 0.000639101907771164 0.000760828666432971 -0.000299013409471166 4.24514582121914e-05 0.000217445283845634 0.000164954399566945 0.000220453198567326 -8.8678979488368e-05 -3.69712203262392e-05 -0.000136229563759135
"256" -0.000356666932937334 3.59745596965287e-05 -0.000143359063992039 -0.0004796271339357 9.48703796150919e-05 0.000233630308690446 0.000618507275725748 0.000741061345744069 -0.000283459332482156 4.19085066633111e-05 0.000221274285807674 0.000151743428233715 0.000223982686888265 -6.63115262667667e-05 -3.02482439448252e-05 -0.000149680072299312
"257" -0.000359832415640141 2.33899626959885e-05 -0.000144652812880312 -0.000484707875970327 8.4832328352011e-05 0.000215638184091452 0.000596222480530243 0.000719300676999388 -0.000267536354933491 4.1789561603002e-05 0.000225150984741812 0.00013865014711882 0.0002276897056617 -4.35404987942698e-05 -2.30069608329107e-05 -0.000163698373795467
"258" -0.000362980721463151 1.06329533474868e-05 -0.000145569604009496 -0.000489725369970988 7.42502200414028e-05 0.000197528968946905 0.000572390234530577 0.000695719398738125 -0.000251377187204343 4.21112788140236e-05 0.000229082888129365 0.000125830401016942 0.000231561433449312 -2.05903794025116e-05 -1.52477636222821e-05 -0.000178115164278899
"259" -0.000366012821813434 -2.15829306183094e-06 -0.000146061086824049 -0.000494570497862288 6.32535415513566e-05 0.000179513868973687 0.000547167937520899 0.000670508340273891 -0.000235122161763334 4.28884579299587e-05 0.000233079109076796 0.000113437866503624 0.000235588753508723 2.30745699282095e-06 -6.978143678939e-06 -0.000192740243790696
"260" -0.000368831820625117 -1.48435656995866e-05 -0.000146092154884136 -0.000499137244884218 5.19704194636944e-05 0.000161804895160793 0.000520723426978983 0.00064387384132881 -0.000218913053328591 4.41341876472445e-05 0.00023714577610252 0.000101627209394315 0.000239764424520107 2.491727009157e-05 1.78976208640558e-06 -0.000207376563391396
"261" -0.000371345551502086 -2.72952875245056e-05 -0.00014562438188977 -0.000503317615141866 4.05336654120145e-05 0.000144615797314779 0.000493228002147678 0.00061603529027776 -0.000202884405537002 4.58582844786772e-05 0.000241288041562069 9.05599706583815e-05 0.000244081460043294 4.70037101198107e-05 1.1044163315325e-05 -0.000221813567497731
"262" -0.000373461273103852 -3.93814556539995e-05 -0.000144629206089833 -0.000507009956998981 2.90750276545047e-05 0.000128154937522928 0.000464869113807507 0.000587219700665073 -0.000187174653263894 4.80643892087171e-05 0.000245515815382282 8.03881852020807e-05 0.000248531951237028 6.83284298598306e-05 2.07679927474726e-05 -0.000235836379426857
"263" -0.000375094952940346 -5.09779554607991e-05 -0.000143089347285013 -0.000510111106598116 1.77326626417271e-05 0.000112626514883803 0.000435829288120356 0.000557661796783411 -0.000171911766792276 5.07579875883022e-05 0.000249833847653524 7.12656749513975e-05 0.000253106993492988 8.86601136671875e-05 3.0944765002557e-05 -0.000249218322881585
"264" -0.000376172827579697 -6.19677447270382e-05 -0.000140989739313621 -0.000512524814463039 6.63173554824071e-06 9.82236671613294e-05 0.00040630141310033 0.000527600902535759 -0.000157220128975974 5.39375340186459e-05 0.000254252695515217 6.3342553800326e-05 0.000257798940166304 0.000107773604597805 4.15523238716548e-05 -0.000261736656033969
"265" -0.000376619214944948 -7.22452407433734e-05 -0.000138326415495338 -0.000514163450858655 -4.09670910278981e-06 8.51305217346036e-05 0.000376473510781604 0.000497280748647753 -0.000143216469508562 5.7600658210954e-05 0.000258776358241119 5.67570742046235e-05 0.000262603682098016 0.000125450311720912 5.25641940689689e-05 -0.000273164452651039
"266" -0.000376375372586722 -8.17081691632086e-05 -0.000135109012231695 -0.000514939031642965 -1.43325417196328e-05 7.35181047116855e-05 0.00034653489679547 0.000466940261815557 -0.000130003924384846 6.17409044603113e-05 0.000263411887441338 5.16436991896315e-05 0.000267513919150992 0.000141486443753035 6.39563441016717e-05 -0.000283279083520673
"267" -0.000375380950403914 -9.02660045674948e-05 -0.000131336260939188 -0.00051478005210216 -2.39583710412306e-05 6.35439713794246e-05 0.000316669954600392 0.00043682309760866 -0.000117685273792547 6.63445940839519e-05 0.000268166956793156 4.81213100221244e-05 0.000272524071890952 0.000155689487759786 7.56965077147738e-05 -0.00029186927042522
"268" -0.000373590956115679 -9.78435843034829e-05 -0.0001270357526035 -0.000513612340364208 -3.2864130577992e-05 5.53438127203488e-05 0.000287057545186027 0.000407157481450192 -0.000106339539184167 7.14020416670906e-05 0.000273046563725483 4.62989731618765e-05 0.000277632794250027 0.000167887460280419 8.77535055561913e-05 -0.000298730925244467
"269" -0.00037096787890932 -0.000104372448883216 -0.000122230672157382 -0.000511379614653764 -4.09553251384886e-05 4.9038176091715e-05 0.00025787131516684 0.000378170377108866 -9.60405261369605e-05 7.68982092850369e-05 0.000278052252044114 4.62723522560623e-05 0.000282833381148948 0.000177922157002253 0.000100098643638823 -0.000303671323226621
"270" -0.000367481086603204 -0.000109795267238138 -0.000116945799050991 -0.000508030743580264 -4.81411372480806e-05 4.47206386564233e-05 0.000229274171937319 0.000350080100489164 -8.68523012695231e-05 8.28070972264264e-05 0.000283184619357423 4.8119750050793e-05 0.000288126701040322 0.000185655829746007 0.000112690555421005 -0.000306513680828708
"271" -0.000363106531315043 -0.000114069969846829 -0.00011122440903146 -0.000503526404362189 -5.43447671849793e-05 4.24658614189097e-05 0.000201411501377102 0.000323087857954888 -7.88163846546878e-05 8.91104111238374e-05 0.000288445018080843 5.19028084215212e-05 0.000293506416702811 0.000190980456494577 0.000125496912823869 -0.000307107652549178
"272" -0.000357833058185739 -0.000117167324414232 -0.00010510190732239 -0.000497837876759877 -5.9498426087645e-05 4.23250294286138e-05 0.000174426432732201 0.00029737998091065 -7.19664056719355e-05 9.57773032338262e-05 0.000293831618178444 5.76661968874845e-05 0.000298974980868433 0.000193805198903177 0.000138476641015588 -0.000305314071730556
"273" -0.000351650938729282 -0.000119066699478094 -9.86287779275438e-05 -0.000490942503256811 -6.35534941956364e-05 4.43230570808567e-05 0.000148439232307971 0.000273132999064124 -6.63206388251998e-05 0.000102776918335674 0.000299342283267706 6.54296931528183e-05 0.000304531753988972 0.000194062651696714 0.0001515919444513 -0.000301032797802815
"274" -0.000344568955601754 -0.000119760382460609 -9.18487692938989e-05 -0.000482834613562019 -6.64689710310481e-05 4.84554056606815e-05 0.000123560340630182 0.000250496998061143 -6.18826208444275e-05 0.000110077728175628 0.000304965077699159 7.52004351855009e-05 0.000310172203238221 0.000191719105716507 0.000164803241215036 -0.000294181024901194
"275" -0.000336587298830157 -0.000119256132282069 -8.48190159890246e-05 -0.000473517222912302 -6.82203249816506e-05 5.46980407987383e-05 9.98787324390998e-05 0.000229609437279672 -5.86471201608507e-05 0.000117637750483691 0.000310691683606298 8.69582667407649e-05 0.000315897157558611 0.000186761103482074 0.000178071154881943 -0.000284703974668724
"276" -0.000327734227467923 -0.000117570156322002 -7.75942978999104e-05 -0.000463002746104868 -6.87979652773247e-05 6.29951843679871e-05 7.74632824958898e-05 0.00021057992352329 -5.65886859578319e-05 0.000125418641445649 0.000316509662801955 0.000100667009941881 0.000321707331342143 0.000179200160495462 0.000191353379871156 -0.000272577081633707
"277" -0.000318028479168337 -0.000114735662365082 -7.0231091576583e-05 -0.000451315933956579 -6.82078456991243e-05 7.3269839943061e-05 5.63720159172907e-05 0.000193501914606949 -5.5671445331214e-05 0.000133374898067472 0.000322402192715593 0.000116263466665943 0.000327602394281407 0.000169085959163671 0.000204608725380303 -0.000257809316807686
"278" -0.000307502693101529 -0.000110787695124015 -6.27876454933642e-05 -0.000438491384680711 -6.64640380910715e-05 8.54139537848864e-05 3.66454280314667e-05 0.000178440432702357 -5.5852713871681e-05 0.000141460326567746 0.00032835374068812 0.000133667891931838 0.00033357605493773 0.000156480707091311 0.000217798846359347 -0.000240434089026617
"279" -0.000296196957514437 -0.000105789394698343 -5.53352541915255e-05 -0.000424574542029001 -6.36040384506618e-05 9.93039132152957e-05 1.82924454506241e-05 0.000165440040195383 -5.70654671169533e-05 0.000149625343264192 0.000334337654968922 0.000152779271895313 0.000339628665562412 0.000141487697759108 0.000230880163820229 -0.000220520429210479
"280" -0.000284162716179355 -9.97994015616374e-05 -4.79309974979746e-05 -0.000409617874008245 -5.9673662226119e-05 0.000114784383481532 1.31426762208092e-06 0.000154513231525342 -5.92405554190003e-05 0.000157818136690907 0.000340335100959932 0.000173473741348101 0.0003457537626278 0.000124225484432107 0.000243819327287308 -0.000198158665397673
"281" -0.000271451948145653 -9.29015874440344e-05 -4.06521434045856e-05 -0.000393685154776562 -5.47341239229352e-05 0.000131686678213122 -1.43083734709004e-05 0.000145655822897837 -6.2298339677915e-05 0.000165986374460629 0.000346314519688545 0.0001956121670894 0.000351943559620968 0.000104839075194275 0.000256576310517321 -0.000173468627612345
"282" -0.000258124138158255 -8.51761895749804e-05 -3.35606730506744e-05 -0.000376847990477556 -4.88635306871696e-05 0.00014981791594603 -2.86115954106092e-05 0.000138833035287102 -6.61455672467945e-05 0.000174076787779477 0.000352249381491442 0.000219036186382351 0.000358190336204466 8.35042469833478e-05 0.000269110678482191 -0.000146598538229892
"283" -0.000244251269043135 -7.67331405611255e-05 -2.67340260394141e-05 -0.000359183716506896 -4.21482075938802e-05 0.000168970466233854 -4.16575795764936e-05 0.000133982498628334 -7.06806809925556e-05 0.000182036128625044 0.000358106026241564 0.000243569580220955 0.000364476482585263 6.04075536339679e-05 0.000281391106239708 -0.000117713222999887
"284" -0.000229913002655483 -6.76759565905141e-05 -2.02520639271182e-05 -0.000340783070064366 -3.46860602667506e-05 0.000188919089293523 -5.35085921976547e-05 0.000131019103202264 -7.57920529233363e-05 0.00018981035205145 0.000363856592096111 0.000269026483399974 0.000370792952214605 3.57663231969402e-05 0.000293384266930881 -8.70013322513748e-05
"285" -0.00021518512597113 -5.81320256418868e-05 -1.41880277826402e-05 -0.000321734341585474 -2.65915200173761e-05 0.000209429111002353 -6.42526195538373e-05 0.000129835623084397 -8.1365147490359e-05 0.000197346385653484 0.000369461194383752 0.000295200575629107 0.000377116819310854 9.81072830337965e-06 0.00030505381593955 -5.46717388526441e-05
"286" -0.000200163105007833 -4.82290790055378e-05 -8.62408216129015e-06 -0.000302133972809108 -1.79841564454248e-05 0.000230255896530586 -7.39889698504951e-05 0.00013029778617456 -8.72765342197959e-05 0.000204593275155958 0.000374889228500561 0.00032188127691842 0.000383427040910499 -1.72125196757858e-05 0.000316373091061437 -2.09453464430039e-05
"287" -0.00018494548571302 -3.8114226060961e-05 -3.65134550592401e-06 -0.000282083997861603 -8.99486180245171e-06 0.00025114254338461 -8.28309691472629e-05 0.000132247619894635 -9.33928722144581e-05 0.000211503099934654 0.000380104452607415 0.000348843274202445 0.000389693967109075 -4.50412409909457e-05 0.000327308159428351 1.39450460331006e-05
"288" -0.000169633439216774 -2.7933037618689e-05 6.49383088729531e-07 -0.000261691628406841 2.34321840185467e-07 0.000271831654391997 -9.08989551517712e-05 0.000135508061760966 -9.95841342074423e-05 0.00021803022243477 0.00038507008260886 0.000375858091901599 0.000395891874625732 -7.33986608794958e-05 0.000337835844592427 4.97525254433294e-05
"289" -0.000154331720785442 -1.78504286830255e-05 4.19028560934561e-06 -0.00024106137208192 9.56650432492547e-06 0.000292067939658081 -9.83211966582096e-05 0.000139883532092591 -0.000105713894409921 0.00022412668716438 0.00038975061439065 0.000402691187153661 0.000401981098636491 -0.000102011657627446 0.00034792816615024 8.62302212145558e-05
"290" -0.000139156683533703 -8.02701215586722e-06 6.87975453027563e-06 -0.00022030484371812 1.88454627471289e-05 0.000311587926187874 -0.000105232576680273 0.00014515965696797 -0.000111642212402559 0.000229758714482252 0.000394113750351846 0.000429103812435012 0.000407925697079313 -0.000130590395268043 0.000357561382434236 0.000123121638050903
"291" -0.000124225774973633 1.36354609931025e-06 8.63019273360347e-06 -0.000199524268166118 2.79211096554232e-05 0.000330137255438967 -0.000111773351928369 0.000151111085140477 -0.000117230616227584 0.000234886910641498 0.000398121973654321 0.000454859224866532 0.000413681804721519 -0.00015884423820784 0.000366709600529186 0.000160168786473901
"292" -0.000109652495448022 1.0146989255128e-05 9.3566458021084e-06 -0.000178833507198009 3.66369959821448e-05 0.000347470438398573 -0.000118082341256067 0.000157495177874871 -0.000122338189751486 0.000239481735588882 0.000401746755242238 0.000479717112757636 0.00041920455835564 -0.000186483830648886 0.000375351809815875 0.000197116748339743
"293" -9.55561849228622e-05 1.81438827431437e-05 8.97280132061451e-06 -0.000158335290165637 4.48446611844142e-05 0.000363346532484489 -0.000124301855324673 0.000164066287789538 -0.00012683168415309 0.00024351625129104 0.000404952681521003 0.000503447980628239 0.000424441613318696 -0.000213228920926744 0.000383467519427514 0.000233717673952503
"294" -8.20582281383765e-05 2.51779348297864e-05 7.39804877001434e-06 -0.000138136644740989 5.23859867235557e-05 0.000377539162146978 -0.000130569500503441 0.000170566678408859 -0.000130577427670459 0.000246964487069543 0.000407712158674844 0.000525820110124204 0.000429345182221782 -0.000238798310671201 0.000391036049806234 0.000269721804070905
"295" -6.92736285566324e-05 3.10719314565812e-05 4.55874612326561e-06 -0.000118332982243753 5.91186471591679e-05 0.000389838071931764 -0.00013701632502848 0.000176742901883345 -0.000133449629932234 0.000249812512286771 0.000409999312613267 0.000546620487823244 0.000433852834526792 -0.000262924636453598 0.00039803788354353 0.000304895177394528
"296" -5.73147475363282e-05 3.56525891506022e-05 3.85017104247533e-07 -9.90221140685239e-05 6.48979622290396e-05 0.000400049872206744 -0.000143765668991857 0.000182336188899943 -0.000135327873645084 0.000252045824970172 0.000411785000653947 0.000565635481932995 0.000437913670883258 -0.000285348974052813 0.000404451489779213 0.0003390060556111
"297" -4.62814321660833e-05 3.87584478746682e-05 -5.17808558639348e-06 -8.02945375196385e-05 6.95962732002335e-05 0.000407997492564619 -0.000150927643782384 0.000187098713116595 -0.000136099649719714 0.000253656975612494 0.000413049444166243 0.000582669935520542 0.000441467655331448 -0.000305837377974339 0.000410263299216479 0.000371838518326252
"298" -3.62803805484599e-05 4.02264101988473e-05 -1.217734339912e-05 -6.22313700483788e-05 7.30840707236147e-05 0.000413530152612512 -0.000158611862140945 0.000190782805827903 -0.000135659222013585 0.00025464221377529 0.000413769502923211 0.000597539421731479 0.000444457073849848 -0.000324162752011347 0.000415454245563412 0.0004031883832874
"299" -2.739779059473e-05 3.9910819744249e-05 -2.06492440306133e-05 -4.49108192750103e-05 7.52576435627982e-05 0.000416517837216593 -0.00016689982530918 0.000193158939864696 -0.000133919936469097 0.000255002775714803 0.000413929266771193 0.000610080248093099 0.000446824067585993 -0.000340123044605557 0.000420004669318191 0.000432865355889958
"300" -1.97055950968691e-05 3.76822102389304e-05 -3.06096441930771e-05 -2.83991906433727e-05 7.60143849211543e-05 0.000416854167882975 -0.000175865236331379 0.000194010357978235 -0.000130798011158204 0.000254745241974764 0.000413509987937865 0.000620137507537021 0.000448511141889292 -0.000353538882330363 0.000423904967932839 0.000460689574062331
"301" -1.32687484284078e-05 3.34212537968287e-05 -4.20613558064792e-05 -1.27589590135313e-05 7.52728829300022e-05 0.000414464806313269 -0.000185564631331174 0.000193135576565042 -0.000126228218836239 0.000253879740681486 0.000412503618112354 0.00062758458279452 0.000449463863057789 -0.000364255544667941 0.000427135837880526 0.000486499802899793
"302" -8.13646905209386e-06 2.7030136082024e-05 -5.49900993172041e-05 1.95857589044512e-06 7.29688794732383e-05 0.000409297700170388 -0.000196028684675534 0.000190358608760298 -0.000120155315986822 0.000252421483644977 0.000410901441897038 0.000632307577755645 0.000449634220535635 -0.000372138807661822 0.000429686520705277 0.000510145111353681
"303" -4.33845374506018e-06 1.84285290685794e-05 -6.93637507206103e-05 1.57119375063411e-05 6.90572680662622e-05 0.00040133064280966 -0.000207279656452018 0.000185519103692852 -0.000112536003931779 0.000250391083948544 0.000408696715281161 0.000634216478836796 0.000448976363827644 -0.000377079658253541 0.000431545260559681 0.000531494137977281
"304" -1.88924679844265e-06 7.56609722992366e-06 -8.51176329256116e-05 2.84647415295813e-05 6.35085467150047e-05 0.000390569277305583 -0.00021931510273743 0.000178494684649867 -0.000103346364405778 0.000247809260059357 0.000405887848070202 0.000633244469152895 0.000447450432019953 -0.000379001673544316 0.000432705397891201 0.000550422851446297
"305" -7.76967624739596e-07 -5.59234737792105e-06 -0.000102183781483192 4.01994641850581e-05 5.63186184054931e-05 0.000377050935497696 -0.000232106877525293 0.00016918022359025 -9.25692823697937e-05 0.000244708490501207 0.0004024792907834 0.000629343259359479 0.000445021097448423 -0.000377848358864277 0.000433161014636125 0.00056682451576766
"306" -9.76197266385891e-07 -2.1048507290155e-05 -0.000120457316722246 5.08972038689438e-05 4.74974473004341e-05 0.000360835637321174 -0.000245616225525673 0.000157508968023629 -8.02049638378442e-05 0.000241112780559362 0.000398471152290807 0.000622491932938652 0.000441665184124981 -0.000373592301616032 0.000432907909074395 0.000580604301215642
"307" -2.43729228420816e-06 -3.87765930919252e-05 -0.000139815549400916 6.05546787477528e-05 3.7081162806589e-05 0.000342015318237786 -0.000259777437537557 0.000143443489639799 -6.62696897712157e-05 0.000237060785545398 0.000393881546325181 0.000612691304719926 0.000437364917334376 -0.000366227783249436 0.000431950344773776 0.000591677327338912
"308" -5.08864014350024e-06 -5.87269005337232e-05 -0.000160118882417731 6.91781873782849e-05 2.51272071147641e-05 0.000320704802624581 -0.000274514776882363 0.000126977221437104 -5.07850206656636e-05 0.000232588440152765 0.000388720779822745 0.000599962332719399 0.00043211355521067 -0.000355778799094841 0.000430297622793634 0.000599967792782653
"309" -8.83487143363947e-06 -8.08144637531752e-05 -0.000181192924011289 7.67805698864931e-05 1.17143075605289e-05 0.000297050290053299 -0.000289722584771926 0.000108138473538463 -3.37949440707017e-05 0.000227734376873272 0.000383005527065973 0.000584353104795449 0.000425913691243273 -0.000342291850598421 0.000427958091287657 0.000605411755255003
"310" -1.35675133222769e-05 -0.00010492778981523 -0.000202859907128859 8.33893241032909e-05 -3.05731411171702e-06 0.000271212506216189 -0.000305289871755617 8.69913462520959e-05 -1.53468697269453e-05 0.00022254360494812 0.00037676130280387 0.000565934543503585 0.000418777902305671 -0.000325828221258538 0.000424955527244717 0.000607955548501468
"311" -1.91409422886727e-05 -0.000130917634194029 -0.000224903858780946 8.90359322021607e-05 -1.90683672206883e-05 0.000243384142753223 -0.000321082646155738 6.3632052136752e-05 4.49723955959316e-06 0.000217056574618488 0.000370013484727583 0.000544796034961299 0.000410733543259184 -0.00030648687883005 0.000421308449076545 0.000607548556648611
"312" -2.54063362143615e-05 -0.000158615242384431 -0.000247107196462829 9.37632964440207e-05 -3.61774736839706e-05 0.000213768849520356 -0.000336961362844594 3.81900290075817e-05 2.5661295759519e-05 0.000211318122867247 0.000362789566206281 0.000521048679505073 0.000401817991751176 -0.00028436938108568 0.000417056693596311 0.000604152118173228
"313" -3.21845121231893e-05 -0.000187806385510328 -0.000269220370454569 9.76200779805511e-05 -5.42244715767979e-05 0.000182593805682844 -0.000352766033089535 1.08264650715627e-05 4.8066715995906e-05 0.00020537392774503 0.000355129864196098 0.000494827300194884 0.000392076500771075 -0.000259604854036134 0.000412237620552529 0.000597730063164937
"314" -3.92817279016555e-05 -0.000218264934868475 -0.000290994378719839 0.00010066922779349 -7.30346422471772e-05 0.000150099842731402 -0.000368340485394723 -1.8265358509668e-05 7.16166987608624e-05 0.00019927129637145 0.000347065303591369 0.000466282371441407 0.000381573754264899 -0.000232341422633751 0.000406901834499082 0.000588262091043583
"315" -4.64918948956483e-05 -0.000249729806439652 -0.00031216141850173 0.000102971458313521 -9.24154690045157e-05 0.000116540867974281 -0.000383511324441888 -4.88678765155266e-05 9.62117682385924e-05 0.000193053666947141 0.000338641631077707 0.000435585533417677 0.000370380727123174 -0.000202737617260001 0.000401102647560393 0.000575730318278383
"316" -5.35931503969982e-05 -0.0002819114179994 -0.000332447185380198 0.00010460107851575 -0.000112160036210804 8.21837436353778e-05 -0.000398104119739567 -8.07313285168526e-05 0.000121739990233484 0.000186767267720984 0.000329896723171963 0.000402921371769202 0.000358579708621733 -0.000170969169508354 0.000394909317458705 0.000560130283828232
"317" -6.03565500536384e-05 -0.00031450466998689 -0.000351575861670255 0.000105640812288389 -0.000132051892780458 4.72985909847841e-05 -0.000411940139092198 -0.000113590397334613 0.00014808627938047 0.000180453134494705 0.00032087912658442 0.000368490705623886 0.000346266913648715 -0.000137222386631452 0.000388391164024022 0.000541471477655903
"318" -6.65479075463121e-05 -0.00034718443541613 -0.000369267988079334 0.000106170683546056 -0.000151868066572151 1.21657046343013e-05 -0.00042484326169194 -0.000147154658485516 0.000175122750826096 0.000174153071041857 0.000311636437802633 0.000332512767584168 0.000333538851356614 -0.00010170061177482 0.000381628106230486 0.000519771555241146
"319" -7.19281915027594e-05 -0.000379608086150053 -0.00038525637459093 0.000106285933995151 -0.000171373261505998 -2.29305349747721e-05 -0.00043663493574279 -0.000181116857740209 0.000202716821890952 0.000167905810659191 0.000302218593956436 0.000295211056269115 0.000320510463335533 -6.46177543221361e-05 0.000374709189236742 0.000495075033027191
"320" -7.6266462934728e-05 -0.000411432611643948 -0.000399274327279328 0.000106072753104847 -0.000190332311547703 -5.77069366132199e-05 -0.000447147963172077 -0.000215162399805466 0.000230735731403961 0.000161751117840394 0.000292675337202102 0.00025682480064705 0.000307296166074525 -2.61920992792801e-05 0.00036772264802523 0.000467435326474809
"321" -7.9329623570119e-05 -0.000442305481342897 -0.000411074658097059 0.000105631215619618 -0.000208513357740844 -9.18800102873926e-05 -0.000456212674283054 -0.000248966352077352 0.000259035765071843 0.000155720306306515 0.000283060468309711 0.000217599612961851 0.000294018294848486 1.33476586909819e-05 0.0003607611063585 0.000436939349059967
"322" -8.09048387547695e-05 -0.000471875096639537 -0.000420420698630444 0.000105058806802058 -0.000225685077990847 -0.000125170836291772 -0.000463665495514524 -0.000282202431369513 0.000287476004281465 0.000149850223716578 0.000273426756868928 0.000177790010154831 0.000280799555818975 5.37634823996092e-05 0.000353923263196168 0.000403692296196665
"323" -8.07895380967873e-05 -0.000499802071062174 -0.000427111863334598 0.000104454999125102 -0.000241617826222961 -0.000157304403159857 -0.00046935602802231 -0.000314542285328529 0.000315906676090127 0.000144169232815945 0.000263826500605726 0.000137653492319199 0.000267763797982572 9.48111280650298e-05 0.000347304598899033 0.000367832110828792
"324" -7.88031351620373e-05 -0.000525761776422122 -0.00043096526002553 0.00010391653946519 -0.000256100140243358 -0.000188011638523058 -0.000473141222416164 -0.000345665400861433 0.000344184044551877 0.000138706822529116 0.000254317066636658 9.745149731938e-05 0.000255032971018525 0.000136242294871384 0.000341000055008603 0.000329528012306551
"325" -7.47883103906066e-05 -0.000549445668985208 -0.000431827748692681 0.000103540029727281 -0.000268927770216481 -0.000217033101142712 -0.00047489116159347 -0.000375259925583931 0.000372160192611122 0.000133492684283998 0.000244953151902997 5.74461179259508e-05 0.000242727093690592 0.000177810190874048 0.000335099696352902 0.000288982358555005
"326" -6.86208302381112e-05 -0.000570578410690194 -0.000429584817886145 0.000103423679919065 -0.000279914705416373 -0.000244119608801418 -0.000474477407022259 -0.000403029801787912 0.000399691909691186 0.000128550294060817 0.000235788594238348 1.78998595937448e-05 0.000230959530589435 0.000219253737898479 0.000329687248197765 0.000246434195053414
"327" -6.02038041736462e-05 -0.000588909878111197 -0.000424153390372906 0.000103652143269856 -0.000288892113029553 -0.000269039432424565 -0.00047179548977733 -0.000428699622416888 0.000426638968061299 0.000123905170352356 0.000226879226634143 -2.09308480208808e-05 0.000219839274636853 0.000260321061410838 0.000324838482890431 0.000202152973207435
"328" -4.94767265841881e-05 -0.000604234036375585 -0.000415498651469193 0.00010431106652327 -0.000295715125645264 -0.000291568031643467 -0.00046674789974848 -0.000452010321937332 0.000452858730759415 0.000119578590291985 0.000218278927662568 -5.87954301100761e-05 0.000209459007342141 0.000300752811191588 0.000320615792365255 0.000156446849961644
"329" -3.64166829706684e-05 -0.000616383313674266 -0.000403613413138722 0.000105482958346187 -0.000300261185916316 -0.000311504305357577 -0.000459253667372862 -0.000472735504652362 0.000478223197987232 0.000115594575917143 0.000210041548165986 -9.54492912619054e-05 0.000199912022781846 0.000340296381283593 0.00031707757692215 0.000109660200386812
"330" -2.10326856195855e-05 -0.000625226479461738 -0.000388535358203823 0.000107235380866784 -0.000302430544560363 -0.000328662044378965 -0.000449246630534476 -0.000490669240740911 0.00050260239230823 0.000111971863014834 0.000202214437430974 -0.000130659529163599 0.0001912691426381 0.000378699706733547 0.000314264885601304 6.21576080084312e-05
"331" -3.37103693473679e-06 -0.000630688062007344 -0.000370340935190618 0.000109637901729017 -0.000302153047983325 -0.000342877325141186 -0.000436679361384591 -0.000505641262547518 0.000525878851487986 0.000108729787379291 0.000194847273572357 -0.00016420752817446 0.00018359569253173 0.000415715210418061 0.000312204760685741 1.43349532322713e-05
"332" 1.64820432670271e-05 -0.000632727269430252 -0.000349143314670204 0.000112744406506949 -0.000299385410796463 -0.000354009037515867 -0.000421519372447241 -0.000517509953948472 0.000547935435239697 0.000105882866709577 0.000187985817205237 -0.000195890898658007 0.000176947844924975 0.000451110553002237 0.000310911041113861 -3.33931635418103e-05
"333" 3.84147258750185e-05 -0.000631349456230935 -0.000325086587287808 0.00011660215984002 -0.000294109035534808 -0.00036194123253392 -0.000403751823557457 -0.000526169328485755 0.000568666492303577 0.00010344158116504 0.000181668095852657 -0.000225525213409876 0.000171362913134983 0.000484647463702023 0.000310387980226729 -8.06001147538718e-05
"334" 6.22774382647046e-05 -0.000626603621925354 -0.000298343413199687 0.000121253170289423 -0.00028633632803393 -0.000366588623582171 -0.000383390874588786 -0.000531545924898064 0.000587977208471321 0.0001014167986791 0.000175933365476534 -0.000252943043393851 0.000166869340844343 0.000516115650878479 0.000310625442191306 -0.000126850780834385
"335" 8.79039256884883e-05 -0.000618569915593117 -0.000269118391405721 0.00012672583604969 -0.000276099215935858 -0.000367887640735224 -0.000360463689963555 -0.000533594013711431 0.0006057721146689 9.98099037680154e-05 0.000170806608466775 -0.00027800642124002 0.000163483773108104 0.000545304229537538 0.000311602475767766 -0.000171712827146033
"336" 0.000115097739949202 -0.000607370023510951 -0.000237633698957274 0.000133041387990103 -0.000263460965910891 -0.000365814074689787 -0.000335026146719755 -0.000532309922771519 0.000621971614196148 9.86205957521997e-05 0.00016631484516328 -0.000300593856036399 0.000161216791827716 0.000572030772449061 0.000313290135795645 -0.000214764375082962
"337" 0.00014365085734776 -0.000593145699097138 -0.000204123976395034 0.000140214405913132 -0.00024850672669659 -0.000360369539317094 -0.000307152565396182 -0.000527717304439922 0.00063649942833493 9.78407020861659e-05 0.000162472558943352 -0.000320617470480419 0.000160065962756327 0.000596124974144607 0.000315652433065243 -0.000255601243954394
"338" 0.000173342306263728 -0.000576072452213195 -0.000168845858868358 0.000148246805379162 -0.000231347071150473 -0.000351591017088391 -0.000276946343618936 -0.000519867516304436 0.000649295851583534 9.74606693580851e-05 0.000159289070873726 -0.000338010527487061 0.000160024368461464 0.000617439512263902 0.000318644212242929 -0.00029384225743032
"339" 0.000203942693760902 -0.000556336995101155 -0.00013205786387205 0.00015713932924407 -0.000212103764471399 -0.000339546149553179 -0.00024453243187643 -0.000508847324509721 0.00066030137835854 9.7457628904328e-05 0.000156766679517671 -0.000352735055301416 0.000161075280194446 0.000635848006094618 0.000322219912646964 -0.000329138510404953
"340" 0.000235218029155505 -0.000534143611104309 -9.40141512578795e-05 0.000166877774083172 -0.000190925581706581 -0.000324334731556275 -0.000210060825271596 -0.000494768254742191 0.000669477460900622 9.78123520086052e-05 0.000154896833195099 -0.000364778945831219 0.000163198914480935 0.000651251606430695 0.000326330501589517 -0.000361174489023378
"341" 0.000266935211905307 -0.000509709927282965 -5.49822274868213e-05 0.000177446866995342 -0.000167972916005737 -0.000306089907786046 -0.000173700934348165 -0.000477764835116111 0.000676788525791945 9.84906203738455e-05 0.000153673175557806 -0.000374156856308999 0.000166371851831016 0.000663580025590338 0.000330930363431325 -0.000389683938038541
"342" 0.000298869997025412 -0.000483253679700343 -1.52176311078341e-05 0.000188824116310236 -0.00014341928775681 -0.000284975285051968 -0.000135647096815058 -0.0004580017375053 0.000682217200069471 9.94639588822474e-05 0.000153071810242727 -0.000380910755210542 0.000170565652244416 0.000672784093344799 0.000335968902362251 -0.000414442639177267
"343" 0.000330799298853262 -0.00045500003087937 2.50343962754807e-05 0.000200980762320209 -0.000117450540942092 -0.000261176939765558 -9.61112389746836e-05 -0.000435656000707675 0.000685759502590104 0.000100696380995245 0.000153075651006196 -0.000385105069196251 0.000175755648015553 0.000678857502997677 0.000341402916548291 -0.000435272393503617
"344" 0.000362516449646342 -0.000425175190919229 6.55364642625528e-05 0.00021388564938197 -9.02614039777001e-05 -0.000234909413260436 -5.5324068234324e-05 -0.000410935204622277 0.000687424530237239 0.000102147465791171 0.000153652188105237 -0.000386827009236387 0.000181910376680576 0.000681810003237008 0.000347192611735304 -0.000452046856372647
"345" 0.000393824295231419 -0.00039399527618301 0.000106058487927176 0.000227503618769467 -6.20556905086672e-05 -0.000206410242758906 -1.35256590518565e-05 -0.000384050932930781 0.000687236153787685 0.000103780044139694 0.000154773835900079 -0.000386183109613139 0.000188996430542821 0.000681684877498677 0.000353299232280686 -0.000464689994376873
