"V1" "V2" "V4" "V5" "V7" "V8" "V10" "V11" "V13" "V14" "V15" "V17" "V18" "V20" "V21" "V23"
"1" 0.000513481527785638 0.00059283920673014 -6.05782273683359e-05 0.00068254072757018 0.000284433971301639 0.000632720204188599 0.000275235033274455 0.000843715581916234 0.000210152888132117 -0.000238867157474196 2.02344393130152e-05 0.000413843786953453 -0.000173272908649798 0.000427906985084406 0.000201343812861744 -0.000207254086081522
"2" 0.000510785473242416 0.000587825576884516 -6.49120295712503e-05 0.000678620384302291 0.000291341994276086 0.000632389381336489 0.000279685786693569 0.000844920129763623 0.000223233441273612 -0.000234202690529776 2.41890614368698e-05 0.00041018756390955 -0.000165503185376413 0.00043343209944363 0.000209785956951917 -0.000212671802041038
"3" 0.000507899654178233 0.000581869958788754 -6.90983070877229e-05 0.000673740874672837 0.000298182488136168 0.000631447002556308 0.000284021922498747 0.000844879398117007 0.000236665614199315 -0.000229829191525075 2.80192730174275e-05 0.000405584642586634 -0.000157571436560862 0.000438755595449401 0.00021832768345115 -0.000216475913158217
"4" 0.000504837508864057 0.000574995701287295 -7.31122689389269e-05 0.000667947955808081 0.000304972734598504 0.000629952533921693 0.000288245226950573 0.000843661332620499 0.000250337819775284 -0.000225728532828605 3.16974569249357e-05 0.00040002486844086 -0.000149497877400799 0.000443864902287668 0.00022687950065289 -0.0002187666745202
"5" 0.000501621198925435 0.000567235827698443 -7.69294380281899e-05 0.000661288230103828 0.000311734104444833 0.000627956841229552 0.000292362510626377 0.000841328629743841 0.000264137246895852 -0.000221882823049505 3.51908012947863e-05 0.000393493751712371 -0.000141307869933695 0.000448749074603675 0.000235345414093359 -0.000219655312251426
"6" 0.000498259440486401 0.000558621654437826 -8.05261269037453e-05 0.000653822740360646 0.000318490263572109 0.000625521057593961 0.000296384674572492 0.000837957361129142 0.000277949306449346 -0.000218268810894698 3.84714988800742e-05 0.000386002220395436 -0.000133037341252672 0.000453384990139735 0.000243633059874646 -0.000219283872116618
"7" 0.000494762478924011 0.000549189911652501 -8.38846661533717e-05 0.00064560650915363 0.000325242368824891 0.00062269248756173 0.000300307661519313 0.00083360829124576 0.000291641746033055 -0.000214865180719044 4.15109486821821e-05 0.00037755291121523 -0.000124706077788418 0.000457753387951714 0.000251638394955712 -0.000217731915643857
"8" 0.000491133143375281 0.00053898358954858 -8.69901213718106e-05 0.000636690921146457 0.000331992949846411 0.000619518106680367 0.000304129031144287 0.000828337001406054 0.000305095265878159 -0.000211654145175264 4.42882841741195e-05 0.000368151998869221 -0.000116339382809747 0.000461820974958786 0.000259267886131105 -0.00021509922956706
"9" 0.000487366255367409 0.000528039045678505 -8.98214888703036e-05 0.000627148018992906 0.000338753251912482 0.00061605244510392 0.000307852643695028 0.000822224294000748 0.000318186895768616 -0.000208603747089623 4.67731145132277e-05 0.0003578420015493 -0.00010798933908067 0.000465551883556203 0.000266421318794137 -0.000211542204702011
"10" 0.000483461712508603 0.000516398149961346 -9.23777291121556e-05 0.000617027422869183 0.0003455079014894 0.000612331145619831 0.000311465313523779 0.000815314860966699 0.000330792244806746 -0.000205694822500574 4.89503156754193e-05 0.000346631038408606 -9.96733472426014e-05 0.000468917149720705 0.000273004437086103 -0.000207115213327863
"11" 0.000479411399190723 0.000504122941420011 -9.46416589576235e-05 0.000606388688288937 0.000352246454343224 0.000608393656508539 0.000314962136292217 0.000807675962342284 0.000342797015940053 -0.000202909448278341 5.08022494017333e-05 0.000334573094271685 -9.14330011511258e-05 0.000471873974481755 0.000278924816835685 -0.000201944350170119
"12" 0.000475193225921185 0.000491239731156624 -9.66182022839763e-05 0.000595285599413793 0.000358952637049014 0.000604270307790203 0.000318321978312949 0.000799349638838286 0.000354082172730479 -0.000200218041018955 5.23173851975005e-05 0.000321698966750608 -8.33017875737298e-05 0.000474384432327298 0.000284091831591554 -0.00019610630760334
"13" 0.000470791725517981 0.000477816011441792 -9.82982513302268e-05 0.000583777256455438 0.000365604076328325 0.000599993574846694 0.000321535553984405 0.000790400896456723 0.000364543920782829 -0.000197606718664984 5.34796796970813e-05 0.000308072501073183 -7.53242473300645e-05 0.000476403319184314 0.000288429149227897 -0.00018973560331856
"14" 0.000466175574916271 0.000463887267022739 -9.96914465625966e-05 0.000571904168305497 0.000372164873764863 0.000595580740845674 0.000324572421561407 0.000780860097706798 0.000374075946347822 -0.000195048863895457 5.42841464632238e-05 0.000293735685969514 -6.75352027264053e-05 0.000477887456196029 0.000291856300317556 -0.000182908825492444
"15" 0.000461322458201481 0.000449507935832907 -0.000100801793876752 0.000559714450445214 0.000378607780135786 0.00059105248214429 0.00032741597574429 0.000770780771923931 0.000382586201660449 -0.000192527701599208 5.47254114737745e-05 0.00027876173637537 -5.99696036202645e-05 0.00047879480925117 0.000294303194747394 -0.000175722220731493
"16" 0.000456203070146709 0.000434739974384052 -0.000101642241574727 0.000547241907172636 0.00038488765491969 0.000586415875275977 0.000330033453279858 0.000760189409595335 0.000389995789116791 -0.000190030467035951 5.48075917576105e-05 0.000263203022716513 -5.26604539374304e-05 0.000479081712763713 0.000295714885245923 -0.000168256235180506
"17" 0.000450769749263146 0.000419617191801855 -0.000102221679274453 0.000534526328699342 0.000390963354075725 0.000581678957937964 0.000332393043098007 0.000749128349980521 0.000396227390992153 -0.000187532207558059 5.45256453074424e-05 0.00024713900188711 -4.56573960218326e-05 0.000478709703158626 0.000296035164087218 -0.000160635443417936
"18" 0.000444988655723605 0.000404197248307588 -0.00010256359971734 0.00052158903848998 0.000396780952471906 0.00057684220195864 0.000334457655898016 0.000737622178132498 0.000401223934553466 -0.000185026007079693 5.38933542809998e-05 0.000230631480755784 -3.89869311019683e-05 0.000477632161347996 0.000295223432220694 -0.000152924483993036
"19" 0.000438822956918363 0.000388537529937056 -0.000102691106816924 0.000508448206767042 0.000402284375242973 0.000571894693866045 0.000336182703648535 0.000725691868371505 0.000404938190882241 -0.000182502484411919 5.29232265520491e-05 0.00021374535431142 -3.26739602529309e-05 0.00047582149451311 0.000293256737350258 -0.000145180313019838
"20" 0.000432217032095012 0.000372674053422587 -0.000102622660724444 0.000495125785739195 0.000407420615332343 0.000566830527007829 0.000337537110079782 0.000713363158932193 0.000407330893178116 -0.000179940597424348 5.16206684394857e-05 0.000196565995550236 -2.67695296186469e-05 0.000473232547506563 0.0002901057366915 -0.000137543485092979
"21" 0.000425129672890029 0.000356661806444764 -0.000102383905782232 0.000481630115578486 0.000412132574578928 0.000561636948922417 0.000338471315179562 0.000700657884477868 0.000408382577907952 -0.000177337199006956 5.00078929504486e-05 0.000179159844970302 -2.12877166679818e-05 0.000469845767385697 0.000285769920905606 -0.000130060100152167
"22" 0.00041751550347212 0.000340543842117853 -0.000102011252474002 0.000467960858863608 0.000416350650086198 0.000556290505889068 0.000338931415819915 0.000687583354473507 0.000408086084880278 -0.000174684134863605 4.81050962856871e-05 0.000161591994023867 -1.62565112119956e-05 0.000465631778705011 0.000280249310095434 -0.000122796255489778
"23" 0.000409327206589059 0.000324369538131393 -0.000101528299836856 0.000454120500352734 0.000420020437914687 0.000550772869215805 0.000338883359775756 0.000674156290214778 0.00040645098226485 -0.00017197300178739 4.59317294289484e-05 0.000143939389443382 -1.1708757226476e-05 0.000460576531017269 0.000273562773335576 -0.000115866698203037
"24" 0.000400515709673402 0.000308176103988521 -0.000100974411280276 0.000440101412714468 0.000423070931102107 0.000545054663750853 0.000338265152701503 0.000660379971269215 0.000403496321205061 -0.000169197100927074 4.35173768054983e-05 0.000126264219259634 -7.6583092397263e-06 0.000454668245544257 0.000265745591361054 -0.000109308443315899
"25" 0.00039104167404282 0.000292010507482736 -0.000100379813917628 0.000425894862914499 0.000425436971631021 0.000539108912945843 0.000337035095191081 0.000646266428436869 0.000399258815016977 -0.000166358125181716 4.08904575186939e-05 0.000108633086665161 -4.12197435373571e-06 0.000447906273381306 0.000256831549267301 -0.000103197797235983
"26" 0.00038085812508888 0.00027590584780981 -9.97837798794789e-05 0.00041148350895278 0.000427057031552503 0.000532906488101771 0.000335134333853669 0.000631814628190456 0.000393779151658303 -0.00016345000551543 3.80744971601135e-05 9.11048623378027e-05 -1.11385307872822e-06 0.000440291464507808 0.000246881020375277 -9.75967251879379e-05
"27" 0.000369927802674857 0.000259898872841764 -9.92188152189682e-05 0.000396854689749883 0.000427871861088304 0.000526417412310931 0.000332521161027671 0.00061703755790477 0.000387129339822571 -0.000160472629135644 3.51065537731695e-05 7.37444974841487e-05 1.35196345379851e-06 0.000431847241200748 0.000235963401660534 -9.25742321491545e-05
"28" 0.000358218714618258 0.000244031749489726 -9.87222661362525e-05 0.00038198458130625 0.00042781213699863 0.000519603771524268 0.000329142045416898 0.000601924217099627 0.000379375004108823 -0.000157421194622151 3.20150691735332e-05 5.65937193709588e-05 3.28361159766474e-06 0.000422593292938443 0.000224155898575402 -8.81544096131265e-05
"29" 0.000345692600284198 0.000228326701351533 -9.83327932155961e-05 0.000366855643106875 0.000426829815514111 0.000512438785068899 0.000324949077197107 0.000586487100832866 0.000370604871797668 -0.000154296743144312 2.88362383831204e-05 3.97117913500319e-05 4.66955248607385e-06 0.000412565171648595 0.000211546012651789 -8.44095681470398e-05
"30" 0.00033233422532325 0.000212821603016795 -9.80803387902919e-05 0.000351444775088886 0.000424865110998773 0.000504891197181945 0.000319900585500943 0.000570723706656676 0.000360908444392804 -0.000151096831643243 2.5602854008249e-05 2.3140699412406e-05 5.52044280307141e-06 0.000401810435674532 0.000198240045842809 -8.13760043343331e-05
"31" 0.000318115311848576 0.000197535151245316 -9.80032313167943e-05 0.000335730554894212 0.000421869345702659 0.000496926132048122 0.000313948028590353 0.000554631606459257 0.000350394430028558 -0.000147821721103182 2.23474360242579e-05 6.92290889426821e-06 5.84066276901077e-06 0.000390375261220131 0.000184338244855957 -7.90899574610531e-05
"32" 0.000303023542455001 0.000182491577929887 -9.81344265884364e-05 0.000319693528304716 0.000417795478127538 0.000488518364128499 0.000307060023916481 0.00053821101740867 0.000339170857650841 -0.000144464140855508 1.91023416764699e-05 -8.91111186349348e-06 5.64783844141773e-06 0.000378328768912659 0.000169959271866625 -7.75868116878199e-05
"33" 0.000287061524568817 0.000167722316405812 -9.85013519338145e-05 0.000303316300771029 0.000412613554321238 0.000479643612349039 0.000299195805960293 0.000521474923724452 0.000327356265741496 -0.000141027031405221 1.5900115819967e-05 -2.43270131097724e-05 4.95781922624354e-06 0.000365740956763121 0.000155228745326925 -7.68980266471924e-05
"34" 0.000270216892580349 0.000153232545926248 -9.91323192534358e-05 0.00028658214631202 0.000406279553373015 0.000470275502858502 0.000290328610488773 0.000504417563897566 0.000315070826038604 -0.000137502581147364 1.27713422437454e-05 -3.92942050257586e-05 3.79327331936229e-06 0.000352691971644162 0.000140266381376509 -7.70470384742828e-05
"35" 0.000252510432674312 0.000139053563874985 -0.00010005573986698 0.000269478379458492 0.000398775891574771 0.000460394165565363 0.000280433751925471 0.000487049514211061 0.000302438533335427 -0.000133885841499849 9.74596026921893e-06 -5.38021136757032e-05 2.18856887636481e-06 0.000339264201523788 0.000125204531269177 -7.80425708150273e-05
"36" 0.000233952608398053 0.000125186859656719 -0.000101291252172494 0.000251998677531364 0.000390077898075878 0.000449990088534945 0.000269492618151793 0.000469377087281297 0.000289587420871147 -0.000130167861095179 6.85209465030056e-06 -6.78286993122337e-05 1.71722475291723e-07 0.000325556624666037 0.000110177477365122 -7.99139435421657e-05
"37" 0.000214563495733987 0.000111646049891213 -0.000102865194944502 0.000234135400255381 0.000380170021670015 0.000439044955742747 0.00025748336463796 0.0004514037752334 0.000276636744997871 -0.000126341073575028 4.11530997951005e-06 -8.13758713542682e-05 -2.21022731136411e-06 0.000311661701093026 9.53050915832632e-05 -8.26449059366381e-05
"38" 0.000194386005260059 9.84473079742244e-05 -0.000104786610783657 0.000215890496648257 0.000369054064626632 0.000427555775749601 0.000244404205938802 0.000433143353127304 0.000263716361417048 -0.000122393888823957 1.55434098697329e-06 -9.44350865959742e-05 -4.92899663067777e-06 0.000297680400884101 8.07231612213096e-05 -8.62781150717659e-05
"39" 0.000173457821237287 8.55950119119826e-05 -0.000107068061625476 0.000197274142494201 0.000356733446231189 0.000415521920652807 0.000230254014845378 0.000414614131044754 0.000250941800270739 -0.000118316582172693 -8.04774451323497e-07 -0.000107014566768679 -7.92768647754742e-06 0.000283718726226463 6.65518446526713e-05 -9.08002507496559e-05
"40" 0.000151822447313817 7.30921110085266e-05 -0.000109721291777477 0.000178298490469876 0.000343214887062402 0.000402946351771189 0.000215037854517523 0.000395829874621946 0.00023843113586258 -0.000114091332757926 -2.94934656836575e-06 -0.0001191181593612 -1.11606867000467e-05 0.000269870165773789 5.28987842541223e-05 -9.62228171729622e-05
"41" 0.000129536690253422 6.09433483401901e-05 -0.000112755376520127 0.000158980404219867 0.000328513840133782 0.000389834733734103 0.000198765232287145 0.000376805733662937 0.000226284943805215 -0.000109706084890134 -4.86355244544227e-06 -0.000130768922587757 -1.45647285583373e-05 0.000256238356975368 3.98834448714318e-05 -0.000102523077567342
"42" 0.000106667396052066 4.9147983394074e-05 -0.000116167964172472 0.000139344370896439 0.000312660155673094 0.000376201967018221 0.000181457830914345 0.000357558581501227 0.000214609430010503 -0.000105138716325529 -6.5338312685336e-06 -0.000141993340944765 -1.80871101060774e-05 0.000242919724818479 2.76026073282405e-05 -0.00010971227711202
"43" 8.32782750657215e-05 3.77122816033468e-05 -0.000119958599520611 0.000119426692854946 0.000295691987717086 0.000362073060683286 0.00016314183664881 0.000338124716256594 0.000203493914069864 -0.000100371982407877 -7.95412638272685e-06 -0.000152810879280931 -2.166723583403e-05 0.000230012280825992 1.61477241527518e-05 -0.000117791503104097
"44" 5.9444389872899e-05 2.66258250560757e-05 -0.000124118638628233 9.92681445057455e-05 0.000277642490279003 0.000347466765981136 0.000143847436762798 0.000318521803955446 0.000193023634857793 -9.53840635690859e-05 -9.11697700658733e-06 -0.000163260578300558 -2.52396105242708e-05 0.000217598105799208 5.6005404459919e-06 -0.000126751386122268
"45" 3.52563221197578e-05 1.58988359892073e-05 -0.000128638532470847 7.8914171156769e-05 0.000258570118218631 0.00033241521340954 0.000123620151212363 0.000298786368010208 0.000183270997359786 -9.01564426980217e-05 -1.00236869572275e-05 -0.000173377872737719 -2.87400048403395e-05 0.000205762993693164 -3.97552487524995e-06 -0.000136591166212116
"46" 1.07841852930555e-05 5.5145025884411e-06 -0.000133508444350376 5.84134597384908e-05 0.000238523966645585 0.00031695210063022 0.000102503592807955 0.00027893966205361 0.000174298253267244 -8.46597040225087e-05 -1.06685712336758e-05 -0.000183215017335634 -3.21002114045229e-05 0.000194585015095333 -1.25154405118825e-05 -0.000147295226480132
"47" -1.38689457469632e-05 -4.51657205732594e-06 -0.000138709963003503 3.78314628665127e-05 0.00021756981877445 0.000301121849055476 8.05533625192844e-05 0.000259027349095016 0.000166158771339586 -7.88798888490669e-05 -1.10556388213182e-05 -0.000192813060071912 -3.5252807438502e-05 0.00018413064650072 -1.99794319164319e-05 -0.000158855614601963
"48" -3.86165655310151e-05 -1.42076961720784e-05 -0.000144222557054918 1.72268446839588e-05 0.000195770891566453 0.000284957171057279 5.78211229168495e-05 0.000239076789948309 0.000158879205652064 -7.27915974463891e-05 -1.1194638249274e-05 -0.000202231060774181 -3.81258306829154e-05 0.000174448953961219 -2.63388439637395e-05 -0.000171254216932472
"49" -6.33665782387555e-05 -2.35630051762824e-05 -0.000150024447815288 -3.32521952257214e-06 0.000173210722337765 0.000268515996849186 3.43822778547577e-05 0.000219130742166554 0.000152498219356593 -6.63714319679529e-05 -1.10925623035566e-05 -0.000211523139397691 -4.06624270327404e-05 0.000165596357867076 -3.15694654685995e-05 -0.000184501023614577
"50" -8.80263038980875e-05 -3.25967712334619e-05 -0.000156090486876837 -2.37519735466267e-05 0.00014995780151455 0.000251843840117105 1.02970692382883e-05 0.000199224839670841 0.000147026361757019 -5.95948192767567e-05 -1.07555328581842e-05 -0.000220747215147211 -4.27847720680597e-05 0.000157611840525297 -3.56674614006196e-05 -0.000198550667647671
"51" -0.000112488790587075 -4.12964794423829e-05 -0.000162395338111673 -4.39756098888345e-05 0.000126099603266967 0.00023499397762276 -1.43547883290094e-05 0.000179402052358866 0.000142468357568373 -5.24508925447966e-05 -1.01977289623207e-05 -0.000229972371762643 -4.44305796561954e-05 0.000150522516000842 -3.86355965594108e-05 -0.000213393098530825
"52" -0.000136665167830152 -4.96799675684195e-05 -0.000168905147871311 -6.39075632661958e-05 0.000101723230838965 0.000218027397446154 -3.9491029426589e-05 0.000159704824171972 0.000138814468259421 -4.4913544926905e-05 -9.43121060410651e-06 -0.000239253174701402 -4.5546811561791e-05 0.000144351407342622 -4.04958609290171e-05 -0.000229023878870439
"53" -0.000160462838557906 -5.77499018498957e-05 -0.000175591596575071 -8.34675328037293e-05 7.6921301859432e-05 0.000200998006527991 -6.50339127326051e-05 0.000140181583612237 0.00013604942036169 -3.69715420091643e-05 -8.4755471587395e-06 -0.00024865087205146 -4.60693931353426e-05 0.00013910296549829 -4.12710909578106e-05 -0.000245402845760921
"54" -0.000183778568119739 -6.55085080168885e-05 -0.000182420358707845 -0.000102561406536478 5.17879916784015e-05 0.000183967094433801 -9.08941134318251e-05 0.000120871392369351 0.000134144427464998 -2.86117736358507e-05 -7.34335935046802e-06 -0.00025822818578771 -4.59529782388275e-05 0.000134786479164725 -4.10051886841064e-05 -0.000262518402134152
"55" -0.000206534773669398 -7.29622208591739e-05 -0.00018935765104087 -0.000121104497450221 2.64129588401401e-05 0.000166994278188172 -0.000116983408388788 0.000101817230641587 0.000133063502771992 -1.98250661034611e-05 -6.0520515779968e-06 -0.000268045387789496 -4.51420254574828e-05 0.000131383850876461 -3.97381461536517e-05 -0.000280310413217025
"56" -0.000228645663538902 -8.01263203201285e-05 -0.000196369653819192 -0.000139004645160395 8.89650348972842e-07 0.000150142308842156 -0.000143216442468216 8.3064051512349e-05 0.000132750879449168 -1.060026104733e-05 -4.61969052969816e-06 -0.000278157670794812 -4.35979988972558e-05 0.000128886824878233 -3.75339936132055e-05 -0.000298748846040286
"57" -0.00025001885546198 -8.69815211431701e-05 -0.000203419207373801 -0.000156173525934352 -2.46744780397748e-05 0.000133469397318621 -0.000169494099050901 6.46598703846382e-05 0.00013316756910031 -9.42431533074144e-07 -3.06637351477229e-06 -0.000288616059890386 -4.12958610001437e-05 0.000127273079093269 -3.44502145148533e-05 -0.000317807601843434
"58" -0.000270592028604503 -9.35557380870508e-05 -0.000210477006793636 -0.000172520899469919 -5.01934897779818e-05 0.000117039918328846 -0.000195727448956957 4.66401814922186e-05 0.000134237728015615 9.14991748535579e-06 -1.40981188354677e-06 -0.000299463070278652 -3.81979599959073e-05 0.000126504195733502 -3.05589509359259e-05 -0.000337410777514102
"59" -0.000290280068424551 -9.98274172918218e-05 -0.000217504108744858 -0.000187969725165301 -7.55702966497374e-05 0.000100903366656831 -0.000221831101147647 2.90424196931476e-05 0.000135899656123607 1.96642855699505e-05 3.36210473873579e-07 -0.000310751774604147 -3.42814196855599e-05 0.00012655618486472 -2.59316481244598e-05 -0.000357479942905647
"60" -0.000309029947868685 -0.000105816592746386 -0.000224468445589318 -0.00020242672708713 -0.000100708439951912 8.51232682655558e-05 -0.000247703076019062 1.19182269595606e-05 0.000138080362076782 3.05969194870969e-05 2.14709965252061e-06 -0.000322497867871053 -2.95478505764447e-05 0.000127370506613405 -2.06500408505364e-05 -0.000377987053812549
"61" -0.000326783879444551 -0.000111513913778886 -0.000231335511124869 -0.000215816922236389 -0.000125518180251747 6.97544319876578e-05 -0.00027325817833681 -4.69660810809766e-06 0.000140705750840719 4.19295747849578e-05 4.00683543874187e-06 -0.00033472805847664 -2.39921818294129e-05 0.000128908216726595 -1.47998064585232e-05 -0.000398854873611959
"62" -0.000343483859479055 -0.000116919292962492 -0.000238077880055052 -0.00022807339785533 -0.000149909322857303 5.48435715275448e-05 -0.000298411878717377 -2.07760592327652e-05 0.000143694622675012 5.36358292175946e-05 5.89981656216257e-06 -0.000347463881191524 -1.76199632968624e-05 0.000131119026030465 -8.45578207990556e-06 -0.000419991761304521
"63" -0.000359099446034033 -0.000122042291371582 -0.000244666805246079 -0.000239121859119016 -0.000173800016268716 4.04380747407665e-05 -0.000323079645552028 -3.6278726830442e-05 0.000146962880886923 6.56949414615667e-05 7.80864706718462e-06 -0.000360705275509757 -1.04456650057213e-05 0.000133939541785041 -1.71136613387657e-06 -0.000441306270301225
"64" -0.000373592000592863 -0.000126873091969814 -0.00025107057875702 -0.000248902233900608 -0.000197104847306137 2.65852547613685e-05 -0.000347177161281105 -5.11772246232921e-05 0.000150427632978819 7.80681258029014e-05 9.72090272036042e-06 -0.000374441876471635 -2.49121952075535e-06 0.000137315401543181 5.35031775860366e-06 -0.000462706133739336
"65" -0.000386929289948161 -0.000131403557651336 -0.000257268070402982 -0.00025736476300257 -0.00021975183183692 1.33217927988193e-05 -0.000370630097377764 -6.54472162587406e-05 0.000154010864325535 9.07240632838084e-05 1.16208549680073e-05 -0.000388664983573734 6.20348168825422e-06 0.000141192913067452 1.26453623917194e-05 -0.000484088688536596
"66" -0.00039910630932884 -0.000135647964715103 -0.000263230957048874 -0.000264456022312793 -0.000241661258402265 6.8534072034652e-07 -0.000393360531384069 -7.90563468691887e-05 0.000157626507994406 0.000103623181668918 1.3493376218983e-05 -0.000403332873878215 1.55899505961955e-05 0.000145492514037006 2.00887200907693e-05 -0.00050537273670848
"67" -0.000410101152003424 -0.000139586167116385 -0.000268945782114024 -0.000270148405357562 -0.000262770845348854 -1.12969903273015e-05 -0.000415301735350275 -9.19927000380017e-05 0.00016119356274869 0.000116709668724143 1.53313147405584e-05 -0.000418413921780086 2.56308678564853e-05 0.000150163761565472 2.75985705270848e-05 -0.000526410090068294
"68" -0.000419918270547512 -0.000143217247486503 -0.000274391279216932 -0.000274405500356549 -0.000283014934549945 -2.25966310606284e-05 -0.000436394025442535 -0.000104229085680072 0.00016463817336143 0.000129938525403399 1.71206709101491e-05 -0.000433850046820419 3.62592026684408e-05 0.000155131679683072 3.50992678683773e-05 -0.00054710293811054
"69" -0.000428567459627444 -0.00014654338342895 -0.000279552627237912 -0.000277209773966767 -0.000302339441121456 -3.31954779808381e-05 -0.000456575063232219 -0.000115756586856228 0.000167886940851913 0.000143259769669549 1.88553391510406e-05 -0.000449576157885686 4.74035758965263e-05 0.000160341205147189 4.25157801079013e-05 -0.000567337639825388
"70" -0.000436059718164011 -0.000149553155794007 -0.000284417984710891 -0.00027855224638002 -0.000320692904108703 -4.30765786268685e-05 -0.000475789848041401 -0.000126563155834542 0.00017087204435429 0.000156607069889071 2.05261252783647e-05 -0.000465520512709315 5.89931246083578e-05 0.000165720686896498 4.97815244737907e-05 -0.000586985111384142
"71" -0.000442422391192979 -0.000152247492483013 -0.000288979572901912 -0.000278433911069779 -0.000338030103815724 -5.22333160329296e-05 -0.000493999203269224 -0.000136643087464907 0.000173525847516308 0.00016992490301704 2.21296609848894e-05 -0.00048159525732239 7.09497358404775e-05 0.000171206150089133 5.68292772473517e-05 -0.000605919303289345
"72" -0.000447680311052277 -0.000154616341588139 -0.000293232129386112 -0.000276867265777571 -0.000354320878682946 -6.06602523782147e-05 -0.000511165173740301 -0.000145996717734077 0.00017578477302276 0.000183147749235237 2.3660185645161e-05 -0.000497713952576492 8.31814212005267e-05 0.000176735075132057 6.35988203012347e-05 -0.000624018655792222
"73" -0.000451876299278527 -0.000156660416863949 -0.000297171220128122 -0.00027386522371817 -0.000369522912426134 -6.8359000676862e-05 -0.000527245220957044 -0.000154613813207213 0.000177604574024704 0.000196213042369639 2.51136505477835e-05 -0.000513757208502338 9.56022807911504e-05 0.00018224785664168 7.00374968434268e-05 -0.00064116592351223
"74" -0.000455050130904343 -0.000158368252389275 -0.000300798007159194 -0.000269462846995685 -0.000383618789014942 -7.53366356374361e-05 -0.000542217755705411 -0.000162504936155714 0.000178937651068072 0.000209047890616175 2.64901067446275e-05 -0.000529625307371212 0.000108113189572518 0.000187678329398955 7.60991305436357e-05 -0.000657232958115042
"75" -0.000457254110859303 -0.000159743936593734 -0.000304116514966092 -0.000263698460200537 -0.000396588640186183 -8.16025886672553e-05 -0.00055606213346478 -0.000169673207593159 0.000179745492911817 0.000221590302149109 2.77850521195759e-05 -0.000545192041376598 0.000120614148152824 0.000192971482455251 8.17392577086017e-05 -0.000672123319337929
"76" -0.000458534077352815 -0.000160760138946706 -0.000307132237925096 -0.000256625321461763 -0.000408419865352488 -8.71788994392736e-05 -0.000568763089058077 -0.000176132045073245 0.00017998892601247 0.000233763991026609 2.90049114816653e-05 -0.000560345127681303 0.000133014643513149 0.000198077922082932 8.69292108746347e-05 -0.000685700636467374
"77" -0.000458964369727896 -0.000161440567862016 -0.000309849688079895 -0.000248294451958077 -0.000419110822826629 -9.20847316147492e-05 -0.000580317767135936 -0.000181892463634227 0.000179654880807046 0.000245511683272109 3.01474572331306e-05 -0.000574952806073273 0.000145198035955873 0.000202941641907889 9.16390719888918e-05 -0.000697893262107841
"78" -0.00045860070182693 -0.000161766001860233 -0.000312285920905694 -0.000238774643272737 -0.00042865292897779 -9.63427326743249e-05 -0.000590718238249588 -0.000186967280995364 0.000178720255797611 0.000256761276570594 3.12158931992288e-05 -0.000588879419981477 0.000157066442524037 0.000207508043092694 9.5839005361305e-05 -0.0007086068063517
"79" -0.000457509740583122 -0.000161732517666747 -0.00031444946796903 -0.000228144289360439 -0.000437062933278092 -9.99879594174924e-05 -0.000599978716103342 -0.000191377711698013 0.000177175869898329 0.00026744810687695 3.2216220706077e-05 -0.00060200474694685 0.000168520018187097 0.000211735258215845 9.95270510138933e-05 -0.000717747603501193
"80" -0.000455758765359297 -0.000161338423153433 -0.0003163572704027 -0.000216482325151969 -0.000444347933613114 -0.000103051724797666 -0.000608101226446995 -0.000195138465349763 0.000175025012307088 0.000277509388376563 3.31475982938841e-05 -0.00061419657241495 0.000179453742880724 0.000215583209544707 0.000102686569151468 -0.000725268596154145
"81" -0.000453431368918603 -0.000160589809322456 -0.000318027985898826 -0.000203876648855419 -0.000450531763265373 -0.00010557456798249 -0.000615107188664918 -0.000198279086876441 0.000172266856311881 0.000286892629792344 3.40180331926012e-05 -0.000625324946697979 0.000189766755878628 0.000219005793433671 0.000105315810145242 -0.000731102992474335
"82" -0.000450587142151549 -0.000159475084415026 -0.0003194781649951 -0.000190418841811838 -0.00045563047980488 -0.000107593685551446 -0.000621020956091196 -0.000200813765140256 0.000168921156817249 0.000295538931205325 3.48339455401824e-05 -0.000635269416197972 0.000199370877774668 0.000221982131368302 0.000107422494599715 -0.000735209010925774
"83" -0.00044731002962486 -0.000157996848237135 -0.000320729212648872 -0.000176216423438504 -0.000459675037126874 -0.000109155151879507 -0.000625871115317614 -0.000202776991714446 0.000165005327185918 0.000303396548650303 3.56015597053911e-05 -0.000643914341838855 0.00020816404764871 0.000224474011275588 0.000109017887810726 -0.000737576863633123
"84" -0.000443669522865904 -0.000156160138261168 -0.000321806750717606 -0.000161367602917105 -0.000462708046518555 -0.000110305886193778 -0.000629690010570557 -0.000204197465881166 0.000160541752708823 0.000310422864035634 3.63240817889364e-05 -0.000651151372468764 0.00021606683328471 0.000226457738120971 0.000110110138821345 -0.000738182392140396
"85" -0.000439734838519846 -0.000153960143157372 -0.000322727007477314 -0.000145979667037084 -0.000464755141497085 -0.000111088483910243 -0.000632515736734102 -0.000205094653137581 0.000155567990204552 0.000316577006380367 3.70100027343031e-05 -0.000656873028251718 0.000222995780830991 0.000227918203832023 0.000110725347826794 -0.000737044887351837
"86" -0.000435585240257358 -0.000151405624316137 -0.00032351537276494 -0.000130157390288774 -0.000465860777114148 -0.000111553110536929 -0.000634383192468879 -0.000205495038084273 0.000150123166218348 0.000321829170139082 3.76614724757987e-05 -0.000660980336870213 0.000228865076021938 0.00022883447680622 0.000110886886047106 -0.00073420829333791
"87" -0.000431281388919511 -0.000148495370601721 -0.000324196486907158 -0.000114020795443415 -0.000466076183332983 -0.000111752827917012 -0.000635352254169921 -0.000205441718555476 0.000144245242596668 0.000326150437111265 3.82923543624069e-05 -0.000663414363247967 0.000233623771481212 0.000229200191323837 0.000110624700333198 -0.000729670689740458
"88" -0.000426894011116006 -0.00014524366007176 -0.000324795560203722 -9.76686575860191e-05 -0.000465443891171549 -0.00011173008582788 -0.000635460388024534 -0.000204952861940798 0.000137989990514601 0.000329524161418264 3.89047192200516e-05 -0.000664088232855496 0.000237202305290652 0.000229015387759379 0.000109977209244686 -0.000723521344254364
"89" -0.000422481691885708 -0.000141640792444671 -0.000325332342774651 -8.12183411764231e-05 -0.000464014630790859 -0.000111539068579038 -0.0006347603979519 -0.000204057030656847 0.000131405174901398 0.000331935777402191 3.95012692515682e-05 -0.000662948271973951 0.000239552567022837 0.000228272832891881 0.000108971284547036 -0.0007158364010566
"90" -0.000418104910551522 -0.00013771143780998 -0.000325834155973176 -6.4778189753235e-05 -0.000461842388214806 -0.0001112309926763 -0.000633313825015916 -0.000202791943150613 0.000124545523214186 0.000333384617946886 4.00936713180662e-05 -0.000659963922935038 0.00024063149956239 0.000226981324475067 0.000107652837954021 -0.000706701201084038
"91" -0.000413822181632732 -0.000133463548514859 -0.000326324166767875 -4.84519406499004e-05 -0.000458989454213631 -0.000110851333325143 -0.000631176357600905 -0.000201186237978789 0.0001174721223662 0.00033387667418885 4.06843428553398e-05 -0.000655108937247236 0.000240417764480557 0.000225143899723654 0.000106059312100762 -0.000696201673687187
"92" -0.000409670184958107 -0.000128896865025616 -0.000326822940076674 -3.23430314659438e-05 -0.000455505273577752 -0.000110445722964273 -0.000628400573445803 -0.000199263803923652 0.000110245884213842 0.000333423879616745 4.12743438264315e-05 -0.000648374844315651 0.000238879585482158 0.000222783870110576 0.000104234847739786 -0.00068449747684999
"93" -0.000405699842527723 -0.000124030932996002 -0.000327351607111115 -1.65482552872799e-05 -0.000451446358226628 -0.000110060160138306 -0.000625044127475123 -0.000197054908253077 0.000102927367523344 0.000332047159222227 4.18734940640161e-05 -0.000639767901533986 0.000236017812923501 0.000219908844247185 0.000102215800802838 -0.000671698181856561
"94" -0.00040195045108631 -0.000118882774334845 -0.000327929096173601 -1.1617517308585e-06 -0.000446872844017916 -0.000109740775509406 -0.000621175046858953 -0.000194590984717619 9.55807155382589e-05 0.000329780291142489 4.2480946383355e-05 -0.000629321945557741 0.000231829941048578 0.000216544490413441 0.000100054635972447 -0.000657958605637718
"95" -0.000398450395039298 -0.000113460872571715 -0.000328580125765794 1.37222303130179e-05 -0.000441850082741252 -0.000109528020520087 -0.000616849086659638 -0.000191904735065574 8.82702745360566e-05 0.00032665624732242 4.31025377661961e-05 -0.000617094468231314 0.000226343383847425 0.000212719007971472 9.77930683690353e-05 -0.000643414578746982
"96" -0.00039521805639717 -0.000107776051725413 -0.000329315689535574 2.8026844135321e-05 -0.000436428216067406 -0.000109459666203123 -0.000612128299787723 -0.000189009338617697 8.10598056546435e-05 0.000322724276491063 4.37399941139118e-05 -0.000603140148835557 0.000219582656873243 0.000208459912357621 9.54713567067814e-05 -0.000628236167420552
"97" -0.000392291911163252 -0.000101866491276527 -0.000330156986625069 4.16789866897542e-05 -0.000430672279410633 -0.000109571179652665 -0.000607068539391091 -0.000185948189365356 7.40080987651631e-05 0.000318040822907625 4.43921966762893e-05 -0.000587553251205532 0.000211586583979639 0.000203788285725287 9.31266923468376e-05 -0.000612590118092934
"98" -0.000389665804377657 -9.57250312137418e-05 -0.000331114011106854 5.46061116959198e-05 -0.000424629378700831 -0.000109896876694491 -0.000601732589330047 -0.000182733029013314 6.71807987605246e-05 0.000312661193809094 4.50619244411013e-05 -0.000570435620586001 0.000202410098918695 0.000198748166591957 9.07999972921241e-05 -0.000596665806371328
"99" -0.000387357560624461 -8.93883841425167e-05 -0.000332197257049099 6.67511730135947e-05 -0.000418361146255235 -0.00011046606985864 -0.000596170180586498 -0.000179392095580136 6.06354590242288e-05 0.000306660338910884 4.57433311556958e-05 -0.000551909713156693 0.000192117858978379 0.000193359353546614 8.85249891503974e-05 -0.000580633161750884
"100" -0.000385367046645024 -8.28700023608947e-05 -0.000333425470021428 7.80547237995863e-05 -0.000411928304836379 -0.000111309160697201 -0.000590450532097238 -0.000175957990584046 5.44259258951067e-05 0.000300108233989546 4.64466236678982e-05 -0.000532132020438261 0.000180801407320606 0.00018767972329559 8.6346176973564e-05 -0.000564638836961379
"101" -0.000383693578667133 -7.619898419942e-05 -0.000334798036619444 8.84842715078968e-05 -0.000405375860327311 -0.000112443739311796 -0.00058460843624038 -0.000172443766983538 4.86077132534044e-05 0.000293085954297495 4.71605858956132e-05 -0.000511241489534157 0.000168536090233013 0.000181726659118355 8.42765849600867e-05 -0.000548900572452042
"102" -0.00038232539327783 -6.93916956036834e-05 -0.000336329279143384 9.79931950309821e-05 -0.000398758104671076 -0.000113893314504288 -0.000578710530650271 -0.000168885327633931 4.32248687295026e-05 0.000285679611645659 4.78889763333717e-05 -0.000489435474855819 0.000155430264152166 0.000175548885620681 8.23566071135175e-05 -0.000533567981396274
"103" -0.000381246076181095 -6.24664306739501e-05 -0.000338014770075721 0.000106560717577731 -0.000392119556435597 -0.000115673792765986 -0.000572796790562722 -0.000165289230880104 3.83288113401254e-05 0.000277971872140368 4.86219188795928e-05 -0.000466884652266525 0.000141590941500352 0.00016918164863259 8.06036007168818e-05 -0.000518829942846363
"104" -0.000380438744052682 -5.5459145019189e-05 -0.000339864062002578 0.000114163346968028 -0.00038551274134592 -0.00011779987090189 -0.000566920201651706 -0.000161695294115641 3.39550962256167e-05 0.00027005621400698 4.93644828365856e-05 -0.000443810417512008 0.000127143645622181 0.000162667776775404 7.90415783999118e-05 -0.000504828309227899
"105" -0.000379883020468099 -4.83804293575838e-05 -0.000341876786424427 0.000120794280778944 -0.000378973415193201 -0.000120281320118638 -0.000561115398954651 -0.000158110582370123 3.01403442657846e-05 0.000262023386625524 5.01054244034447e-05 -0.000420415371005387 0.00011221382801081 0.000156046129727373 7.76846907728546e-05 -0.000491734353560039
"106" -0.000379551989428503 -4.12648016280305e-05 -0.000344046555897968 0.000126451161996668 -0.000372546625881035 -0.000123122168696678 -0.00055542740649916 -0.000154557322602298 2.69169523562893e-05 0.00025396783430443 5.08439573530422e-05 -0.000396920278508783 9.69336917496383e-05 0.000149352187761641 7.65433526612578e-05 -0.000479703295410229
"107" -0.000379420825534176 -3.41312967331403e-05 -0.000346374014735384 0.000131137665648003 -0.000366267702124154 -0.000126329064642857 -0.000549896363359669 -0.000151066032140962 2.43068976496188e-05 0.000245976970926638 5.15761627128838e-05 -0.000373565654376942 8.14437878609551e-05 0.000142628854825506 7.56299038512892e-05 -0.000468861431012931
"108" -0.000379450419884532 -2.70082756240197e-05 -0.000348853286876678 0.000134866654325081 -0.000360177133980684 -0.000129901701863195 -0.000544552891472651 -0.000147652284579623 2.23242203712934e-05 0.000238145803669274 5.22960865374491e-05 -0.000350585134395956 6.58905151698511e-05 0.000135917292843634 7.49501241588222e-05 -0.000459319082044142
"109" -0.000379621413585243 -1.99229335046648e-05 -0.000351476710717056 0.000137665472445307 -0.000354299336772242 -0.000133832456735208 -0.000539429929956768 -0.000144333472517038 2.09910051299625e-05 0.00023056145294941 5.29991328614938e-05 -0.000328202390839202 5.0410867491883e-05 0.000129255910348897 7.45015458619597e-05 -0.000451222950481096
"110" -0.00037989111430241 -1.28921887544785e-05 -0.000354233158376982 0.000139554964772628 -0.000348663437107859 -0.00013812023512454 -0.000534552168628635 -0.000141130594491818 2.03054660846027e-05 0.000223304751903325 5.36771862290294e-05 -0.000306660164201081 3.51516963282108e-05 0.000122681167678491 7.42872942375085e-05 -0.000444664097581547
"111" -0.000380222274377875 -5.94001631657692e-06 -0.000357113709280204 0.000140572131338322 -0.000343296343153758 -0.00014275455246675 -0.000529943253418106 -0.000138063990567125 2.02734443366291e-05 0.000216451270502291 5.4328906123106e-05 -0.000286190188192372 2.02660259923479e-05 0.000116236800300498 7.4305444541753e-05 -0.000439704764565774
"112" -0.00038059076404339 8.98922280960548e-07 -0.000360106848449528 0.000140762650483548 -0.00033822136851236 -0.000147722602007499 -0.00052562838407405 -0.000135149143385875 2.08816453210975e-05 0.00021008405115248 5.49449715124156e-05 -0.000267012534457146 5.87409950111905e-06 0.000109951360669055 7.45419307964999e-05 -0.000436465475128978
"113" -0.000380956167536635 7.61369545662146e-06 -0.000363199311200909 0.00014016318251515 -0.000333453047945042 -0.000153013600551403 -0.000521626764377696 -0.000132412282327122 2.21277653832755e-05 0.000204261339961674 5.55270398437765e-05 -0.000249348244913735 -7.87115736317623e-06 0.00010386962229461 7.49925384778517e-05 -0.000434948194539982
"114" -0.000381295152652126 1.4172874506351e-05 -0.000366376579442669 0.000138826533934223 -0.000329012635794103 -0.000158611305382578 -0.000517949268774269 -0.000129870350655002 2.3982215293022e-05 0.000199043069905192 5.60605177788684e-05 -0.000233403122498716 -2.08509176601917e-05 9.8019783002674e-05 7.56426856198917e-05 -0.000435231208480136
"115" -0.000381569355383508 2.05600271077992e-05 -0.000369620332207262 0.000136809821867117 -0.000324903995180306 -0.00016449436110194 -0.000514613277052381 -0.000127535087406905 2.64310664269653e-05 0.00019448138550606 5.65493881515142e-05 -0.000219368412695081 -3.29457133051392e-05 9.24408398337434e-05 7.64819085670357e-05 -0.000437325501374603
"116" -0.000381747441731885 2.67620221735398e-05 -0.000372915867523477 0.000134167569181953 -0.000321141184622202 -0.000170647369413355 -0.000511620805796843 -0.000125430103865018 2.9438385658803e-05 0.00019061821785334 5.69855179888131e-05 -0.000207417813867508 -4.403992168961e-05 8.71601747680359e-05 7.74922020407931e-05 -0.00044123832619625
"117" -0.000381813394030177 3.27471677606486e-05 -0.000376247268889886 0.000130960484466359 -0.000317730180503996 -0.000177046957209969 -0.000508980515509449 -0.000123573556248595 3.29771027307449e-05 0.000187489365311802 5.73679876314183e-05 -0.000197713608180952 -5.40362911626281e-05 8.22156478078929e-05 7.86667530512495e-05 -0.000446960287986112
"118" -0.000381740147219411 3.84981203035258e-05 -0.000379594789085735 0.000127250232924848 -0.000314672823846223 -0.000183670922958361 -0.000506696550921853 -0.00012198200119052 3.70051730073918e-05 0.000185115954850386 5.76868209040661e-05 -0.00019039032528461 -6.28601274411019e-05 7.7624547404619e-05 7.99706342231e-05 -0.000454499510714532
"119" -0.000381508946704628 4.4008963104674e-05 -0.000382940631071357 0.000123096107501115 -0.000311974444475651 -0.000190499627587375 -0.000504774871825191 -0.000120670995947856 4.14832330098559e-05 0.000183511674622137 5.79449272928188e-05 -0.000185575451515264 -7.04179156123438e-05 7.34204591724391e-05 8.14031938396358e-05 -0.000463767436137379
"120" -0.000381105619398881 4.92534335315424e-05 -0.000386267611989626 0.000118559996738815 -0.000309627131764509 -0.000197506370105625 -0.00050320611167887 -0.000119660933662639 4.63563829560027e-05 0.000182684017913897 5.81366199662739e-05 -0.000183363661199171 -7.66634921682548e-05 6.96242028829281e-05 8.29380853702485e-05 -0.000474743147350546
"121" -0.000380512345451374 5.42279129734629e-05 -0.00038955737564889 0.000113704923782252 -0.000307631104747755 -0.000204671304811671 -0.000501990559748278 -0.000118964692395472 5.15847415340503e-05 0.000182626907953199 5.82600240598558e-05 -0.000183830916506959 -8.15500648117024e-05 6.62595218830392e-05 8.45583951346044e-05 -0.000487353989520529
"122" -0.000379726831797482 5.89149154128104e-05 -0.000392786165954833 0.000108590578321603 -0.000305973598297931 -0.000211965173142138 -0.00050111880282928 -0.000118593477459961 5.71166594798899e-05 0.000183328301171192 5.83125572501384e-05 -0.000187013323018487 -8.50502238948913e-05 6.33414729809898e-05 8.62464103137967e-05 -0.000501535352643313
"123" -0.000378736141427621 6.33119746214697e-05 -0.000395942427479318 0.000103269733576508 -0.000304649700692327 -0.000219369288780694 -0.000500586752740319 -0.000118572557468045 6.28970838285529e-05 0.000184756946632128 5.8297562663067e-05 -0.000192950167858901 -8.71384642995052e-05 6.08852945342311e-05 8.79884371431541e-05 -0.000517162641300236
"124" -0.00037755295516832 6.73924103605382e-05 -0.000399003098389685 9.78064610799214e-05 -0.000303649785724405 -0.000226857328386452 -0.0005003785188962 -0.000118902256959471 6.88696211208166e-05 0.000186894341812604 5.82070853617905e-05 -0.000201624150087549 -8.78334503498945e-05 5.88981046320384e-05 8.97611291826335e-05 -0.000534176465063069
"125" -0.000376167810881478 7.11724031961136e-05 -0.000401959643427274 9.22401325700512e-05 -0.000302961884368657 -0.000234414440181794 -0.000500492237974399 -0.00011961244617102 7.49790438281856e-05 0.000189688900450887 5.8045164516911e-05 -0.000213030735075637 -8.71347174061689e-05 5.7390638559465e-05 9.15558224021608e-05 -0.000552417355747905
"126" -0.000374595681707127 7.46283092267267e-05 -0.000404785177858503 8.66288540877117e-05 -0.000302568169855517 -0.000242008357976778 -0.000500898250814119 -0.000120694115282067 8.11752623979414e-05 0.000193102791065341 5.78089590762109e-05 -0.000227085666771821 -8.50894124502579e-05 5.63646175863442e-05 9.33513016150316e-05 -0.0005718152854752
"127" -0.000372839675832166 7.77681764119179e-05 -0.000407470277428104 8.1008464945526e-05 -0.000302455260470998 -0.000249628190286334 -0.00050159575379478 -0.000122172457255411 8.73994544685461e-05 0.000197072465462008 5.74996456137113e-05 -0.000243731179202651 -8.17329910609754e-05 5.58182180091254e-05 9.51380437777567e-05 -0.000592213118843749
"128" -0.000370920836773173 8.05853091033097e-05 -0.000410000025021089 7.54166400513703e-05 -0.000302607963805416 -0.000257251953317831 -0.000502561692833649 -0.000124049619648264 9.35968637218208e-05 0.000201541130422745 5.71161060656893e-05 -0.000262862107068352 -7.71238247741378e-05 5.5753647221893e-05 9.69059510493037e-05 -0.000613474285612633
"129" -0.000368853239737422 8.30808324657619e-05 -0.000412358385887102 6.98879640070463e-05 -0.000303010227083685 -0.000264859897044889 -0.000503780791673178 -0.000126340137685395 9.97175202698074e-05 0.00020644017271618 5.66619066104478e-05 -0.000284348643315024 -7.13394675599441e-05 5.61611709056159e-05 9.86458235982731e-05 -0.000635470405539035
"130" -0.00036666217892617 8.52517512576707e-05 -0.000414533931582723 6.44541437433688e-05 -0.000303633935410208 -0.000272438283275263 -0.000505229380529658 -0.000129036899807665 0.00010571339855953 0.000211705997078848 5.61328213385984e-05 -0.000308034454689748 -6.44673280657279e-05 5.70234432430657e-05 0.000100343742064103 -0.000658065609224104
"131" -0.000364364226439691 8.71073367502637e-05 -0.000416517504386807 5.91299322099886e-05 -0.000304467195234188 -0.000279971440498794 -0.000506888083741718 -0.000132149730412048 0.000111536220176158 0.000217253682609436 5.55333959094769e-05 -0.00033375258139621 -5.66010337289234e-05 5.83252323187626e-05 0.000101997011994727 -0.000681105884151297
"132" -0.000361987147195776 8.86508105682908e-05 -0.000418295846609958 5.39309259657172e-05 -0.00030548966371338 -0.000287448589199946 -0.000508743780578522 -0.000135688572924559 0.000117137105769241 0.000223011911143131 5.48651629305573e-05 -0.0003613220721438 -4.78353628584997e-05 6.00552814669382e-05 0.000103602296017415 -0.000704417758653968
"133" -0.000359557746835651 8.98854394305316e-05 -0.000419862968139329 4.88714807756213e-05 -0.000306681927405229 -0.000294857801464073 -0.000510767516651614 -0.000139641182370793 0.0001224827329623 0.000228898388557381 5.41264701187395e-05 -0.000390522436488585 -3.8295669813564e-05 6.21862157111191e-05 0.00010515821512635 -0.000727871169777857
"134" -0.000357105514972376 9.08231682305915e-05 -0.000421205769311641 4.39542129649227e-05 -0.000308016241092966 -0.000302184822765016 -0.00051293644536833 -0.00014400664374808 0.000127536548932873 0.000234834526058489 5.33168703437876e-05 -0.000421129633974491 -2.8109260215619e-05 6.46936972011488e-05 0.000106658005215667 -0.000751337153793217
"135" -0.000354659702785088 9.1459801137455e-05 -0.000422328492022991 3.91727670082208e-05 -0.000309481178487844 -0.000309431391832027 -0.000515236472686208 -0.000148791494420234 0.000132254434419843 0.000240739676946295 5.24440394593752e-05 -0.000452919774603432 -1.73898268799671e-05 6.75455456996673e-05 0.000108104180840082 -0.000774618201818477
"136" -0.000352258143784878 9.18140619439315e-05 -0.000423216423112542 3.45277514305293e-05 -0.000311049814356234 -0.000316583198067264 -0.000517638921166935 -0.000153974454848104 0.000136615606135408 0.000246531704672362 5.15012717532286e-05 -0.000485626470252677 -6.28177931514011e-06 7.0716642216643e-05 0.000109500836353268 -0.000797602943409534
"137" -0.000349928145300052 9.18885643037589e-05 -0.000423871605999172 3.00012117235528e-05 -0.00031270484397797 -0.000323638675514342 -0.000520125536372153 -0.000159561424788071 0.000140595273465344 0.000252134088244277 5.04919547317916e-05 -0.000519000330602049 5.07327857135129e-06 7.41738543126337e-05 0.000110853878199419 -0.000820155399228302
"138" -0.000347691723295347 9.1709062254294e-05 -0.000424288431692563 2.55771417653202e-05 -0.000314425645017606 -0.000330593658219487 -0.000522671291316448 -0.000165528988257308 0.000144171784664066 0.000257467390166856 4.94209968753804e-05 -0.000552773438413789 1.65473858712787e-05 7.7884891368444e-05 0.000112168855937946 -0.00084210055856924
"139" -0.000345595350561419 9.1264240512103e-05 -0.000424472290691529 2.1230215615637e-05 -0.00031619445929473 -0.000337451549318856 -0.000525259039807833 -0.000171876579075031 0.000147329037969397 0.000262462710900771 4.82853988896775e-05 -0.000586678627560073 2.79932181501913e-05 8.18106699258798e-05 0.000113454986422827 -0.000863325038724758
"140" -0.000343662980489969 9.05783781174428e-05 -0.000424417922772303 1.69393479323238e-05 -0.000317989856248939 -0.000344205579283274 -0.000527867107874251 -0.000178582927471793 0.000150054414660349 0.000267048972692866 4.70862594907535e-05 -0.000620438336216695 3.92629071345349e-05 8.59268990841991e-05 0.000114723021728941 -0.000883707431959631
"141" -0.000341923917868368 8.96598990779284e-05 -0.000424126303842117 1.26731730057295e-05 -0.000319793272004605 -0.000350858037621741 -0.000530468098977841 -0.000185627841475906 0.000152341628846544 0.000271160512571243 4.58233034323625e-05 -0.000653771061291412 5.02086725782359e-05 9.01821401075206e-05 0.000115978592270094 -0.000903146621980689
"142" -0.000340410459055778 8.85164265751514e-05 -0.000423606408311507 8.4014594159546e-06 -0.00032158999712475 -0.000357410149254618 -0.000533053862290143 -0.000192997268197979 0.000154185096842698 0.000274741165690412 4.4498469254665e-05 -0.000686412597076918 6.06978295711756e-05 9.45569833158643e-05 0.000117240133320892 -0.000921515958913837
"143" -0.000339142923136154 8.71667927860318e-05 -0.00042285724731364 4.08484214520751e-06 -0.00032336139909385 -0.000363868396766258 -0.000535599147273444 -0.000200668656288192 0.000155594528087098 0.000277734785016425 4.31130773326774e-05 -0.000718091465503711 7.05828912963779e-05 9.90117972247827e-05 0.00011851717005934 -0.000938734484894852
"144" -0.000338148392618442 8.56208063488266e-05 -0.000421888015127629 -3.11538408582809e-07 -0.000325096085656899 -0.000370233827855191 -0.000538090472879499 -0.000208620387378941 0.000156561261978852 0.000280092360497378 4.16679704307736e-05 -0.000748548838164493 7.97346196954825e-05 0.000103516806902628 0.000119830073922065 -0.000954703971809813
"145" -0.000337455789087679 8.3876658535583e-05 -0.000420702479210189 -4.82337084993097e-06 -0.000326777656281361 -0.000376510030360809 -0.000540507730158947 -0.000216832265032024 0.000157097302472728 0.000281778307283509 4.01593173126598e-05 -0.000777526905895281 8.80131218140721e-05 0.000108042903068653 0.000121188160777226 -0.000969382183673812
"146" -0.000337073469349202 8.19621143545636e-05 -0.000419306146552663 -9.49405018074608e-06 -0.000328391251152203 -0.000382700917543488 -0.00054283897353834 -0.000225268411731173 0.000157215018558931 0.000282750889732552 3.85894075767212e-05 -0.000804778742898267 9.52966764424638e-05 0.000112561618263051 0.000122611536580441 -0.00098270243111973
"147" -0.000337024126277424 7.98796234511834e-05 -0.000417709776025246 -1.43576955902709e-05 -0.000329924594236029 -0.000388809332956985 -0.000545068173459092 -0.000233907249328672 0.000156934065178625 0.000282989534181474 3.69605056571158e-05 -0.000830075654956328 0.000101459108013247 0.000117046612879352 0.000124113193033937 -0.000994639794041297
"148" -0.000337322412768825 7.76409585464588e-05 -0.000415915868584533 -1.94539384517714e-05 -0.000331369945483694 -0.000394843438402781 -0.000547182786289086 -0.00024271833144885 0.0001562686346836 0.000282473586948016 3.52700475482492e-05 -0.000853198589632362 0.000106396146969442 0.00012147596397464 0.000125710490324951 -0.0010051609924883
"149" -0.000337977606213056 7.52482625075971e-05 -0.000413947225875494 -2.48245106952264e-05 -0.000332724842827053 -0.000400808787321332 -0.000549180767966399 -0.000251681717853132 0.000155231410805175 0.000281190981728307 3.3522961756822e-05 -0.000873964653627262 0.000110009353084924 0.000125836768659372 0.000127425669779883 -0.00101423427335734
"150" -0.000338996111133777 7.27146229122703e-05 -0.000411800681561875 -3.05019824368969e-05 -0.000333971628400372 -0.000406707543141846 -0.0005510417924934 -0.000260757707421605 0.000153855049164273 0.000279144390650822 3.17165609246076e-05 -0.000892177864780918 0.000112197200821176 0.000130095975340742 0.000129265287166002 -0.00102189810853579
"151" -0.000340384456081657 7.00467867175136e-05 -0.000409492055971264 -3.65188059708186e-05 -0.000335108352153339 -0.000412545360260852 -0.000552757587813237 -0.000269915151610433 0.000152162695429094 0.000276335605796822 2.98482142131974e-05 -0.000907679629051453 0.000112877286323616 0.000134248425227559 0.000131242318401766 -0.00102817971338432
"152" -0.000342137655896134 6.725595988236e-05 -0.0004070348796746 -4.2915495447119e-05 -0.000336132898025899 -0.00041832969306839 -0.000554330173744297 -0.000279135766482382 0.000150175316220058 0.000272773807446614 2.79280884453834e-05 -0.000920353928540649 0.00011199362057694 0.000138283962207757 0.000133378851018203 -0.00103307653539703
"153" -0.000344258321086518 6.43408599984343e-05 -0.000404437022983005 -4.9715340478539e-05 -0.000337038627558889 -0.000424063450038348 -0.000555748495577321 -0.000288376142273791 0.000147926391449519 0.000268486789257059 2.59459848501102e-05 -0.000930075080229288 0.000109480451329918 0.000142182818008081 0.000135678934153568 -0.00103667827062536
"154" -0.000346737532275344 6.13041757498661e-05 -0.000401716292938479 -5.69479488173445e-05 -0.000337830907353616 -0.000429753104932016 -0.000557011433644067 -0.000297616503141965 0.000145440146564865 0.000263506748686562 2.39114081339065e-05 -0.000936767991486192 0.00010530061916341 0.000145934580501771 0.000138148806803645 -0.00103902432594986
"155" -0.000349562264774485 5.81675146070645e-05 -0.000398876905840256 -6.46358248989957e-05 -0.000338501963176454 -0.000435399999808183 -0.000558112123666035 -0.000306816414139709 0.000142754393371354 0.000257861661856539 2.18223692197618e-05 -0.000940371118657777 9.9427550085871e-05 0.000149545713752688 0.000140807870778203 -0.00104020072397366
"156" -0.000352720024505128 5.49157841586193e-05 -0.000395939732936035 -7.27992070494294e-05 -0.000339060848586771 -0.000441010239078948 -0.000559053955631144 -0.000315952782597063 0.000139898077668137 0.000251605030734651 1.96782700779316e-05 -0.000940859538228869 9.18446098490872e-05 0.000152994358167107 0.000143641514536297 -0.00104031185455963
"157" -0.000356192208374782 5.15682936653588e-05 -0.000392915759889987 -8.1457313954716e-05 -0.000339507358673626 -0.000446591063665777 -0.000559830703162451 -0.000324999087990851 0.00013690307335789 0.000244785974612482 1.748654088032e-05 -0.000938239825873854 8.25698073129985e-05 0.000156285467602693 0.000146667903364349 -0.0010394231200428
"158" -0.000359961163798587 4.81137483045524e-05 -0.000389814793778281 -9.06208476431074e-05 -0.000339847433650011 -0.000452141903079279 -0.0005604469355016 -0.000333928827461613 0.000133803750259482 0.000237462684871802 1.52455154028671e-05 -0.000932539621299565 7.16144038024128e-05 0.000159405877687775 0.000149873536988578 -0.00103767695974641
"159" -0.000364003254580671 4.45543390956149e-05 -0.000386659545130256 -0.000100301329133775 -0.00034009192233596 -0.00045766876493385 -0.000560902174298104 -0.00034271575690345 0.000130623512312813 0.000229702617161284 1.29567406902407e-05 -0.000923827228454955 5.90236824115311e-05 0.000162354443054739 0.00015325258024522 -0.00103518109530642
"160" -0.000368284757958359 4.09041416657926e-05 -0.000383456312498101 -0.000110503603467004 -0.000340243022475353 -0.000463175142936096 -0.000561200985785869 -0.000351335107429048 0.00012741217889433 0.000221570167361066 1.06274241389356e-05 -0.000912193121067693 4.48485929041758e-05 0.000165125234790445 0.000156803483136784 -0.00103207201909747
"161" -0.000372783725877565 3.71599592711317e-05 -0.000380220182821621 -0.000121228808029658 -0.00034030830800279 -0.000468662317950627 -0.000561341295212596 -0.000359763938003394 0.000124188778113126 0.00021314350147031 8.25582947726604e-06 -0.000897758938540636 2.91707026055833e-05 0.000167716075134692 0.000160504691431166 -0.00102847130962946
"162" -0.000377461311190574 3.33222937267165e-05 -0.000376964632253487 -0.000132474272963182 -0.000340306990439971 -0.000474136037517474 -0.00056133290950736 -0.000367986252220525 0.000120984706590849 0.000204501296448527 5.84756415295605e-06 -0.000880680159238113 1.20745991026505e-05 0.000170116729805162 0.000164337462765355 -0.00102453181038553
"163" -0.000382289031946176 2.93904408034113e-05 -0.00037370760963282 -0.000144230684971178 -0.000340245162207737 -0.000479596069612515 -0.00056117111253527 -0.000375976429938825 0.00011783780537119 0.000195723154503408 3.40564021511545e-06 -0.000861130537126681 -6.33470576258497e-06 0.00017232235805263 0.000168285567082296 -0.00102039868949539
"164" -0.000387232796596104 2.53602553919336e-05 -0.00037046102406037 -0.000156492686350613 -0.000340137275551121 -0.000485048542786859 -0.000560869866968275 -0.000383727348605732 0.000114770848396676 0.000186897441283674 9.36736791686838e-07 -0.000839323228920523 -2.59295521762413e-05 0.000174324259834806 0.000172321759649148 -0.00101619899015269
"165" -0.000392247284288248 2.12464717393384e-05 -0.000367232374455496 -0.00016923885631955 -0.000339987772600117 -0.000490488386677103 -0.000560424740902116 -0.000391213270933848 0.000111818780719142 0.000178104375523727 -1.55940427058019e-06 -0.000815473922207628 -4.65797232467004e-05 0.000176111820987834 0.00017641180019721 -0.00101209981132058
"166" -0.000397299488383693 1.70369285155192e-05 -0.000364045334354678 -0.000182460153716013 -0.000339824025052284 -0.000495928182384842 -0.000559849489027914 -0.000398437826316181 0.000108994743706067 0.000169431680630811 -4.07380555694093e-06 -0.000789851860393433 -6.81263833573588e-05 0.00017767147582049 0.000180527125020615 -0.0010082122855071
"167" -0.000402346927956053 1.27443851663334e-05 -0.00036090259563977 -0.000196126386365195 -0.000339653523023553 -0.000501358965501203 -0.000559138034275137 -0.000405377083363138 0.000106335726264127 0.000160961783413174 -6.60423367845986e-06 -0.000762710484098909 -9.04140708929161e-05 0.000178994832807143 0.000184626390366056 -0.00100470057026641
"168" -0.000407351697290677 8.36798327433029e-06 -0.000357820454322826 -0.000210214331397921 -0.000339486654394328 -0.000506780453933188 -0.000558300365216241 -0.000412030600900728 0.000103856784562426 0.000152778708425732 -9.14519964962448e-06 -0.000734340676036295 -0.000113266230460286 0.000180074900813029 0.000188675653250225 -0.001001694936441
"169" -0.000412279532074507 3.90133422698008e-06 -0.000354807568339139 -0.000224690457068137 -0.000339340320230475 -0.000512196154412389 -0.000557334786342198 -0.000418387457734731 0.000101576423664864 0.000144966691040126 -1.16924233968594e-05 -0.000705034561041846 -0.000136514505895562 0.000180890144032867 0.000192621944597595 -0.000999347595583325
"170" -0.00041708038739934 -6.41315095270421e-07 -0.000351877040615655 -0.000239527319634042 -0.000339232269300378 -0.000517606495736312 -0.000556256458150232 -0.000424451192454229 9.95117629883882e-05 0.000137596294344545 -1.42371386486002e-05 -0.000675108339601455 -0.000159956871911202 0.000181427748305019 0.000196427138954949 -0.000997746415735992
"171" -0.000421714591082806 -5.25192384752504e-06 -0.000349038281424495 -0.000254684300842359 -0.000339175705021969 -0.000523005924124541 -0.000555057759068028 -0.000430216147102753 9.76711986602581e-05 0.000130733875666672 -1.67758046194731e-05 -0.000644864286387283 -0.000183406549239858 0.000181676174991971 0.000200043244067424 -0.000997025820632142
"172" -0.000426157431044917 -9.94729808655157e-06 -0.000346300947295665 -0.000270122653085203 -0.00033918311546717 -0.000528392167781314 -0.000553750836212726 -0.000435687804727599 9.6071037383548e-05 0.000124456498597867 -1.92993046484641e-05 -0.000614618618786295 -0.000206668035151821 0.000181624913410271 0.00020342175223637 -0.000997284461528412
"173" -0.000430362679551246 -1.46985480077379e-05 -0.000343665763812651 -0.000285794311997021 -0.000339260241408331 -0.000533758493124158 -0.000552323850146229 -0.00044085596169936 9.47157890109137e-05 0.000118815975326303 -2.18080623895781e-05 -0.000584664452811015 -0.000229560648991386 0.000181254790290522 0.000206510499510052 -0.000998662410157704
"174" -0.000434292105252728 -1.95107130383391e-05 -0.000341145079836953 -0.000301658909109051 -0.000339432835204598 -0.000539105537668949 -0.000550794587602333 -0.000445737781653941 9.36076789454453e-05 0.000113860501120093 -2.42881475729795e-05 -0.000555323154299332 -0.000251884552109349 0.000180562589527941 0.000209267997518781 -0.00100121804040655
"175" -0.000437921835272058 -2.43727495699225e-05 -0.000338739834524917 -0.000317662347120757 -0.000339698041704071 -0.000544422722201735 -0.000549155192626619 -0.000450333809206761 9.27431467907324e-05 0.00010963824045249 -2.67388028744341e-05 -0.000526866019902016 -0.000273459319134185 0.00017953225628087 0.000211637500892585 -0.00100505139211212
"176" -0.000441216729300736 -2.92854112032478e-05 -0.000336458570911725 -0.000333751472406415 -0.000340075229135106 -0.000549699176198827 -0.000547411013195983 -0.000454653179039125 9.21189064867461e-05 0.000106178590803191 -2.91524017218501e-05 -0.000499572670578489 -0.000294113478113839 0.000178160843815836 0.000213577250858738 -0.00101025108320741
"177" -0.000444144881488768 -3.42258507342063e-05 -0.000334299341418987 -0.00034987652660799 -0.000340565317343935 -0.000554932113504188 -0.000545561268814887 -0.000458704325456037 9.17264843022634e-05 0.000103507021835526 -3.15225868877647e-05 -0.000473703008047749 -0.000313669778968637 0.000176443966755981 0.000215039726115882 -0.00101686844203297
"178" -0.000446688992725372 -3.91897506921166e-05 -0.000332262089718009 -0.000365972437812461 -0.000341175351586253 -0.000560106105993952 -0.000543602068223139 -0.000462487990503603 9.15566144376524e-05 0.000101639074422986 -3.38422685838291e-05 -0.000449477999215576 -0.000331984703332388 0.000174375723377241 0.000215983930575672 -0.00102497941636449
"179" -0.00044882105005937 -4.41736515865211e-05 -0.000330352816315691 -0.000381986716934062 -0.000341918803042531 -0.000565213464950465 -0.000541537027783231 -0.000466025888566773 9.15844533529327e-05 0.000100578270975624 -3.6108202502753e-05 -0.000427119926345484 -0.000348908959877164 0.000171954188127495 0.000216372816158581 -0.00103461891489935
"180" -0.000450521627794136 -4.91516220310219e-05 -0.000328562912869909 -0.000397852461916699 -0.000342784351106676 -0.000570236540669147 -0.000539357919897853 -0.000469319672531806 9.18044533455827e-05 0.000100321176653353 -3.83126655771557e-05 -0.000406798908518981 -0.000364322509991993 0.00016918792130762 0.000216164729106357 -0.00104584852326443
"181" -0.000451775254781469 -5.41260614629307e-05 -0.000326887900248149 -0.000413507639818633 -0.000343782730649349 -0.00057516141401367 -0.000537059567474431 -0.00047238283175974 9.21861948516547e-05 0.000100853926442475 -4.04547471894374e-05 -0.000388673919677381 -0.000378118284668718 0.000166082077247306 0.000215333722458861 -0.00105870251251797
"182" -0.00045256879606052 -5.90720316996179e-05 -0.000325329273150031 -0.000428896277655697 -0.000344908618159025 -0.000579976530056117 -0.000534651277056399 -0.000475228214319675 9.27118262459671e-05 0.000102151056120025 -4.25240522164199e-05 -0.000372874955387355 -0.000390193883006391 0.000162643856229894 0.000213851021316348 -0.00107317457225912
"183" -0.000452887983429357 -6.39737998184865e-05 -0.000323876842983705 -0.000443950058274973 -0.00034615854939248 -0.000584662283310712 -0.000532115527827374 -0.000477863217018711 9.33511857649219e-05 0.00010417933531213 -4.45213377500188e-05 -0.000359489271050976 -0.00040048356208452 0.000158884371027087 0.000211694564557259 -0.0010893105505267
"184" -0.000452723560129242 -6.88196671654154e-05 -0.000322522485214287 -0.00045860613409983 -0.000347529458336568 -0.000589203149660868 -0.000529452424313314 -0.000480300091304269 9.40739181843437e-05 0.000106898751807022 -4.64389308331964e-05 -0.000348582608626382 -0.000408929333703732 0.00015481952207242 0.000208847336147767 -0.00110709415503648
"185" -0.000452077956483289 -7.35986847513952e-05 -0.000321258940932169 -0.000472801510706396 -0.000349012623615376 -0.000593580069823386 -0.000526650620481238 -0.000482549503732788 9.48606436578061e-05 0.00011026727256911 -4.82777022112515e-05 -0.000340185696959334 -0.000415500090355466 0.000150467209390093 0.00020529918966111 -0.00112654365161406
"186" -0.000450943776915012 -7.82839429012268e-05 -0.000320078521020742 -0.00048647841428396 -0.000350600067782163 -0.000597773298223919 -0.000523710041154851 -0.000484623903473871 9.56706327972764e-05 0.000114218817961037 -5.00285179147747e-05 -0.000334308933397773 -0.000420167359477941 0.00014584447093446 0.000201047634203296 -0.00114760276038514
"187" -0.000449321309823101 -8.28595474001364e-05 -0.000318966185813273 -0.000499572107050838 -0.000352276773931777 -0.000601766012285784 -0.00052061526553731 -0.000486526746412219 9.6477281878676e-05 0.000118702260886632 -5.16955968406115e-05 -0.000330912975116195 -0.000422944681957272 0.000140965121638533 0.000196082879390554 -0.00117028699512005
"188" -0.000447208506830244 -8.73079014276456e-05 -0.000317915352066912 -0.000512030265224944 -0.000354030041529871 -0.000605539127867227 -0.000517362827593767 -0.000488273614817141 9.72559730399992e-05 0.000123648604341107 -5.32750261186082e-05 -0.000329955083176445 -0.000423842086058696 0.000135863103543991 0.000190420163823697 -0.00119453954399322
"189" -0.000444620270564368 -9.16156009562748e-05 -0.000316906203133167 -0.000523789600178448 -0.000355844686117183 -0.000609070793540781 -0.000513930993088131 -0.000489857805334767 9.79736589779488e-05 0.000128991679013922 -5.47676077666145e-05 -0.000331335524292587 -0.000422911162791912 0.000130545153878858 0.000184062715947388 -0.00122035339376115
"190" -0.000441559103487022 -9.57572156960439e-05 -0.000315932605997473 -0.000534802636042277 -0.000357701564263514 -0.000612345408219571 -0.000510322217099707 -0.000491297272065982 9.85991067276331e-05 0.000134658236097292 -5.61708691117507e-05 -0.000334958958356986 -0.000420193679281052 0.000125047005995008 0.000177035336942412 -0.00124764657222853
"191" -0.000438032876624745 -9.97129049341549e-05 -0.000314979229945116 -0.000545020811654816 -0.000359584707016875 -0.000615342353746745 -0.000506515650333766 -0.000492596331234254 9.91111678046121e-05 0.000140572811151147 -5.74866470539266e-05 -0.000340689523358786 -0.000415765327656806 0.000119387891037478 0.000169355060296448 -0.00127638194666465
"192" -0.000434057064991073 -0.000103473887040649 -0.000314032104382744 -0.000554393032874149 -0.000361473547805246 -0.00061804101882396 -0.000502505720656507 -0.000493751130323668 9.94805848276655e-05 0.000146664618632677 -5.87163523960321e-05 -0.000348368123117719 -0.000409712613928583 0.000113585495453495 0.000161046005617558 -0.00130648991912701
"193" -0.000429638658274336 -0.000107006914608753 -0.000313075683361161 -0.000562883067024987 -0.000363344076200107 -0.000620429650228802 -0.000498278097639179 -0.000494770278960043 9.96830670430437e-05 0.000152851923203657 -5.98590796741826e-05 -0.000357829287230157 -0.000402129972845575 0.000107673437672852 0.000152145537127225 -0.00133789260419524
"194" -0.000424797588347094 -0.000110307520533939 -0.000312098230801395 -0.000570448147084743 -0.000365171755417792 -0.000622488663875696 -0.000493817939766181 -0.000495656049756963 9.97008337481234e-05 0.000159070424298629 -6.09206750871422e-05 -0.000368876220855044 -0.000393138283722887 0.000101673954478928 0.000142686352717968 -0.00137054303823922
"195" -0.000419538476710219 -0.000113341352947128 -0.000311083702514194 -0.000577056752005679 -0.000366935077351566 -0.000624200331483729 -0.000489112175821775 -0.000496400423016503 9.95168253492229e-05 0.000165239994062297 -6.19001342851577e-05 -0.000381299354155779 -0.000382855437377996 9.56063935794975e-05 0.000132709942750001 -0.00140434518188171
"196" -0.000413888931091309 -0.000116102007615491 -0.000310016536236575 -0.000582675959687105 -0.000368604896539467 -0.000625550447325961 -0.000484149577719895 -0.000497004486635374 9.91146604099904e-05 0.000171299085325303 -6.28029988954184e-05 -0.000394875674379975 -0.00037141739626303 8.94953532104666e-05 0.000122263406632349 -0.00143923153673
"197" -0.000407860037408853 -0.000118565380694669 -0.000308885305066248 -0.000587285726555782 -0.000370155090178466 -0.000626524885114335 -0.000478915625350073 -0.000497464046860104 9.84838626399947e-05 0.000177176282553745 -6.3632977131585e-05 -0.000409372708370794 -0.00035896178594848 8.33702147085576e-05 0.000111394793785176 -0.00147510623676406
"198" -0.000401471566718728 -0.000120724466119462 -0.00030767683808079 -0.000590861882309612 -0.000371567410335871 -0.000627112972504228 -0.000473404973241372 -0.000497780480684961 9.76082959287669e-05 0.000182815259810367 -6.43958155643306e-05 -0.000424557746918146 -0.000345642568679798 7.72496210838817e-05 0.000100151470734096 -0.00151189245963172
"199" -0.00039473767134224 -0.000122549563124823 -0.00030637069964727 -0.000593389785661035 -0.000372799845983776 -0.000627299846005996 -0.000467595791511648 -0.000497935028090803 9.64966803883759e-05 0.000188154091934818 -6.50925272901752e-05 -0.000440168951645713 -0.000331613958478572 7.11596280293089e-05 8.85927841136068e-05 -0.00154951339952168
"200" -0.000387681041070728 -0.000124040149870427 -0.000304964787075592 -0.000594857027558156 -0.000373838975216362 -0.00062707792977102 -0.000461481533740556 -0.000497931288565785 9.51288806316356e-05 0.000193146311840371 -6.57298132144472e-05 -0.00045596164649299 -0.000317031310375421 6.5115411743448e-05 7.67699909422552e-05 -0.00158786882184508
"201" -0.000380323321321285 -0.000125181132083288 -0.000303440399445091 -0.000595258407445153 -0.000374653661839375 -0.000626440149076863 -0.000455054837390133 -0.000497762060592651 9.35111199454607e-05 0.000197746304079272 -6.63161056998666e-05 -0.000471683966790347 -0.00030205733180295 5.91424822429871e-05 6.47394635073623e-05 -0.00162687045701123
"202" -0.000372672656423412 -0.000125950362562715 -0.000301787009344112 -0.000594591861615064 -0.000375214357112082 -0.000625375325371968 -0.000448303795353055 -0.000497408978003793 9.16534313132154e-05 0.000201917236685772 -6.68496605428759e-05 -0.000487080896364793 -0.000286851350341889 5.32724211392816e-05 5.25699165712234e-05 -0.00166642991979315
"203" -0.000364753674306366 -0.000126343356174066 -0.000299994758011933 -0.000592864815586652 -0.000375498192173982 -0.000623880131658082 -0.000441219994796881 -0.000496867062642073 8.95573667889869e-05 0.000205620313570591 -6.73406195662791e-05 -0.000501901676876669 -0.000271578018793582 4.75136717972271e-05 4.03145280764674e-05 -0.00170646459785654
"204" -0.000356584384255564 -0.000126352617664508 -0.000298054525774005 -0.000590075250420653 -0.00037547738935624 -0.000621952297745824 -0.000433797361848907 -0.000496123473061205 8.72324777069807e-05 0.00020883742343654 -6.77935982192146e-05 -0.000515898030384032 -0.000256397739858647 4.18945107703751e-05 2.8035293712924e-05 -0.00174688993868839
"205" -0.000348179447117026 -0.000125970060358314 -0.000295954999777058 -0.000586240750018973 -0.000375129739359946 -0.000619584582958315 -0.000426027878936561 -0.000495166765593258 8.46926859253231e-05 0.000211551243663712 -6.8215026951008e-05 -0.000528839030442239 -0.000241470351777896 3.64336307141762e-05 1.57944192785142e-05 -0.00178762593732138
"206" -0.00033956185428242 -0.000125195694362 -0.000293692970363797 -0.000581379972184018 -0.000374436085882759 -0.000616784217006996 -0.000417918939125745 -0.000493990696866172 8.19448984570521e-05 0.000213747035445296 -6.86083364211141e-05 -0.000540499143906035 -0.000226937804106894 3.1149543858818e-05 3.6534577057541e-06 -0.00182855260912285
"207" -0.000330744689701181 -0.000124021284748658 -0.000291257698324058 -0.000575504999566137 -0.00037336618706365 -0.000613544823595083 -0.000409457227962026 -0.000492575484882341 7.90161978800706e-05 0.00021542551146418 -6.89855634459726e-05 -0.000550654752436219 -0.000212957787753091 2.60613674762725e-05 -8.33356668378022e-06 -0.00186962301782462
"208" -0.000321743601140708 -0.000122439551998743 -0.000288643754491208 -0.000568646954036725 -0.000371909312325922 -0.000609874427585444 -0.000400651004049741 -0.00049091398964135 7.5921356448945e-05 0.00021658544593166 -6.93430583961877e-05 -0.00055911381447584 -0.000199659576875207 2.11899065563699e-05 -2.00996489672231e-05 -0.00191071779798442
"209" -0.000312576233743362 -0.000120466322823481 -0.000285852282081208 -0.000560828463689215 -0.000370047130140675 -0.000605776241480729 -0.000391495495685614 -0.000488996395956566 7.26784641139575e-05 0.000217244071124028 -6.96937607694907e-05 -0.00056568718921457 -0.00018718076935598 1.6551309112617e-05 -3.15938732311565e-05 -0.00195176124727238
"210" -0.000303254014477405 -0.000118093179660142 -0.0002828765704933 -0.000552083393070016 -0.000367760641789785 -0.000601254624451837 -0.000382004785256784 -0.000486809343212275 6.93120153958e-05 0.000217414160198299 -7.00379751069482e-05 -0.000570211367828731 -0.000175637483452653 1.21650986971916e-05 -4.27613927011267e-05 -0.00199266338937099
"211" -0.000293795094521596 -0.000115330214679292 -0.000279716280628304 -0.000542442694127807 -0.000365037638402475 -0.000596320401201064 -0.000372177437400032 -0.000484339141724273 6.58478563081061e-05 0.000217125649639202 -7.03848649251204e-05 -0.000572535484892893 -0.000165149438622698 8.04395500668645e-06 -5.35470772969473e-05 -0.00203334092749054
"212" -0.000284207575217944 -0.00011218151859514 -0.000276369686146747 -0.000531944905416229 -0.000361866512937383 -0.000590979837098243 -0.000362024719294979 -0.000481576505484322 6.2307297242889e-05 0.000216402465943585 -7.07357766164579e-05 -0.000572535601734236 -0.000155810806061475 4.20958685580947e-06 -6.3903833925813e-05 -0.00207369245492244
"213" -0.000274504429293242 -0.000108655681189501 -0.000272838020316654 -0.000520629744815608 -0.000358238792421888 -0.000585248606307387 -0.00035155491602672 -0.000478512541380724 5.8720169471311e-05 0.000215281896808032 -7.10968079327233e-05 -0.000570105518846317 -0.000147703501762953 6.64270570304795e-07 -7.37874900539647e-05 -0.00211361964956343
"214" -0.000264698410398172 -0.000104765850053405 -0.00026913000763778 -0.000508540760728664 -0.00035415266007223 -0.000579136788143078 -0.000340788814471358 -0.000475147646249405 5.51037948890919e-05 0.000213805378731609 -7.14708793002488e-05 -0.000565175176238872 -0.000140902854243795 -2.57111358111849e-06 -8.31497884796676e-05 -0.0021530198550951
"215" -0.000254801113774987 -0.000100530208086478 -0.000265240226207418 -0.000495715976362423 -0.000349595980054387 -0.000572656742077779 -0.000329730739861267 -0.000471460704713923 5.14936843668319e-05 0.000212023606329937 -7.18651995287966e-05 -0.000557674300169883 -0.000135482368673025 -5.48831072801532e-06 -9.19562094768368e-05 -0.0021918361268792
"216" -0.000244817315043613 -9.59526934601041e-05 -0.00026118207312493 -0.00048220867079505 -0.00034457909013435 -0.000565831376717765 -0.000318405689597978 -0.000467453353012239 4.79116850779573e-05 0.000209978541891433 -7.22788049559595e-05 -0.000547586168878909 -0.000131473137661228 -8.07813569731815e-06 -0.000100174570781075 -0.00222991846445923
"217" -0.000234758591405962 -9.10593635683821e-05 -0.000256957629639063 -0.000468062425090835 -0.000339095871394615 -0.000558670776562133 -0.000306827055072742 -0.000463122864606082 4.43804331086274e-05 0.000207725430180119 -7.27176918132686e-05 -0.00053490125237696 -0.000128911238383348 -1.03378695361307e-05 -0.000107771906082404 -0.0022671853580363
"218" -0.000224632511810501 -8.58711051320486e-05 -0.000252576938988205 -0.000453329538360196 -0.00033315351955278 -0.000551199738869568 -0.00029501753912356 -0.000458467170003961 4.09303883336385e-05 0.000205322981299734 -7.31798420807446e-05 -0.000519647415160551 -0.000127818714463385 -1.22601189525065e-05 -0.000114724954284406 -0.00230352952888174
"219" -0.000214448050479732 -8.04023161129879e-05 -0.000248045849457177 -0.000438054866943586 -0.000326762273960475 -0.000543432390946483 -0.000282998223636788 -0.000453480837001311 3.7582422938199e-05 0.000202828073153607 -7.36731508152213e-05 -0.000501869433250358 -0.000128193145510581 -1.3845971450833e-05 -0.000121015486007606 -0.00233883601502353
"220" -0.000204206418488005 -7.46757027055169e-05 -0.000243379645043797 -0.000422292680118465 -0.000319925679538639 -0.000535395336952582 -0.000270790458816139 -0.000448163547288075 3.43596748297437e-05 0.000200294188571567 -7.41957795203631e-05 -0.000481642365891647 -0.000130021064773769 -1.50926998638306e-05 -0.000126626494871202 -0.00237298332223791
"221" -0.000193913513736452 -6.87161984520335e-05 -0.000238587110609985 -0.000406096853384486 -0.000312664354710727 -0.000527109504965594 -0.000258429418277785 -0.000442531116190618 3.12827083907999e-05 0.000197784124312273 -7.47467307508316e-05 -0.000459079841025923 -0.00013327328282502 -1.60057042049216e-05 -0.000131549521807881 -0.00240584598322792
"222" -0.00018358269288843 -6.25557232908968e-05 -0.00023368194597358 -0.000389513306920589 -0.000304991292284992 -0.000518598154163673 -0.000245929885124449 -0.000436575590763508 2.83705011481387e-05 0.000195361869649466 -7.53310299280989e-05 -0.000434297792499936 -0.000137917408561286 -1.65891862211862e-05 -0.000135782295665286 -0.00243732428356338
"223" -0.000173206379840781 -5.62070481685426e-05 -0.000228677982188674 -0.000372601865677912 -0.000296924499688526 -0.000509884429536883 -0.000233323608108883 -0.000430310786615358 2.5636013872204e-05 0.000193075889690716 -7.5944742426789e-05 -0.000407454940448833 -0.000143889342296431 -1.68561867351898e-05 -0.000139326823714904 -0.00246726940142238
"224" -0.000162799782936574 -4.97139424119863e-05 -0.000223584124224919 -0.000355402370052982 -0.000288479461106661 -0.000500993085817495 -0.000220632651063768 -0.000423736508853427 2.31102305442049e-05 0.000190991760294496 -7.65894012010335e-05 -0.000378714025869797 -0.000151133329254461 -1.68160904505342e-05 -0.000142195940655106 -0.00249558678156771
"225" -0.000152362788540906 -4.30945935506805e-05 -0.000218423136397858 -0.000337974841656625 -0.000279682067787138 -0.000491951251079309 -0.000207895647705687 -0.000416873966187214 2.0788180358042e-05 0.000189160535262782 -7.72619921735295e-05 -0.000348283790035841 -0.000159554828555172 -1.64884290223605e-05 -0.000144395151035809 -0.00252210682591403
"226" -0.000141896439982845 -3.63786603921233e-05 -0.000213205053980603 -0.000320365669393944 -0.000270559197527708 -0.000482783833339768 -0.000195130877516673 -0.000409733950722081 1.86901718500081e-05 0.000187631797746095 -7.79628716973747e-05 -0.000316371846621894 -0.00016906984320456 -1.5887611921718e-05 -0.000145952414568382 -0.00254672098012641
"227" -0.000131402882446138 -2.95978652655813e-05 -0.000207949576703882 -0.000302627211273546 -0.000261132051419824 -0.000473516937573488 -0.00018237157363633 -0.000402325984855343 1.68232407322946e-05 0.000186450938421632 -7.86863167507138e-05 -0.000283213743547246 -0.000179569076807486 -1.50330645608289e-05 -0.000146887279558166 -0.00256927924729
"228" -0.000120890494921029 -2.27772364497477e-05 -0.0002026687310368 -0.000284803697678549 -0.000251426587988016 -0.000464178609448109 -0.000169644142380729 -0.000394669157402981 1.5194249766332e-05 0.000185666706727942 -7.9432732123533e-05 -0.000249051318962876 -0.000190953282407832 -1.39558472069995e-05 -0.000147237949853733 -0.002589672768459
"229" -0.000110361991008345 -1.59601208984799e-05 -0.000197384059335169 -0.000266940671736559 -0.000241479211468471 -0.000454793571220929 -0.00015698130756834 -0.000386785400804044 1.37991780101815e-05 0.000185311663734909 -8.02000805839752e-05 -0.000214144606513555 -0.00020309628402799 -1.2678804336253e-05 -0.000147035510387716 -0.00260775415765923
"230" -9.98160051223493e-05 -9.15987845046248e-06 -0.000192107811632233 -0.000249088401473812 -0.00023131422149939 -0.000445387852119576 -0.000144404494427983 -0.000378689605514531 1.26468015829234e-05 0.000185424178652716 -8.09796417773755e-05 -0.000178763969743415 -0.000215874597948342 -1.12266478996723e-05 -0.000146321130086619 -0.00262339989191531
"231" -8.92621588529045e-05 -2.41786981862771e-06 -0.000186859073625259 -0.000231281971430342 -0.000220964753074542 -0.000435986090469589 -0.000131941435754875 -0.00037040455139219 1.17297793277423e-05 0.000186025362764528 -8.17732935736494e-05 -0.00014317491845937 -0.000229155121934431 -9.6408184030336e-06 -0.000145141781178924 -0.00263648898710131
"232" -7.86959660550643e-05 4.25034965662833e-06 -0.000181653821228704 -0.000213567669052184 -0.000210456634001343 -0.000426615042646474 -0.000119615413598028 -0.000361948480406795 1.10476627748652e-05 0.000187138127275062 -8.25728965391138e-05 -0.000107649047047487 -0.000242807071169487 -7.94961923231674e-06 -0.000143548229298725 -0.00264690297141394
"233" -6.81336881162475e-05 1.07994124865477e-05 -0.000176507531991375 -0.000195979419230529 -0.000199827007390311 -0.000417295779972651 -0.000107453132247959 -0.000353350041368033 1.05879795961665e-05 0.000188774845651127 -8.3374104789432e-05 -7.2467160741603e-05 -0.000256698949007493 -6.1844765787961e-06 -0.000141588472781866 -0.00265453654508693
"234" -5.7568629893197e-05 1.72152095393174e-05 -0.000171436681357542 -0.000178557253317871 -0.000189107473240518 -0.000408056165299317 -9.5482142582086e-05 -0.000344636592226318 1.03382051710969e-05 0.000190942030809439 -8.4171389332721e-05 -3.78961839839265e-05 -0.000270682102386284 -4.38863316812916e-06 -0.000139323889336455 -0.00265926614320431
"235" -4.701483894605e-05 2.34690776429353e-05 -0.000166454055514534 -0.000161329286163231 -0.000178326272417027 -0.000398913780372709 -8.37150037888298e-05 -0.00033582833134299 1.02861883802251e-05 0.000193634675494576 -8.49603569314561e-05 -4.19648593645396e-06 -0.000284631687181311 -2.59176804673926e-06 -0.000136812229542631 -0.00266102004018638
"236" -3.64711520668462e-05 2.95324577162276e-05 -0.000161574384353078 -0.000144327334163278 -0.000167521651566086 -0.000389889017156585 -7.21751429949278e-05 -0.000326952393852028 1.04189725651079e-05 0.000196852195271785 -8.57327069844866e-05 2.83854011638911e-05 -0.000298418208271376 -8.27399395006053e-07 -0.000134108361556275 -0.00265971751778545
"237" -2.59529352194812e-05 3.53815076666163e-05 -0.000156814217102371 -0.000127578194780039 -0.000156716882382183 -0.000381004618103166 -6.08806988643734e-05 -0.000318037992254637 1.07132203489559e-05 0.000200571754208086 -8.64850522120615e-05 5.96156740603256e-05 -0.000311908547668728 8.58288953722262e-07 -0.000131281276555481 -0.00265528326906672
"238" -1.5456170514561e-05 4.10041857779131e-05 -0.000152177301221738 -0.000111106162817004 -0.000145942755986484 -0.000372273355350497 -4.98421455685017e-05 -0.000309102161243278 1.11533176083378e-05 0.000204767244161707 -8.72105121426202e-05 8.92798668046444e-05 -0.000324992061372083 2.44260558668211e-06 -0.000128387438021172 -0.00264768882561201
"239" -4.99988417958779e-06 4.6373189287735e-05 -0.000147682167887266 -9.49306225638775e-05 -0.000135231906526321 -0.00036371114356978 -3.90812597469275e-05 -0.00030018226315976 1.17113655059413e-05 0.000209412266564815 -8.79013508862559e-05 0.000117176946700168 -0.000337548007574767 3.88680082403694e-06 -0.000125487658799572 -0.00263687648707765
"240" 5.40749214544689e-06 5.14652077712116e-05 -0.000143334453933183 -7.90700238082666e-05 -0.00012461008881944 -0.000355335037699322 -2.86043137979173e-05 -0.00029130321372814 1.23623279241896e-05 0.000214466319311104 -8.85517348221729e-05 0.000143138124063562 -0.000349476042285583 5.15858922648149e-06 -0.000122644739958361 -0.00262285363749442
"241" 1.57576748918709e-05 5.62701986149315e-05 -0.000139141636579145 -6.35381106252711e-05 -0.00011409981446803 -0.000347151842248341 -1.84221091727181e-05 -0.000282485892250614 1.30836940079884e-05 0.000219883501038532 -8.9156087439746e-05 0.00016701738059714 -0.000360681567390896 6.2350319374242e-06 -0.000119912379633224 -0.00260561120322249
"242" 2.60379986011146e-05 6.07750870697594e-05 -0.000135114022431502 -4.83457093441129e-05 -0.00010372975580031 -0.0003391717771259 -8.54447410072738e-06 -0.000273764480837195 1.38418335270107e-05 0.000225607877922874 -8.97066650950615e-05 0.000188690733635537 -0.000371080799404086 7.08768108704896e-06 -0.000117350000991097 -0.00258517193839578
"243" 3.62375063768652e-05 6.49661576884926e-05 -0.000131253139064371 -3.34992110953909e-05 -9.3519436695251e-05 -0.000331398408045878 1.02913554465041e-06 -0.000265152065724186 1.46151161003343e-05 0.000231581542891936 -9.01965312153156e-05 0.000208070322560059 -0.000380601434509942 7.69650490055482e-06 -0.000115007833013561 -0.00256158276046368
"244" 4.63475165396642e-05 6.88416742783549e-05 -0.000127563701127113 -1.90039759677801e-05 -8.34887241002714e-05 -0.000323842776687819 1.02961392686437e-05 -0.000256675714433314 1.53664416532007e-05 0.000237742613268108 -9.06191595382788e-05 0.000225089412783629 -0.000389191334796399 8.04077394682999e-06 -0.000112939247034553 -0.00253491826735882
"245" 5.63424687679865e-05 7.23837186512311e-05 -0.000124044473284395 -4.86181961420244e-06 -7.36574905677279e-05 -0.000316499907702057 1.92513954991115e-05 -0.000248357736329061 1.60682527101794e-05 0.000244018886967994 -9.09701691493814e-05 0.000239715098559998 -0.000396799972141574 8.10655605726617e-06 -0.000111181495464734 -0.00250525099491565
"246" 6.62196568858681e-05 7.55993663165563e-05 -0.000120700603165579 8.92692844116249e-06 -6.40376492219403e-05 -0.000309373369216601 2.7901358017631e-05 -0.000240219500641865 1.66921098469876e-05 0.000250338470842266 -9.12397628491373e-05 0.000251941655684412 -0.000403397292060658 7.88824208137403e-06 -0.000109779011663625 -0.00247268782436972
"247" 7.59536579068722e-05 7.84744312599698e-05 -0.000117524852901923 2.23679072333299e-05 -5.46456513506646e-05 -0.000302458785249408 3.62464507747402e-05 -0.000232279915748936 1.72008628788368e-05 0.00025662645451184 -9.14261018185924e-05 0.000261791664862115 -0.00040896459454852 7.36866505039128e-06 -0.000108767332813922 -0.00243734264064174
"248" 8.55393009243454e-05 8.10219784997313e-05 -0.000114518985255866 3.5465960454914e-05 -4.54939885893125e-05 -0.000295753134473999 4.42913987735281e-05 -0.000224556615001715 1.75679651971286e-05 0.000262801060128068 -9.15226218624453e-05 0.000269312634556288 -0.000413493934899155 6.55314555322341e-06 -0.00010817411081736 -0.00239934865428569
"249" 9.49480179512172e-05 8.32329280059439e-05 -0.000111675730367527 4.82308170590178e-05 -3.65859961443746e-05 -0.000289247910334846 5.205084860558e-05 -0.000217057807244447 1.77652777552052e-05 0.000268787667936446 -9.15250154178229e-05 0.000274589814801501 -0.000416996223404856 5.43677207947993e-06 -0.000108024921476749 -0.00235888092791643
"250" 0.000104173528013236 8.5129649816143e-05 -0.000108990844647887 6.06649115017477e-05 -2.79390037457306e-05 -0.000282937976265209 5.95286640423158e-05 -0.000209806310779935 1.77630741397111e-05 0.000274496861081166 -9.1424455523297e-05 0.000277711469751124 -0.000419478550966126 4.02849705566795e-06 -0.000108335946764518 -0.00231605607315043
"251" 0.000113194937535044 8.6708719090922e-05 -0.00010645303059527 7.27861905574252e-05 -1.95449218023756e-05 -0.000276810159574613 6.67361866260523e-05 -0.000202802967046898 1.75353332775767e-05 0.000279856392067056 -9.12224317908846e-05 0.000278808861183829 -0.0004209867908292 2.33111442881661e-06 -0.000109124955654068 -0.0022711003333822
"252" 0.000121993193409558 8.79820631452798e-05 -0.000104055414942145 8.46063757757771e-05 -1.14121154014098e-05 -0.000270848510933192 7.36934774331325e-05 -0.000196060557939276 1.70570253931423e-05 0.000284788837554009 -9.09150642417906e-05 0.000278028983968908 -0.000421558635445105 3.52115148657885e-07 -0.000110393528008137 -0.00222418315197059
"253" 0.00013055588191939 8.89648092347422e-05 -0.000101787740841856 9.6132626312916e-05 -3.53996725554733e-06 -0.000265047791943638 8.04079995441971e-05 -0.000189587371391026 1.6304119774195e-05 0.000289215004353567 -9.04999868768844e-05 0.000275525555156741 -0.000421240159294584 -1.89050858066659e-06 -0.000112144838329748 -0.00217549816794585
"254" 0.000138870937239437 8.96822938535827e-05 -9.96385183193396e-05 0.000107383663039988 4.07946567390267e-06 -0.000259386050861104 8.69022677566921e-05 -0.00018337647867679 1.52587880368019e-05 0.000293060478537943 -8.99724929460683e-05 0.000271483593506668 -0.000420096705718872 -4.38534012948333e-06 -0.000114372495775716 -0.00212525014694419
"255" 0.000146909822490579 9.01302400233555e-05 -9.75934708037925e-05 0.000118373063146365 1.14385719315007e-05 -0.000253851358619851 9.31899090127203e-05 -0.000177438811740561 1.39001432990134e-05 0.000296267385648489 -8.9334485552592e-05 0.000266087428120857 -0.000418200112370875 -7.10830789261498e-06 -0.000117065498487075 -0.00207365541018933
"256" 0.000154668714195865 9.03458813464242e-05 -9.56391418819626e-05 0.000129110336903778 1.85554444220222e-05 -0.000248423381906009 9.9289794147317e-05 -0.000171769487799777 1.22128277645825e-05 0.0002987660633819 -8.85877227915812e-05 0.0002595372177178 -0.000415619494116625 -1.00502954312526e-05 -0.000120210711613897 -0.00202091668381885
"257" 0.000162131098713957 9.03480181959435e-05 -9.37646627050846e-05 0.000139607274950032 2.54299361622078e-05 -0.000243090537991925 0.000105212961215813 -0.000166366688520171 1.01840540057287e-05 0.000300502470879875 -8.77267843995806e-05 0.000252031607662548 -0.000412435770767075 -1.31792261459911e-05 -0.000123779287982698 -0.0019672408152504
"258" 0.000169281277554055 9.01496030847233e-05 -9.19478885081531e-05 0.000149885885601075 3.20779360175854e-05 -0.00023782613944459 0.000110998763903724 -0.000161213892569227 7.80635816506581e-06 0.000301430560176556 -8.67656577436684e-05 0.00024380450267191 -0.000408751123456281 -1.64832924769312e-05 -0.000127758379736822 -0.00191288797513616
"259" 0.000176104085087529 8.97831564733355e-05 -9.01793691727325e-05 0.000159949336053006 3.85043576491066e-05 -0.000232615864407281 0.000116646745418114 -0.000156311974798375 5.06553518131055e-06 0.000301502848553161 -8.56985901791281e-05 0.000235053775880568 -0.000404640818045531 -1.99351582473009e-05 -0.000132106649235985 -0.0018580347385203
"260" 0.000182594128419953 8.92766666864037e-05 -8.84360254315258e-05 0.00016981166285695 4.47244889427078e-05 -0.000227441390602267 0.000122188409039941 -0.00015164134280694 1.9671561486699e-06 0.000300687379230657 -8.45334721894566e-05 0.000225998435687094 -0.000400206030322925 -2.35080884552486e-05 -0.000136790859515088 -0.00180292745913184
"261" 0.000188741998120147 8.86528036135308e-05 -8.67081709198793e-05 0.000179480011012718 5.07520266288434e-05 -0.000222282620807572 0.000127635555253214 -0.000147198837443353 -1.50085033410236e-06 0.000298957528871759 -8.32717059291591e-05 0.000216844647321941 -0.000395527869005358 -2.71786256912318e-05 -0.000141773261718396 -0.00174775576856453
"262" 0.000194531639744798 8.79366711208469e-05 -8.49775714904214e-05 0.00018896495994246 5.65982607052306e-05 -0.000217121053878034 0.000133011689467448 -0.000142961696545401 -5.33005801359879e-06 0.00029629736822926 -8.19261910548956e-05 0.000207800104157567 -0.000390711503576945 -3.09176793022252e-05 -0.000147012905655875 -0.00169275922233229
"263" 0.0001999574604958 8.71561073971522e-05 -8.32247286400316e-05 0.000198272637666474 6.22745979841586e-05 -0.000211936314632967 0.000138337453112191 -0.000138912853739958 -9.521431305688e-06 0.000292695021050984 -8.05008210978973e-05 0.000199070540924817 -0.000385839328241726 -3.47092457992145e-05 -0.000152464976758327 -0.00163813321681395
"264" 0.000205016460879128 8.6341956852036e-05 -8.14341437296504e-05 0.000207410424672283 6.78043592995903e-05 -0.000206712284125576 0.000143626103469276 -0.000135027608183096 -1.40617746006661e-05 0.00028815212113121 -7.90050755051489e-05 0.000190847233017699 -0.00038101194187495 -3.85210498054733e-05 -0.000158079911160855 -0.00158412441021324
"265" 0.000209704130480355 8.5523627831793e-05 -7.95880456048542e-05 0.000216377062886782 7.31942739354997e-05 -0.000201431745774069 0.000148892690039165 -0.000131293026057632 -1.89487807514525e-05 0.000282675880031659 -7.74486314570521e-05 0.000183301838031973 -0.000376299604546168 -4.23253468479678e-05 -0.000163806661301566 -0.00153090718293948
"266" 0.00021401606051125 8.47214493754608e-05 -7.76697242048e-05 0.000225178994820559 7.8465584542657e-05 -0.000196077522255193 0.000154160221433546 -0.000127684124055734 -2.41663237616434e-05 0.000276284809646376 -7.58419574309622e-05 0.000176607309360942 -0.000371795881421056 -4.60997210724074e-05 -0.000169597393217804 -0.00147870878813442
"267" 0.000217947012722075 8.39702939196775e-05 -7.56683933210834e-05 0.00023381620474083 8.36281437024551e-05 -0.000190631835054293 0.000159434218636071 -0.00012418021465449 -2.97056303130717e-05 0.000269000207717179 -7.4196514541652e-05 0.000170919233906908 -0.000367563132876705 -4.98199811074387e-05 -0.000175401715816519 -0.00142771885010947
"268" 0.000221500599555672 8.32882929912459e-05 -7.35597984871371e-05 0.000242286770257914 8.87010851772508e-05 -0.00018508206030177 0.000164730155577579 -0.000120745529058839 -3.55468739332828e-05 0.000260863839366321 -7.25282165699127e-05 0.000166378798095983 -0.000363682311782953 -5.34661173398601e-05 -0.000181163649306546 -0.00137815799412907
"269" 0.000224676271145446 8.2708029566774e-05 -7.13387218170041e-05 0.00025058508284445 9.36918632508649e-05 -0.000179414610967171 0.000170060654382207 -0.00011736650510845 -4.16743331954548e-05 0.000251908734503195 -7.08451154512264e-05 0.000163106835398877 -0.000360202532075473 -5.70038496718858e-05 -0.000186827391184067 -0.00133019156392805
"270" 0.00022747760135621 8.22502953187256e-05 -6.89911361099868e-05 0.000258705708834467 9.86179029146732e-05 -0.000173618314259514 0.000175426692588004 -0.000114014357711084 -4.80752330515648e-05 0.000242188375568625 -6.91610279205655e-05 0.000161206785170321 -0.000357175339235962 -6.04224770906014e-05 -0.000192349519401719 -0.00128401898616031
"271" 0.000229910973412649 8.19417839823013e-05 -6.64948465408567e-05 0.00026664544281769 0.000103490851514203 -0.000167676819139226 0.000180845611222791 -0.000110659331813318 -5.47150406733995e-05 0.000231761839724788 -6.74924260507335e-05 0.000160774164113506 -0.0003546510055858 -6.36910783308382e-05 -0.000197666615040406 -0.00123983556239107
"272" 0.000231980056105809 8.17953947721833e-05 -6.38495520154422e-05 0.000274393764976669 0.000108320058821873 -0.000161586132891904 0.000186311105596503 -0.000107278542168391 -6.15844199795165e-05 0.00022068724949395 -6.58548917576072e-05 0.000161876961235201 -0.000352654899305995 -6.67972580276954e-05 -0.000202740441908912 -0.00119780320446502
"273" 0.000233691698878233 8.18379035393996e-05 -6.10379864585335e-05 0.000281940516659916 0.000113119815705276 -0.00015533743304192 0.000191834930786209 -0.000103842942447892 -6.86541371022038e-05 0.000209034355103024 -6.42611480052773e-05 0.000164569023893894 -0.000351214938637132 -6.97188146602319e-05 -0.000207517121324631 -0.0011581049040821
"274" 0.000235051217082192 8.20746407480883e-05 -5.805660231971e-05 0.000289273910091513 0.000117888686096289 -0.000148923863305503 0.00019740736488807 -0.000100335169624245 -7.59089776252761e-05 0.000196882170892287 -6.27284346953446e-05 0.000168871955150697 -0.000350342455643563 -7.24395061031675e-05 -0.000211954899747624 -0.00112088705897279
"275" 0.000236073224858067 8.25268742103306e-05 -5.48955479393235e-05 0.000296380920229544 0.000122641599687389 -0.000142340880751861 0.000203032972893776 -9.67226529666448e-05 -8.33168521763915e-05 0.000184301538600391 -6.12651682303289e-05 0.000174808612756338 -0.00035003381636513 -7.49383508973583e-05 -0.000216003237821617 -0.00108629919033448
"276" 0.000236771599681696 8.32182496264642e-05 -5.15464629942367e-05 0.000303244826476616 0.000127383423880103 -0.000135586971613886 0.000208703301967747 -9.29870023078975e-05 -9.08533847465069e-05 0.000171379413305474 -5.98921651888243e-05 0.000182368725429369 -0.000350285048835726 -7.72093806124294e-05 -0.000219625573398648 -0.00105449356792519
"277" 0.000237146375429997 8.4137669286565e-05 -4.80123703929362e-05 0.00030985290022183 0.000132112268920965 -0.000128660206872621 0.00021441472062601 -8.9105125077848e-05 -9.84986315135803e-05 0.000158201137526044 -5.86207555879379e-05 0.000191526774028344 -0.000351077419497447 -7.9239993082733e-05 -0.000222787483187129 -0.00102559752925695
"278" 0.000237219361597959 8.53014526703651e-05 -4.42818348044875e-05 0.000316189525945175 0.000136839887736612 -0.000121559370140213 0.000220156888014689 -8.50513420700132e-05 -0.000106222721524238 0.000144853394805571 -5.74670189369282e-05 0.000202245603269594 -0.000352380336687439 -8.10179831783421e-05 -0.000225458195209177 -0.000999732164805628
"279" 0.000237004463284664 8.67138939466452e-05 -4.03615102948209e-05 0.000322234010587639 0.000141552803530403 -0.000114291694664968 0.00022591391793394 -8.08173509367167e-05 -0.000114005324910357 0.000131423890259113 -5.64406944577759e-05 0.000214449327620756 -0.000354145231291264 -8.25360838497896e-05 -0.000227602448667344 -0.000976979258940217
"280" 0.000236510889463605 8.83746690696731e-05 -3.62458340066805e-05 0.000327972855842634 0.000146261882948999 -0.000106855799673202 0.000231679282888882 -7.63749346686648e-05 -0.000121822601110825 0.000118004502014969 -5.55581749716294e-05 0.000228075126522366 -0.000356338502619047 -8.3791159666562e-05 -0.000229205764717629 -0.000957473672208487
"281" 0.000235760114070095 9.02891858101675e-05 -3.19401760870315e-05 0.000333382853012623 0.000150959775574573 -9.92621665750479e-05 0.000237438963519634 -7.17146927476782e-05 -0.000129641917534416 0.00010468349895639 -5.48264900042259e-05 0.000243018191402102 -0.000358887907825674 -8.47748062478907e-05 -0.000230240911764735 -0.000941251416012191
"282" 0.000234757700133369 9.24419667593201e-05 -2.74470354159743e-05 0.000338451480145349 0.000155641999675622 -9.15153897475766e-05 0.000243174100793903 -6.68147893388025e-05 -0.000137444108371811 9.15522573860125e-05 -5.42593031947175e-05 0.000259178506548453 -0.00036173652241523 -8.54974600555955e-05 -0.000230700697654433 -0.000928408124651872
"283" 0.00023353280423421 9.48324178732061e-05 -2.27741034951026e-05 0.000343153780600076 0.000160303403789924 -8.36243004169213e-05 0.000248868387767658 -6.1674278934187e-05 -0.000145204684277564 7.86953813067424e-05 -5.38632193169402e-05 0.000276422326837354 -0.00036479977426115 -8.59492198956391e-05 -0.000230571281164874 -0.000918950242842955
"284" 0.000232089956177927 9.74502420789983e-05 -1.79294126146166e-05 0.00034747435067813 0.000164930780756096 -7.56043726379863e-05 0.000254497076743438 -5.62828690357624e-05 -0.000152901484375237 6.61948973627241e-05 -5.36439364794443e-05 0.000294617751332638 -0.000367996765759876 -8.61447101949239e-05 -0.000229851293927448 -0.000912908042584799
"285" 0.000230451706605418 0.000100275629317625 -1.29154041392988e-05 0.00035139784898497 0.000169523508782737 -6.74618136074532e-05 0.000260048358240631 -5.06263568411769e-05 -0.000160512181334678 5.41396454356054e-05 -5.36142808583966e-05 0.000313626382262709 -0.000371246677740633 -8.60863607099456e-05 -0.000228545023849568 -0.000910308796890371
"286" 0.000228632306680069 0.000103305564181845 -7.74497078623915e-06 0.000354905427470438 0.000174067924440186 -5.92092127489796e-05 0.000265503435149679 -4.47014581005835e-05 -0.000168010092138622 4.26006669596063e-05 -5.37746899473812e-05 0.000333289767452357 -0.000374450550787412 -8.57856052661403e-05 -0.000226658503996356 -0.000911119969988716
"287" 0.000226651109510972 0.000106515938389124 -2.4351966729485e-06 0.000357976944921614 0.000178547405503944 -5.08694814123713e-05 0.000270826538289313 -3.85128991461937e-05 -0.000175374703559915 3.16513130005124e-05 -5.41263040419437e-05 0.000353437539337299 -0.000377506433290474 -8.52503031541388e-05 -0.000224202063094944 -0.000915283932459747
"288" 0.000224518315345928 0.000109881958822139 3.00793336752469e-06 0.000360604368529877 0.000182954815488687 -4.24493541383787e-05 0.000276008324745718 -3.20533917701853e-05 -0.000182591607814356 2.13609884543891e-05 -5.46767954481326e-05 0.000373922155990307 -0.000380321620101858 -8.4507588815469e-05 -0.00022120237237369 -0.00092275595714374
"289" 0.00022224776749758 0.000113384745501222 8.56766373427309e-06 0.000362771287280114 0.000187274035979195 -3.39671832066779e-05 0.00028102544041035 -2.53250148543416e-05 -0.000189635524822557 1.17885500099126e-05 -5.541918475808e-05 0.000394564879096124 -0.000382793892716913 -8.35641339252293e-05 -0.000217678662303177 -0.000933456320757619
"290" 0.000219864946759194 0.00011700174528261 1.42296520591187e-05 0.000364466708207864 0.000191496284741598 -2.54438209487515e-05 0.000285853064288353 -1.83338344399262e-05 -0.000196489113557533 2.9928075811709e-06 -5.635771209449e-05 0.000415196730412585 -0.000384815008126502 -8.24488574280433e-05 -0.000213661513620224 -0.00094726487463181
"291" 0.000217378210031854 0.000120710849394442 1.99735387794858e-05 0.000365678269920316 0.00019560292605009 -1.68931553925357e-05 0.000290469766923612 -1.1086727816055e-05 -0.000203128586941827 -4.98291233472816e-06 -5.74846933834273e-05 0.000435648841294384 -0.000386292219009584 -8.11758049851345e-05 -0.000209187125690368 -0.000964063159290763
"292" 0.000214797581584798 0.000124476768483317 2.57883983814603e-05 0.000366404107086278 0.000199576724122383 -8.33264373947088e-06 0.000294859788530428 -3.59009768973022e-06 -0.00020953915381876 -1.20928207384179e-05 -5.87952588867703e-05 0.000455760026650865 -0.000387122003033807 -7.97727464847923e-05 -0.000204290012671099 -0.000983683243971174
"293" 0.000212142305735154 0.000128278438108108 3.16511145058694e-05 0.000366631178013301 0.000203406006027949 2.13376770006594e-07 0.000298991700133077 4.14003990790887e-06 -0.000215713007953891 -1.83103457516684e-05 -6.02825750128137e-05 0.000475359258092053 -0.000387207710563134 -7.82663748339059e-05 -0.000199019461414604 -0.00100595498888276
"294" 0.000209418371701209 0.000132081009189885 3.75487737652715e-05 0.000366367761525253 0.000207078004854279 8.73831586334819e-06 0.000302860896361785 1.21076985235886e-05 -0.000221622254608118 -2.36004719600459e-05 -6.19415107289347e-05 0.000494307900944638 -0.000386470089406015 -7.66804098450857e-05 -0.000193423153079668 -0.00103070730138308
"295" 0.000206634288520463 0.000135843707965798 4.34531962982029e-05 0.000365607216235071 0.000210568110804092 1.72122462550166e-05 0.000306437792895955 2.02780224344218e-05 -0.000227264367100948 -2.79574067677715e-05 -6.37565734757397e-05 0.000512449962723886 -0.000384818657534769 -7.50498159721379e-05 -0.000187544726736994 -0.00105768978186101
"296" 0.000203807930254593 0.000139554268868168 4.93562007791561e-05 0.000364356380101951 0.000213871656061898 2.56241550097016e-05 0.00030971078708202 2.86535235773092e-05 -0.000232613948559258 -3.13666436080956e-05 -6.57181921873783e-05 0.000529664346287724 -0.000382182521319466 -7.33937247905364e-05 -0.000181447534495447 -0.00108669381222962
"297" 0.000200940595777236 0.000143174784346441 5.52315541149253e-05 0.000362618689441808 0.00021696973899627 3.39558368215397e-05 0.00031266458786359 3.72098022011279e-05 -0.000237670760727315 -3.38349678961707e-05 -6.78114445539314e-05 0.000545821223647303 -0.000378498278316159 -7.17406887502197e-05 -0.00017518163785794 -0.00111746698866702
"298" 0.000198042061930381 0.000146669100789072 6.10623127120796e-05 0.000360409379371845 0.000219851562293461 4.21906457165289e-05 0.000315283993396013 4.59289691829523e-05 -0.000242415026379852 -3.53663947777486e-05 -7.00259772327399e-05 0.000560826997826013 -0.000373708117897994 -7.01237400062388e-05 -0.000168806493867486 -0.00114973591760873
"299" 0.000195115968245034 0.00015000723533576 6.68288358841248e-05 0.000357739735066543 0.000222506183554532 5.03129534255487e-05 0.000317556007874798 5.48004589419342e-05 -0.000246842759272964 -3.59816281136255e-05 -7.23411055565532e-05 0.000574588210780416 -0.000367774938164372 -6.85635653100164e-05 -0.000162380354066537 -0.00118323389864252
"300" 0.000192165818820957 0.000153165268290976 7.25142563257554e-05 0.000354632616906569 0.000224920874971172 5.83085711017748e-05 0.000319478580608147 6.37994691440706e-05 -0.000250947565110008 -3.57115622792265e-05 -7.47440865903014e-05 0.000587039924716547 -0.000360672107524804 -6.70903614796765e-05 -0.00015596667836922 -0.00121768361613686
"301" 0.000189191104548713 0.000156106644456244 7.80995425007751e-05 0.000351106366603824 0.000227090987615632 6.61687627860917e-05 0.00032103835071371 7.29096711790667e-05 -0.000254716799446311 -3.45841045636566e-05 -7.7216559854099e-05 0.000598129346692284 -0.000352382036327923 -6.57194789526959e-05 -0.000149615509441467 -0.00125278402140383
"302" 0.000186198261062107 0.000158805624193574 8.35670737823177e-05 0.000347187204761537 0.000229000659702532 7.38752006189507e-05 0.000322230493352825 8.21107650784033e-05 -0.000258151060572764 -3.26516929442391e-05 -7.97344180681707e-05 0.000607821133372438 -0.000342898646129197 -6.44768421947722e-05 -0.000143386877038946 -0.00128821613311452
"303" 0.000183184514262349 0.000161237766147402 8.88987624880258e-05 0.000342901971152756 0.0002306480377925 8.14217735973914e-05 0.000323048552757879 9.13800938041304e-05 -0.000261249245670479 -2.9961926224667e-05 -8.22833283388487e-05 0.000616103416878438 -0.000332239956997161 -6.33724793211981e-05 -0.000137340536323408 -0.00132368328838752
"304" 0.000180145842368784 0.000163378333370633 9.40811137416824e-05 0.000338285784968535 0.000232023605305615 8.87994029265974e-05 0.000323493627280846 0.000100695243853845 -0.000264002493629636 -2.65726814825678e-05 -8.48411407619683e-05 0.000622981672423825 -0.00032043589130866 -6.24265375961896e-05 -0.000131520760430234 -0.0013588797881092
"305" 0.000177076623802451 0.000165198287640406 9.91024151925715e-05 0.000333376717443165 0.000233132835620797 9.60032196348887e-05 0.000323571048651315 0.000110049479236869 -0.000266416829021845 -2.25503274158783e-05 -8.73880331179283e-05 0.000628489043256382 -0.00030753110826089 -6.16507729056194e-05 -0.000125984810644071 -0.001393510037873
"306" 0.00017398147896929 0.000166688285301332 0.000103943095236149 0.000328208323082382 0.000233968889433133 0.000103021754754876 0.000323274990306444 0.000119405750949811 -0.000268498177776701 -1.79690937223192e-05 -8.99045011134603e-05 0.000632651507081288 -0.000293573145348433 -6.10498411557367e-05 -0.000120770589530227 -0.00142722784549787
"307" 0.000170845176851108 0.000167825194367468 0.000108599248317139 0.000322828567065463 0.000234537958494987 0.000109860025903402 0.000322622442632855 0.000128762833631015 -0.000270236500225158 -1.28999487005367e-05 -9.23668936953962e-05 0.000635549395361055 -0.000278650307702428 -6.0622220714284e-05 -0.000115922297270419 -0.00145977793837351
"308" 0.000167664891320702 0.000168590329226871 0.00011305143306735 0.000317279849091087 0.000234836618276715 0.000116509043568979 0.0003216140348566 0.000138093066814112 -0.000271646255014924 -7.42841644184667e-06 -9.47578072227595e-05 0.000637246594900525 -0.000262837698925203 -6.0381936803154e-05 -0.000111477657259125 -0.00149084316376786
"309" 0.000164434111467076 0.0001689765650095 0.00011729379055342 0.000311605694815336 0.000234870930286663 0.000122969624499202 0.000320258667963818 0.000147373860712391 -0.000272731723572375 -1.63314708920487e-06 -9.70533247790081e-05 0.000637830221947534 -0.000246232860609325 -6.03156651969639e-05 -0.00010746118361058 -0.00152011925762493
"310" 0.000161139368827325 0.0001689673575099 0.000121322912410241 0.000305859971113528 0.000234648276183251 0.000129245619528916 0.000318575994940751 0.000156599045229276 -0.000273502786360198 4.39227879348237e-06 -9.92406166551833e-05 0.000637411182289523 -0.000228950367606639 -6.04245253937145e-05 -0.000103907459341105 -0.00154737223118033
"311" 0.000157775638227794 0.000168564164456012 0.000125123837626712 0.000300085808003459 0.000234178360798986 0.000135333626169912 0.000316570193702894 0.000165738662394115 -0.000273966034950625 1.05679245131908e-05 -0.000101293152895984 0.000636088980673741 -0.000211107916629132 -6.06958681228768e-05 -0.000100826249177548 -0.00157230718459806
"312" 0.000154333099742182 0.000167763804311406 0.00012869812523397 0.000294337868610025 0.000233471747255969 0.000141244223615194 0.000314266703693345 0.000174793271346305 -0.000274126134437467 1.68038908342068e-05 -0.000103198627484363 0.000633992621668401 -0.000192841194247496 -6.11197008932756e-05 -9.8239307657754e-05 -0.00159471540725969
"313" 0.000150806993377115 0.000166563633109395 0.000132036164185783 0.000288662389497855 0.000232536194326081 0.00014697498753963 0.0003116809991722 0.000183738900358228 -0.000274001540578846 2.30108025188338e-05 -0.000104936527571408 0.000631241333935408 -0.000174270863710285 -6.16842840395178e-05 -9.614610479457e-05 -0.00161433539749208
"314" 0.000147181588070005 0.000164974629785361 0.00013514231317827 0.000283114719586807 0.000231390368400536 0.000152533698094085 0.000308834362444134 0.000192567796962678 -0.00027359992870537 2.91061444047259e-05 -0.000106494909740101 0.000627961839253037 -0.000155554355352956 -6.23752780852748e-05 -9.45558437012812e-05 -0.00163099907698634
"315" 0.00014344759874311 0.000162989011018827 0.000138008184349027 0.000277739784060039 0.0002300430635077 0.00015792706882502 0.00030574851123194 0.000201263723504246 -0.000272942804272391 3.5006063458267e-05 -0.000107857786713391 0.000624283361579694 -0.000136823969340049 -6.31787746497237e-05 -9.34581889743898e-05 -0.00164450184898775
"316" 0.000139602535673717 0.000160626714729776 0.000140642295625339 0.000272590806405572 0.000228522784672771 0.000163165269886647 0.000302448734808347 0.000209823656509652 -0.000272024915456902 4.06364970255429e-05 -0.000109016662812849 0.000620336758075072 -0.000118244095408367 -6.40676760311873e-05 -9.28463002913362e-05 -0.00165474782595042
"317" 0.000135633111632036 0.000157899228916086 0.000143037364202595 0.000267705254101135 0.000226833988153358 0.000168247934166128 0.00029895744074838 0.000218223469254223 -0.000270877087024549 4.59188420087706e-05 -0.000109954086303269 0.000616231563720551 -9.99392444556828e-05 -6.50314119562695e-05 -9.27017225096654e-05 -0.00166155244607992
"318" 0.000131533386252106 0.000154822512874778 0.000145202068208808 0.00026313808682002 0.000225004498311286 0.00017318717019822 0.000295305888509144 0.000226474191201284 -0.000269500707823791 5.07857464174256e-05 -0.000110663783201992 0.000612102201052863 -8.20734150075343e-05 -6.60498351190516e-05 -9.30073704492465e-05 -0.0016648908451506
"319" 0.000127309349244486 0.000151426120172002 0.000147140571164556 0.000258921442689251 0.00022305239814463 0.000177991650904586 0.000291518302135386 0.000234556006232677 -0.000267914557862129 5.51715791184073e-05 -0.000111140186989353 0.000608042191441886 -6.4768931332698e-05 -6.70959259028492e-05 -9.37289907043212e-05 -0.00166466917761636
"320" 0.000122934892507697 0.000147706872355726 0.000148850915329421 0.000255099297316718 0.000220993899602662 0.000182667369082191 0.000287622580541927 0.000242464845852555 -0.000266138643575593 5.90274310715004e-05 -0.000111380947070536 0.000604159560399507 -4.81744619647538e-05 -6.81619339968169e-05 -9.48480194996258e-05 -0.00166091212716135
"321" 0.000118420862910107 0.000143708478278212 0.00015034607211133 0.0002517056114188 0.000218852822571768 0.000187224394297307 0.000283649043594625 0.000250196931571847 -0.000264183326544625 6.22980786320449e-05 -0.000111378048139967 0.000600545698717909 -3.24107363828839e-05 -6.92195131012398e-05 -9.63226878146451e-05 -0.00165362326231954
"322" 0.00011376614051131 0.000139454590860873 0.000151633467364387 0.000248770465519172 0.000216659015556009 0.000191670283177309 0.000279633871836034 0.000257751630650503 -0.000262058152978653 6.49458749841777e-05 -0.000111133366566066 0.00059728147008648 -1.76035949140551e-05 -7.02487730764653e-05 -9.81169239212032e-05 -0.0016428915286799
"323" 0.000108962324285484 0.000134966726736374 0.000152717340778274 0.000246323637463987 0.000214422533144327 0.000196010945040646 0.000275595627214536 0.000265123298938609 -0.000259785379288846 6.69344461773556e-05 -0.00011064886983853 0.000594426812465349 -3.85701150779265e-06 -7.12386301764467e-05 -0.000100188383102736 -0.001628811925938
"324" 0.000104017560237609 0.000130283797406123 0.000153605817808113 0.000244385439363144 0.000212176633393632 0.000200256390100172 0.000271574664942363 0.000272313222451094 -0.000257374383546271 6.82382440805719e-05 -0.00010992588913767 0.000592037019455613 8.73823809053377e-06 -7.21633662582688e-05 -0.000102497844583336 -0.00161151714915976
"325" 9.89298891506669e-05 0.000125423761005716 0.000154312331205779 0.000242977364497107 0.000209930210513553 0.000204409562012608 0.000267591007038281 0.000279314213040689 -0.000254842613725666 6.8843221348522e-05 -0.000108971915283555 0.000590145487975643 2.00867766021553e-05 -7.30074674654083e-05 -0.000104995963718117 -0.00159121016848747
"326" 9.37089398509701e-05 0.000120428828414546 0.000154843215176054 0.000242115690061276 0.000207720492564864 0.000208484566522258 0.000263684275066137 0.00028613553036988 -0.000252208921134803 6.87362968808436e-05 -0.000107796873872095 0.000588788730872064 3.01204577398067e-05 -7.37616553719331e-05 -0.000107640425696946 -0.00156810634370554
"327" 8.83609592456157e-05 0.000115333968513004 0.00015521221048195 0.000241806480616304 0.000205559131443802 0.000212481802575362 0.000259877770109159 0.000292773460563788 -0.000249475438992803 6.79173637819694e-05 -0.000106404845942728 0.000587964705402661 3.87892615521825e-05 -7.43963750553036e-05 -0.000110373614701716 -0.00154244419224374
"328" 8.28881287527487e-05 0.000110163835179631 0.000155426916343103 0.000242057817532588 0.00020346848014496 0.000216410184266224 0.000256199900904287 0.000299228964222792 -0.00024667055388014 6.63935168591522e-05 -0.000104811086006571 0.000587678877484811 4.60465573774126e-05 -7.49130164806209e-05 -0.000113162732245954 -0.00151452628656638
"329" 7.73069187547256e-05 0.000104957903342994 0.00015550105507063 0.000242867997126487 0.000201472762809198 0.000220273150217912 0.000252675329977721 0.000305504527514196 -0.000243797804777515 6.41786475099989e-05 -0.000103026944196149 0.000587905249604825 5.18695346175852e-05 -7.52825254086545e-05 -0.000115948897440555 -0.00148464289239696
"330" 7.16255933738458e-05 9.97402324822688e-05 0.00015544545957753 0.000244237164720893 0.0001995841385516 0.000224078635928315 0.00024933808035768 0.000311606245694448 -0.000240879172414594 6.12949682212855e-05 -0.000101069671431691 0.000588620820997762 5.62424293173785e-05 -7.55111697546218e-05 -0.000118691939167813 -0.00145314119581666
"331" 6.58636128136314e-05 9.45598314537809e-05 0.000155273193162166 0.000246152461127908 0.000197824736129504 0.000227826850177281 0.000246201348384699 0.000317531385359321 -0.000237919711363662 5.77707813265826e-05 -9.89510680539103e-05 0.000589769540708399 5.91746457515591e-05 -7.55735329094615e-05 -0.000121344600020799 -0.00142036240409575
"332" 6.00387024061738e-05 8.94391145806724e-05 0.000154994499125796 0.000248604133276508 0.000196213505071072 0.000231523519320061 0.000243296155144288 0.000323288931225656 -0.000234940830891813 5.36383299471936e-05 -9.66922117176142e-05 0.00059130162741007 6.0682720576858e-05 -7.54674850092606e-05 -0.000123865030627899 -0.00138667385858199
"333" 5.41518564471353e-05 8.44016686677028e-05 0.000154623609309835 0.000251577580139723 0.000194761615168331 0.000235174773230171 0.0002406410261065 0.000328878859789428 -0.000231953725088583 4.89428382413248e-05 -9.4309037868412e-05 0.000593151291705951 6.0800718079982e-05 -7.51860310224056e-05 -0.000126211427494078 -0.0013524491537055
"334" 4.82396046641823e-05 7.94902093667612e-05 0.000154168702454473 0.000255045974681216 0.000193486712959523 0.00023877800739359 0.000238255620124628 0.000334303796575334 -0.000228968496525872 4.37303507165464e-05 -9.18209160288752e-05 0.000595236072463811 5.95770954998412e-05 -7.4717019532984e-05 -0.000128347130608296 -0.0013180542318519
"335" 4.23140804517535e-05 7.47254084133511e-05 0.000153644286883611 0.000258993711834069 0.000192398657260358 0.000242340480353036 0.000236158882997073 0.000339575423357567 -0.000226001916675056 3.80488566615408e-05 -8.92494576977632e-05 0.000597474957573502 5.70696162831801e-05 -7.40593580821455e-05 -0.000130237247397936 -0.00128388383510773
"336" 3.63993543877816e-05 7.01320625724829e-05 0.000153057718450955 0.000263387014434909 0.000191504343561068 0.000245858502573852 0.000234358786883658 0.000344686316339698 -0.000223064904103648 3.1960632423204e-05 -8.661327591986e-05 0.000599764936052668 5.33571724571498e-05 -7.32082530882447e-05 -0.000131850926917866 -0.00125028114541083
"337" 3.05192303685518e-05 6.57445304879481e-05 0.000152427000624577 0.000268199377088154 0.000190821072521123 0.000249339992401135 0.000232878116354118 0.000349653604908478 -0.000220163671852996 2.55227809396553e-05 -8.39301445628311e-05 0.000602020233504356 4.85174006126392e-05 -7.21603555167597e-05 -0.000133160657096873 -0.00121761600135789
"338" 2.46963709317428e-05 6.15756308799297e-05 0.000151758629454929 0.000273395457893323 0.00019035188553484 0.000252782269576044 0.000231721982400555 0.000354470679406283 -0.000217319417262301 1.87947959370394e-05 -8.12245409757151e-05 0.000604123672268685 4.26474260773276e-05 -7.0915706718667e-05 -0.00013414254007094 -0.00118622421263088
"339" 1.89569873029657e-05 5.76490898860413e-05 0.000151061494956634 0.000278939545115496 0.000190096558434836 0.000256183916424965 0.000230897216712534 0.000359138322995393 -0.000214538630914596 1.18412880123941e-05 -7.85129287696843e-05 0.000605972310706805 3.58584711316078e-05 -6.94715748107583e-05 -0.000134775979377166 -0.00115640003340578
"340" 1.33304920752413e-05 5.3982033068484e-05 0.000150348436048637 0.00028479782610958 0.000190063377354349 0.000259550872059324 0.000230417806598853 0.00036367445271825 -0.000211826511396072 4.73110604903758e-06 -7.58120177389676e-05 0.000607463576243827 2.82485386214695e-05 -6.78314066380629e-05 -0.000135050705607769 -0.00112846657193428
"341" 7.83559544066583e-06 5.05874466247513e-05 0.000149626656749389 0.000290930606301812 0.000190254617589162 0.000262878694691618 0.000230284254481613 0.000368069609896095 -0.000209205499374511 -2.46982211426389e-06 -7.31472329120479e-05 0.000608490651743551 1.99470918355291e-05 -6.60034630531966e-05 -0.000134956832203222 -0.00110265753858989
"342" 2.50996913132062e-06 4.74861610379897e-05 0.00014890750582061 0.000297297570732995 0.000190672109094396 0.000266168252987713 0.000230497528608053 0.000372333391368495 -0.000206672871226687 -9.69369037430077e-06 -7.05292611412218e-05 0.000608944389729987 1.10723971837329e-05 -6.39809074188124e-05 -0.000134486461476756 -0.00107920898718288
"343" -2.62399525698323e-06 4.46788613933786e-05 0.000148197619209742 0.000303860255703483 0.000191303864890592 0.000269419199101687 0.000231056400607473 0.000376464426139836 -0.000204244496603156 -1.68767233757802e-05 -6.7977193221435e-05 0.000608721178744501 1.75151973431868e-06 -6.17730867292706e-05 -0.000133635290395001 -0.00105830959508525
"344" -7.54155244672123e-06 4.21761961579665e-05 0.000147502174263428 0.000310580026957768 0.000192153539779731 0.000272634850499416 0.000231959703277962 0.000380467432160602 -0.000201927224259385 -2.39484433850723e-05 -6.55054482616344e-05 0.000607732583257198 -7.88270584626305e-06 -5.93902974650972e-05 -0.000132414136349384 -0.00104010412139654
