"V1" "V2" "V4" "V5" "V7" "V8" "V10" "V11" "V13" "V14" "V15" "V17" "V18" "V20" "V21" "V23"
"1" 0.000246703773528976 -1.64974308477716e-05 -0.000186588055112302 -0.000158913052396147 -0.000835484975614133 -0.000464904903983338 -0.000203783288115469 -0.000152474334943771 0.00119051483092545 0.00407580041140238 -0.000327522844572222 -0.00224736437121862 -0.00300339070612465 0.000324188156767775 -0.00020196505142587 -0.00224483772936905
"2" 0.000242020702173638 -2.86781424359209e-05 -0.000195348692293836 -0.000176774908777302 -0.000844693524008006 -0.000476878037773792 -0.000209376898918239 -0.000163274592213 0.00137092569626049 0.00429394931339047 -0.000339639969370307 -0.00230372304735679 -0.00274324317112827 0.000224066802321157 -0.000565751518380493 -0.00222740455372206
"3" 0.000236431666801746 -4.05592577938468e-05 -0.000204243064224378 -0.000194094289386292 -0.000852305089754514 -0.000488661269156272 -0.000214427900579661 -0.000173606432439161 0.00154660528570166 0.00451403791457426 -0.000349636562731369 -0.00234495668533296 -0.00248952450210247 0.000121859652279898 -0.000924777308610727 -0.00220782288725899
"4" 0.000229973874663334 -5.21152835802947e-05 -0.000213243948996317 -0.000210825340390432 -0.000858312189652606 -0.000500160416144404 -0.000218953923958739 -0.00018344466137457 0.00171585283822565 0.00473409436937253 -0.000357470186239863 -0.00237069776492955 -0.00224408056840238 1.83493098213793e-05 -0.00127656641511296 -0.00218568616949228
"5" 0.000222677401430151 -6.33280539586463e-05 -0.000222321847332782 -0.000226930645542772 -0.000862723676319007 -0.000511283463557862 -0.000222987250722632 -0.00019277012803194 0.00187689652229167 0.0049520760437263 -0.000363124920685314 -0.00238072195398684 -0.00200853204259462 -8.56430627137304e-05 -0.00161878174619659 -0.00216060276871991
"6" 0.000214585177010262 -7.4180638273099e-05 -0.000231448027607944 -0.000242374012163893 -0.000865557853630595 -0.000521933935882929 -0.000226566531703969 -0.000201574751967276 0.00202794713817899 0.00516589607215252 -0.000366605025716007 -0.00237493607833952 -0.00178428945833328 -0.000189261776313683 -0.00194923205893221 -0.00213221159471617
"7" 0.000205751583148347 -8.46456437543129e-05 -0.000240584048181062 -0.000257115745230878 -0.00086683909633518 -0.000532007002338426 -0.00022971997413631 -0.000209829524806993 0.00216719646449238 0.0053734273578881 -0.000367958735318354 -0.00235337843070112 -0.00157251808676644 -0.000291627889877108 -0.00226588122508618 -0.00210020711140978
"8" 0.000196232371473542 -9.47005861083204e-05 -0.000249686558997014 -0.000271121096686671 -0.000866602553425634 -0.000541408550278297 -0.000232482640778925 -0.000217526368327 0.00229290397296808 0.0055725298802396 -0.000367235187533036 -0.00231621137401259 -0.00137419286219289 -0.000391829951070286 -0.00256685918290444 -0.00206433098147269
"9" 0.000186087751545234 -0.00010433138702303 -0.000258717379217062 -0.000284363018047435 -0.000864898925148725 -0.000550038077147473 -0.000234905417411228 -0.000224655100352493 0.00240339649832247 0.00576107601367457 -0.000364529679573405 -0.002263725984772 -0.00119007396377826 -0.000488946524017289 -0.00285047035012274 -0.00202440318827349
"10" 0.000175386304337976 -0.000113513094777252 -0.000267625176168489 -0.000296809775806146 -0.000861771681594882 -0.000557794731634384 -0.000237016503423733 -0.000231195263627593 0.00249716504855267 0.00593697692312353 -0.000359949889369171 -0.00219632474241643 -0.00102072337365254 -0.000582038645947641 -0.00311517444952788 -0.001980314587848
"11" 0.000164201109321904 -0.000122232022568448 -0.000276359508482072 -0.000308438247763393 -0.000857289645316217 -0.000564585464878388 -0.000238865302007166 -0.000237139773118019 0.00257287943454046 0.00609821206695019 -0.000353630896520028 -0.00211452542593836 -0.000866533212850467 -0.000670168491818164 -0.00335962443372626 -0.00193203970236811
"12" 0.000152610656985655 -0.000130463750383034 -0.000284870764426609 -0.000319225774590173 -0.000851512754740218 -0.000570312158198104 -0.000240492285654964 -0.000242477577022347 0.00262946364762563 0.00624287017007214 -0.000345734171244328 -0.00201894599396629 -0.000727717084702961 -0.000752403670050817 -0.00358264862013499 -0.00187964989112598
"13" 0.000140687348648893 -0.000138197191954487 -0.000293103912171239 -0.000329152396001632 -0.000844516668689707 -0.000574889570018423 -0.000241945336487314 -0.000247199383999606 0.00266609879165648 0.00636916640313251 -0.000336436247542601 -0.00191030986612052 -0.000604333132391277 -0.000827832482418747 -0.00378325912351612 -0.00182330322353152
"14" 0.000128521451464841 -0.000145409344445301 -0.000301001717294667 -0.000338202980010825 -0.000836377147256567 -0.000578232027565032 -0.000243262058733055 -0.000251293034626787 0.00268232822295223 0.00647548773113333 -0.000325935125301259 -0.00178943761175607 -0.000496311655693541 -0.000895564954599381 -0.00396065224950284 -0.00176324977660493
"15" 0.000116194543589965 -0.000152089791217046 -0.000308504306752183 -0.000346360982116664 -0.00082717759810766 -0.000580259954348906 -0.000244483952029984 -0.000254754169623121 0.00267800993828559 0.00656043427690675 -0.000314440333469787 -0.00165723766049955 -0.00040343618794515 -0.000954751291903097 -0.00411422139163393 -0.00169983590748959
"16" 0.000103787480046546 -0.000158227389491529 -0.000315558243665557 -0.000353620206139454 -0.000817000293976163 -0.000580902150659489 -0.000245653475936692 -0.000257571761349212 0.00265337933153721 0.0066228384241971 -0.00030217570294916 -0.00151470787753765 -0.000325395841776735 -0.00100459526466476 -0.00424354100894356 -0.00163348753219435
"17" 9.1389496185719e-05 -0.00016380414427918 -0.000322099598278305 -0.000359974764346454 -0.00080593137623606 -0.000580090736635146 -0.000246806402406331 -0.000259736540513207 0.00260904207079637 0.00666179742706929 -0.000289379522795681 -0.00136292908872091 -0.000261775729037522 -0.00104435982322838 -0.0043483800629623 -0.00156471664813328
"18" 7.9088687501697e-05 -0.000168804992311363 -0.000328073608555236 -0.000365410711188995 -0.000794056633879823 -0.000577766829592729 -0.000247970516378711 -0.000261240744391907 0.00254595534305565 0.00667671072062865 -0.000276294477576001 -0.00120304969076614 -0.00021206501892856 -0.00107338183523629 -0.00442869511963479 -0.00149409845708924
"19" 6.69618906441351e-05 -0.00017322526166121 -0.000333422957551206 -0.000369930624005592 -0.000781460758752668 -0.000573885388697121 -0.000249182412049097 -0.000262075642740907 0.00246540360193124 0.00666727495692663 -0.00026316117082734 -0.00103629696925042 -0.000175705840775605 -0.00109109139091559 -0.00448462188968305 -0.00142227187474761
"20" 5.50983332203184e-05 -0.000177053946095151 -0.000338088045675224 -0.000373537622005173 -0.000768233578372025 -0.000568401832161561 -0.000250462288506556 -0.000262233994676316 0.00236896771661043 0.00663352288294831 -0.000250221741836127 -0.000863958502953742 -0.000152061758656251 -0.00109700985817435 -0.00451648385674547 -0.00134992108860962
"21" 4.35763801707122e-05 -0.000180283487970083 -0.000342014901895006 -0.00037623471175524 -0.00075445347083617 -0.000561289010569756 -0.000251835938399131 -0.000261710460845073 0.00225847263697976 0.00657581172157341 -0.000237719204987677 -0.000687378053733534 -0.000140455124562182 -0.00109077316738121 -0.00452477198944882 -0.0012777682287031
"22" 3.24718199559996e-05 -0.000182907618685178 -0.000345153574926745 -0.000378025198425484 -0.000740207240913216 -0.00055252856074386 -0.000253317998890165 -0.000260494359721366 0.00213592924226471 0.00649483840153755 -0.000225881194620362 -0.000507946974891969 -0.000140173996868291 -0.00107213925649327 -0.00451015362373201 -0.00120656447431195
"23" 2.18582517026173e-05 -0.00018491655684129 -0.000347451045431484 -0.000378915606447353 -0.000725567420141758 -0.000542104157534884 -0.000254910441801046 -0.000258577116839511 0.0020034761968489 0.0063916030904221 -0.000214930675433054 -0.000327092409707448 -0.000150470434433571 -0.00104098771740616 -0.00447344277138801 -0.00113706598585462
"24" 1.18076821610447e-05 -0.000186311663981393 -0.000348860051335473 -0.000378917836068154 -0.000710609864886787 -0.000530023349222607 -0.000256628806321302 -0.000255956165892726 0.00186332327961542 0.00626740853426475 -0.000205074611935904 -0.000146267915854723 -0.000170596499557527 -0.00099734383461862 -0.00441561148175885 -0.00107002665759325
"25" 2.38175922198327e-06 -0.000187088338846728 -0.000349337629421898 -0.000378045806821085 -0.00069540195273069 -0.000516296365184878 -0.000258465355760126 -0.000252619588756129 0.0017176904287216 0.00612382967711438 -0.000196501102313838 3.30612978290179e-05 -0.000199783402280469 -0.000941364213869473 -0.00433776339911332 -0.00100618931098866
"26" -6.36120089841037e-06 -0.000187246884568397 -0.000348843557686835 -0.000376309270651376 -0.00068000767287124 -0.000500946797495415 -0.000260417941392241 -0.000248568119867257 0.00156876804532485 0.00596269656747723 -0.000189376871358589 0.00020942353670051 -0.000237261757202557 -0.000873351194067264 -0.00424112282910979 -0.000946268999906056
"27" -1.43639583470615e-05 -0.000186786442660917 -0.00034734431532 -0.000373728100106087 -0.000664482430754465 -0.000484004914543612 -0.000262466226120396 -0.000243787526427573 0.00141865297787892 0.00578603936001352 -0.000183852826147484 0.000381358367794512 -0.000282266051831451 -0.000793742344465436 -0.00412702088442392 -0.000890947101039825
"28" -2.15813152934362e-05 -0.000185704686387499 -0.000344807322969616 -0.000370314931321047 -0.00064887880648994 -0.000465519602454696 -0.000264594682262977 -0.000238277266874573 0.00126931128487526 0.00559605035512319 -0.00018005371259504 0.000547433358574434 -0.000334039396001315 -0.000703116503369122 -0.0039968878871919 -0.000840855879943045
"29" -2.79750257949665e-05 -0.000184012615777254 -0.00034121085133372 -0.000366094929470353 -0.000633245922800451 -0.000445549953051923 -0.000266784286005217 -0.000232039463315644 0.00112258301565049 0.00539506443675773 -0.00017807065557448 0.000706262086049359 -0.000391849232756753 -0.000602179252845219 -0.00385223003958278 -0.000796574687920404
"30" -3.35098821756476e-05 -0.000181710008856347 -0.000336528707440374 -0.000361083124171937 -0.00061762013589484 -0.000424155394690109 -0.000268998520677906 -0.000225062200309058 0.000980106979525783 0.00518549205515644 -0.000177983607933147 0.000856516268998641 -0.000454969083045685 -0.000491757967543161 -0.00369461610824085 -0.000758624873517983
"31" -3.81568949643151e-05 -0.000178804573699671 -0.000330750851845021 -0.000355306511687839 -0.000602033265867809 -0.000401419601429701 -0.000271203002896125 -0.000217352136616125 0.000843365361245183 0.00496979879961692 -0.000179832039339502 0.000996940413859331 -0.000522703684027438 -0.000372795646345322 -0.00352566672397071 -0.00072745465879999
"32" -4.19047575830992e-05 -0.00017530930399704 -0.000323870424674042 -0.000348788586478372 -0.000586516446503808 -0.000377426287039437 -0.000273368343232576 -0.000208912795364665 0.000713648529152227 0.00475044084588594 -0.000183631717393435 0.00112637461198287 -0.000594383835152992 -0.00024632900428987 -0.00334702992766266 -0.000703444365004819
"33" -4.47379603937076e-05 -0.000171228332647711 -0.000315881255464349 -0.00034154998691433 -0.000571091206654413 -0.000352271973970162 -0.000275447856426066 -0.000199746416297052 0.000592076886443242 0.00452984354703102 -0.000189375785670062 0.00124377087799803 -0.000669369164593084 -0.000113485542201893 -0.00316036988360699 -0.000686893924058557
"34" -4.66583414142859e-05 -0.000166577389283656 -0.000306787834828206 -0.000333625665797044 -0.000555773242013985 -0.000326063854669734 -0.000277394582196987 -0.000189861712732585 0.000479605426376882 0.00431036686314131 -0.000197020595868774 0.00134821114637995 -0.000747049635971043 2.45492470502637e-05 -0.00296735216821022 -0.000678020462428808
"35" -4.7667532959271e-05 -0.000161371457608649 -0.000296600783066064 -0.000325035492663293 -0.000540573807336481 -0.000298915139478963 -0.000279167404361059 -0.000179268817964906 0.000377020207069339 0.0040942593544264 -0.00020650288719723 0.00143891769308612 -0.000826841865077824 0.000166529400096952 -0.00276963116057739 -0.000676957798139028
"36" -4.77773146131059e-05 -0.000155626211759785 -0.00028534154634314 -0.000315816099898077 -0.000525502388252643 -0.000270949881414821 -0.000280716598358415 -0.000167982569074389 0.000284975371105094 0.00388365668732794 -0.000217732014069487 0.0015152748061472 -0.000908205941545466 0.000311171747586091 -0.00256883160217474 -0.000683762291669822
"37" -4.70159258926465e-05 -0.000149360310380133 -0.000273028044823193 -0.000305995944574457 -0.000510565293407825 -0.000242295235175909 -0.000281994273388171 -0.000156020202280358 0.000204000501068301 0.0036805346558721 -0.00023059815958752 0.00157684420551981 -0.000990633583113122 0.000457179459330562 -0.00236653966990556 -0.000698396495861045
"38" -4.5408565627102e-05 -0.000142597851891406 -0.000259697095735984 -0.000295610420592034 -0.000495759640875132 -0.000213086841138146 -0.000282950322092091 -0.000143406259827769 0.000134516458527504 0.00348670559153913 -0.000244961938438946 0.00162336337371541 -0.00107365593417421 0.000603246023658447 -0.00216429590588763 -0.000720736361111232
"39" -4.29911477186897e-05 -0.000135354780954721 -0.000245379504207658 -0.000284690333599202 -0.000481084209099035 -0.000183463033030615 -0.000283535199635531 -0.000130158919938801 7.68464240833227e-05 0.00330379340169584 -0.000260669720241717 0.00165476741065463 -0.00115682150017942 0.000748076253020166 -0.00196358323507585 -0.00075057351884549
"40" -3.98130516699987e-05 -0.000127665723294899 -0.000230120019123817 -0.00027327343271943 -0.000466536846988046 -0.000153575881366481 -0.000283707827806507 -0.000116318620110254 3.12443170191999e-05 0.00313324174745721 -0.000277548191238158 0.00167118608295036 -0.00123973281558158 0.000890400154473762 -0.00176581186501815 -0.000787606962259284
"41" -3.59158545051967e-05 -0.00011954946451251 -0.000213973028987912 -0.000261395400535086 -0.000452116656473571 -0.00012356590559754 -0.000283419717302934 -0.000101910955702676 -2.11229324039479e-06 0.00297629433060199 -0.000295415207354544 0.00167295252364271 -0.00132200714756219 0.0010289829500496 -0.00157231450163971 -0.000831458528092878
"42" -3.13648611330733e-05 -0.000111042876100909 -0.000196991373825116 -0.000249098177090785 -0.000437813991184097 -9.35900243359369e-05 -0.000282632138076501 -8.69791383760372e-05 -2.30819966596532e-05 0.00283399514875025 -0.000314064081023445 0.00166059653637202 -0.00140331238321179 0.00116264514081509 -0.00138433753442671 -0.000881661178575075
"43" -2.62243966968127e-05 -0.000102173308353333 -0.000179238140997608 -0.00023642267562515 -0.000423628593760257 -6.38019995067213e-05 -0.000281309400668406 -7.15664668479728e-05 -3.15942025174474e-05 0.00270718703907212 -0.00033328199718299 0.00163484543562675 -0.00148334132626946 0.00129025989459342 -0.0012030353953202 -0.000937661021664683
"44" -2.05644408701765e-05 -9.29815324266223e-05 -0.000160779105895072 -0.000223410900269215 -0.000409557464409298 -3.43540388978902e-05 -0.000279417476115937 -5.5722612824e-05 -2.76029217344005e-05 0.0025965186662736 -0.000352856670900586 0.00159660895111361 -0.0015618241416871 0.00141077712899605 -0.00102946926043225 -0.000998828544409617
"45" -1.44534836555784e-05 -8.34976245549394e-05 -0.000141693599999726 -0.000210103768352701 -0.000395596711528929 -5.40292632325883e-06 -0.000276927530671876 -3.94970940013118e-05 -1.11018127086767e-05 0.00250244091821907 -0.000372567431989023 0.00154697371483896 -0.00163851214561207 0.00152321799885155 -0.000864596450030926 -0.00106445654388956
"46" -7.9754087100184e-06 -7.37634778300465e-05 -0.000122053740434437 -0.000196549574633892 -0.000381748765322293 2.29012942577607e-05 -0.000273819518381082 -2.29496862485481e-05 1.78802001399739e-05 0.0024252217285628 -0.000392187156721948 0.00148717863312479 -0.00171319870187204 0.00162668977957834 -0.000709275364773446 -0.00113376041074493
"47" -1.21583129358277e-06 -6.38192446188282e-05 -0.000101945946402123 -0.000182795891667119 -0.000368018576222151 5.04047465916394e-05 -0.000270076612726828 -6.13989116366812e-06 5.92911048860426e-05 0.00236494665214067 -0.000411494876851011 0.00141860615453876 -0.00178569851507192 0.00172038859041737 -0.000564258639408594 -0.00120588486957149
"48" 5.74735988352658e-06 -5.37056149483727e-05 -8.14579095171982e-05 -0.00016888487325521 -0.000354414571887769 7.69637702094633e-05 -0.000265690445358617 1.086765982228e-05 0.00011302435269278 0.00232152524402657 -0.000430271590256569 0.00134274978317224 -0.00185584562951726 0.00180360121912973 -0.000430189531300469 -0.00127991678276354
"49" 1.28192214624147e-05 -4.34710964432313e-05 -6.06808428426406e-05 -0.000154876158525049 -0.000340941810235873 0.000102432332412672 -0.00026065798936007 2.79972386594002e-05 0.000178959570830355 0.00229469896046379 -0.00044830484302688 0.00126120185205507 -0.00192350625521048 0.00187571984672262 -0.000307610281038103 -0.00135487188649051
"50" 1.99092576404267e-05 -3.3155432033409e-05 -3.97047162063378e-05 -0.00014081435281495 -0.000327621601096452 0.00012667523446035 -0.000254985728342347 4.51840625618014e-05 0.000256911728141825 0.00228404152839268 -0.000465394507712028 0.00117562874883025 -0.00198855861751819 0.00193622275741935 -0.000196955753936713 -0.00142972972100947
"51" 2.69313273960963e-05 -2.28116452069325e-05 -1.86337881941442e-05 -0.00012675512709017 -0.000314469595023337 0.000149561088662927 -0.000248684296907063 6.23446329377193e-05 0.000346672271891966 0.0022889813122108 -0.000481338788776215 0.00108774058732756 -0.00205090300793111 0.00198471007308563 -9.85505922724327e-05 -0.00150341441085339
"52" 3.37939059854177e-05 -1.24820113763121e-05 2.43845370715457e-06 -0.000112749379541039 -0.000301505816685202 0.0001709639012152 -0.000241769527742737 7.94056422750149e-05 0.00044794903819556 0.00230879059799085 -0.000495969917257445 0.000999269356580436 -0.00211044709845088 0.00202086300659133 -1.26213197582953e-05 -0.0015748157600693
"53" 4.04034866219435e-05 -2.21957742803118e-06 2.34068510584758e-05 -9.88574071561836e-05 -0.000288764164257505 0.000190771622346394 -0.000234274377729335 9.62808240510709e-05 0.000560419304993534 0.00234261666597609 -0.00050911437769525 0.000911937608351399 -0.00216711735361989 0.00204448729846131 6.07135417231602e-05 -0.00164280418149311
"54" 4.66775297567337e-05 7.92799749056311e-06 4.4174666307877e-05 -8.51272966184323e-05 -0.000276271127612202 0.000208875904909592 -0.000226226841020605 0.000112890513360728 0.000683679171441894 0.00238945667510391 -0.000520630638227902 0.00082743917769934 -0.00222084495110661 0.00205547599169503 0.000121421264311264 -0.00170622984370457
"55" 5.25281063761531e-05 1.79117878009565e-05 6.46403116610143e-05 -7.16208160334335e-05 -0.000264067507544897 0.000225185405870198 -0.000217667416326461 0.000129146725569627 0.000817252247183928 0.00244820098360368 -0.000530384158633722 0.000747408464551863 -0.00227155514074277 0.00205383056460075 0.000169572281844941 -0.00176394787221416
"56" 5.78716117950825e-05 2.76824389220051e-05 8.47018044380057e-05 -5.83921374872199e-05 -0.000252190384662475 0.000239613839596106 -0.000208649277150293 0.000144968475657662 0.000960573231059222 0.00251762097452584 -0.000538270099444651 0.000673404881341342 -0.0023191790077929 0.00203965443653902 0.000205323684709507 -0.00181481935278668
"57" 6.26350308774383e-05 3.71871296349614e-05 0.000104259420641469 -4.55027484381643e-05 -0.000240684924426844 0.000252087710901693 -0.000199223926524956 0.000160262462438543 0.00111299457622803 0.00259638038691739 -0.000544192873480389 0.000606880368397864 -0.0023636462856938 0.00201314804903627 0.00022892185035482 -0.00185773909468052
"58" 6.67408559364381e-05 4.63806324461318e-05 0.000123216451303106 -3.30033630365254e-05 -0.00022959874679525 0.000262551050159837 -0.00018944837164445 0.000174953343827267 0.00127375737747519 0.00268305213849721 -0.000548094340646412 0.00054917516138157 -0.00240487899693647 0.00197460617535669 0.000240683871915768 -0.00189163098644496
"59" 7.01243393253704e-05 5.52174206491851e-05 0.000141481092122773 -2.09544348962213e-05 -0.000218981924729387 0.000270954473649516 -0.000179391026713417 0.000188951844772415 0.00144201119754688 0.00277612497110643 -0.000549925613042858 0.000501496200170181 -0.00244279838118825 0.00192442047157628 0.000241017970313786 -0.00191548153243125
"60" 7.27205328991911e-05 6.36443987139298e-05 0.000158958783437435 -9.41221266021878e-06 -0.000208885485156111 0.000277267497557911 -0.000169125238559649 0.000202176910959065 0.00161679098148733 0.00287402194945087 -0.000549659880799293 0.000464896620308828 -0.00247730609511033 0.00186307057891262 0.000230398725865659 -0.00192834267755887
"61" 7.44774074201767e-05 7.16232785850009e-05 0.000175568041518681 1.57104544816729e-06 -0.000199364594742502 0.000281473249856799 -0.000158718763100514 0.000214552325967492 0.00179700954857467 0.00297510302261388 -0.00054730123421153 0.000440274293251251 -0.00250829709706492 0.00179112388829545 0.000209353033327048 -0.00192935281669008
"62" 7.53490453212747e-05 7.9108244347882e-05 0.000191223704127961 1.19363723383965e-05 -0.000190475686986884 0.00028356507949716 -0.000148261437242844 0.000225998758485706 0.00198148274610856 0.0030776922750946 -0.000542869734322325 0.000428364734773299 -0.00253566328106876 0.00170923191177832 0.000178475776750612 -0.00191773656207876
"63" 7.5290990053886e-05 8.60571500484584e-05 0.000205846785489825 2.16344247477387e-05 -0.000182276260920027 0.000283555512652455 -0.000137830018169194 0.000236444662148859 0.00216891065756959 0.00318008120956718 -0.000536405711278803 0.000429734263019101 -0.00255926780862684 0.00161812275698337 0.000138407289927099 -0.0018928315812069
"64" 7.42692624539356e-05 9.24376607723856e-05 0.000219375925106215 3.06151105097578e-05 -0.000174818788525623 0.000281471967327886 -0.000127509508764312 0.000245827281379788 0.00235788775456369 0.00328055774432141 -0.000527976020563008 0.00044477413721033 -0.00257896541140115 0.00151859737474268 8.98204871732676e-05 -0.00185410165996366
"65" 7.22640393051014e-05 9.82078026253192e-05 0.000231742907822782 3.88340450428266e-05 -0.000168158923624059 0.000277358183729544 -0.00011738907702645 0.000254083138035973 0.00254691678337761 0.00337741810250373 -0.000517661293765976 0.00047370476637584 -0.00259460424861318 0.00141153032325256 3.34331063083962e-05 -0.00180113217441124
"66" 6.92608100879715e-05 0.00010334391487521 0.000242896053026546 4.62456270329513e-05 -0.000162343840393838 0.000271269236438939 -0.000107548845788022 0.000261167068029319 0.00273441941927858 0.00346898151804142 -0.000505567410646291 0.000516572799819296 -0.00260601250641273 0.00129785067255225 -3.00113347999908e-05 -0.00173364847691775
"67" 6.52488139196817e-05 0.000107813668495464 0.000252787375665632 5.2809270835391e-05 -0.000157428572061075 0.000263274635863798 -9.80842874138084e-05 0.000267024869607118 0.0029187707629788 0.0035536289670514 -0.000491804192779255 0.000573254330433019 -0.00261303581135268 0.00117855474466711 -9.97580592630208e-05 -0.00165151856580102
"68" 6.02300929219247e-05 0.000111592532299501 0.000261378318012688 5.8489458729207e-05 -0.000153453800402275 0.000253462075406072 -8.90723787265931e-05 0.000271621734319997 0.00309829071908688 0.00362979787259074 -0.000476508127276206 0.000643473202088579 -0.00261549587578201 0.00105468804478369 -0.000175029714330288 -0.00155475758024363
"69" 5.42143708902234e-05 0.00011466416096189 0.000268639113899774 6.3256533663269e-05 -0.00015045760798888 0.000241928936478576 -8.05957982918166e-05 0.000274927978632971 0.0032712931701852 0.00369602363393143 -0.000459824706947272 0.000726789127495704 -0.00261322130025235 0.000927327498630089 -0.00025505098074803 -0.00144352510125265
"70" 4.72253472389995e-05 0.000117017157399321 0.000274555097208584 6.70877696018062e-05 -0.000148477884811773 0.000228793187405266 -7.273554695743e-05 0.000276929810195862 0.00343610089921652 0.00375095233777537 -0.000441913458217646 0.000822623396006348 -0.00260605557862442 0.000797603438286885 -0.000339053425909963 -0.00131813600595373
"71" 3.92849972802551e-05 0.000118639661840214 0.000279110276742278 6.99637340878099e-05 -0.000147537631746653 0.000214175793567274 -6.55601629398685e-05 0.000277611368536778 0.0035910987543882 0.0037933554856726 -0.000422939745699355 0.000930256242434135 -0.00259385342472367 0.00066666293838024 -0.00042627779823669 -0.00117904335784644
"72" 3.0425674167131e-05 0.000119525907431765 0.000282309011137231 7.18688936421466e-05 -0.000147659615084219 0.000198212230374546 -5.91432410630257e-05 0.000276977689467297 0.00373474922533613 0.00382214715258309 -0.000403071470044027 0.00104883220291788 -0.00257648035353676 0.000535676146023337 -0.000515978273024908 -0.00102685284549789
"73" 2.07000497620244e-05 0.00011968106959384 0.000284161899945834 7.28029054533448e-05 -0.000148853025001828 0.000181053895418036 -5.35378782136122e-05 0.000275046358890789 0.00386563114289543 0.00383641152148707 -0.000382490034541321 0.00117738271838706 -0.00255382287223205 0.000405828981398777 -0.000607443526271227 -0.000862304357996539
"74" 1.01516881710146e-05 0.000119111426727697 0.000284685313276378 7.27676443298205e-05 -0.000151118068300268 0.00016285464213605 -4.88020581485687e-05 0.000271835980095085 0.003982464383621 0.00383540101261276 -0.000361374102819629 0.00131483522011106 -0.00252580496051366 0.000278299545724235 -0.000699986870530184 -0.000686265098195656
"75" -1.15972633178257e-06 0.000117828334588508 0.000283913228732649 7.17691333100679e-05 -0.000154452513885366 0.000143779522415392 -4.49803628634891e-05 0.000267378857644142 0.00408417284883966 0.00381855391822102 -0.000339894415098305 0.00146001342798674 -0.00249237553398067 0.000154266551564368 -0.000792956757070255 -0.000499723654225004
"76" -1.3173330135275e-05 0.000115850984124908 0.00028188374562665 6.98291131080513e-05 -0.000158839616913746 0.000124000035446164 -4.21030839687954e-05 0.000261726370793166 0.00416986291142469 0.00378549486461683 -0.000318231546830016 0.00161165259613536 -0.00245352075633023 3.48813154804064e-05 -0.000885739469719132 -0.000303782816141587
"77" -2.58177541895437e-05 0.000113206755652004 0.000278646564386578 6.69729986574378e-05 -0.000164246740784013 0.000103692934527675 -4.02018547288838e-05 0.000254936138687316 0.00423887818769022 0.00373604501088681 -0.00029655091634439 0.00176841874210065 -0.00240926996558673 -7.87326925242329e-05 -0.000977759984746289 -9.96514649417428e-05
"78" -3.90153710290809e-05 0.00010991666522504 0.000274255878511743 6.32304532016907e-05 -0.000170643234821126 8.30366794739285e-05 -3.92844209626271e-05 0.000247071582528503 0.00429080184380824 0.00367022417067798 -0.000275015946666042 0.00192890993206535 -0.00235970372623402 -0.000185501631939901 -0.00106849324793156 0.000111369765004962
"79" -5.26892760368723e-05 0.000106026413334348 0.000268784930395951 5.86520365912488e-05 -0.000177975289760464 6.22195574056767e-05 -3.93553881988319e-05 0.000238219972167471 0.00432545018205211 0.00358823318013601 -0.000253784868744016 0.00209167339750894 -0.00230493486929572 -0.000284402228472133 -0.00115745354906522 0.000327889796779163
"80" -6.67565159527463e-05 0.00010156540936153 0.000262307038920902 5.32811644238331e-05 -0.000186192741790205 4.14196732119276e-05 -4.04108107521504e-05 0.000228462501788898 0.00434290081203447 0.00349045888277546 -0.000232994480919386 0.00225521502899253 -0.00224514927646042 -0.000374478189479878 -0.0012441958713426 0.00054844655692475
"81" -8.1125017640036e-05 9.65865146967941e-05 0.000254902807788606 4.71793466162291e-05 -0.000195218812906595 2.08256035774261e-05 -4.2424074704901e-05 0.000217899510506513 0.00434345757960824 0.00337746809650071 -0.000212776956633353 0.0024180061518054 -0.00218057874177929 -0.000454860172048776 -0.0013283171422378 0.00077151733563309
"82" -9.57079072903034e-05 9.11313720980243e-05 0.000246663532756693 4.04069762303956e-05 -0.000204987224103718 6.11599905777185e-07 -4.53698341046669e-05 0.000206633043375944 0.00432763832828715 0.00324998434122555 -0.000193247138285978 0.00257849573444353 -0.00211152125431917 -0.000524764571319801 -0.00140947165509964 0.000995525514987595
"83" -0.000110413049426095 8.52567795768871e-05 0.000237681270079327 3.30415442139714e-05 -0.000215402715408951 -1.90378214891435e-05 -4.9203145730606e-05 0.000194783343745287 0.00429615047867501 0.00310887742362424 -0.00017451269078928 0.00273512895936025 -0.00203831350319932 -0.000583519911164698 -0.00148733679722466 0.00121884967588601
"84" -0.000125148831326179 7.9018832516196e-05 0.000228055655582256 2.51553979794853e-05 -0.00022637044086216 -3.7954636830992e-05 -5.38717527073675e-05 0.000182464266752855 0.00424988699687322 0.002955142276391 -0.000156655153082273 0.00288635461629018 -0.0019613686360607 -0.000630566458758514 -0.00156163923013733 0.00143984090322912
"85" -0.000139819250160896 7.24744381255836e-05 0.000217892180681332 1.68344785217607e-05 -0.000237795893093262 -5.5972319081059e-05 -5.9310256509665e-05 0.000169798788490797 0.00418985925037142 0.00278989603584117 -0.000139748758491006 0.00303064219830904 -0.00188115267575252 -0.000665464855704171 -0.00163213791920962 0.00165682829479584
"86" -0.000154333179168427 6.56842854635498e-05 0.000207298101251772 8.16240766949294e-06 -0.000249563506407311 -7.29368700489973e-05 -6.54470485800166e-05 0.000156915238362536 0.00411718663240276 0.00261434763159374 -0.000123845915716988 0.00316649278051968 -0.00179818838213467 -0.000687913757349127 -0.00169862141256501 0.00186812789736769
"87" -0.000168598299786745 5.87133317027476e-05 0.000196382316554562 -7.63742832716107e-07 -0.000261559901353827 -8.86934781867604e-05 -7.21933188777302e-05 0.000143948410107095 0.00403305350623766 0.00242977981790107 -0.000108994799114762 0.00329246390532274 -0.00171304295366953 -0.000697755520823383 -0.00176091415445592 0.00207206204995418
"88" -0.00018252271815693 5.16214926561845e-05 0.000185250233161341 -9.85575865247135e-06 -0.000273664775189258 -0.000103107774581347 -7.94619961336929e-05 0.000131024528007994 0.00393871016113219 0.00223753010338725 -9.52130182140717e-05 0.00340716401021797 -0.00162634797799088 -0.000694974679282163 -0.00181885764548035 0.00226697053411213
"89" -0.000196019763756054 4.44773715033424e-05 0.000174018915106534 -1.90134036089164e-05 -0.000285755494166687 -0.000116048868716034 -8.71539713622531e-05 0.000118277219694875 0.00383541306239854 0.00203898134499312 -8.25120167974307e-05 0.00350928128526978 -0.00153876724413057 -0.000679704533420535 -0.00187231924040865 0.0024512226781596
"90" -0.000209005244971054 3.73406742241177e-05 0.000162797643882903 -2.81439051986099e-05 -0.000297708660555296 -0.000127404199492383 -9.51642791158305e-05 0.000105837400284878 0.00372440202317472 0.00183554067616866 -7.08887517253698e-05 0.003597598245324 -0.00145100478191203 -0.000652232212907454 -0.00192119240146858 0.00262322299697364
"91" -0.00022139733126929 3.02747177108756e-05 0.000151689457517898 -3.71485857370371e-05 -0.000309396349964713 -0.000137069935733874 -0.000103379066381776 9.38314391255901e-05 0.00360689256094426 0.0016286219696978 -6.03269915809102e-05 0.00367099694527589 -0.00136379676469071 -0.000612984889964784 -0.0019653857832425 0.00278145735041159
"92" -0.000233117119175047 2.33402607342482e-05 0.000140801847213513 -4.59364485994168e-05 -0.000320694888624923 -0.000144960243794127 -0.000111688748969101 8.23754009266535e-05 0.0034840674916061 0.00141963852155579 -5.07913608726735e-05 0.00372847806907867 -0.00127789880397537 -0.000562532073511706 -0.00200482136688371 0.00292447286376314
"93" -0.000244095120980474 1.65955772971705e-05 0.000130235638571989 -5.44114309915162e-05 -0.000331478377855102 -0.000150993598307151 -0.000119976642511893 7.15967560054746e-05 0.00335702667479242 0.00120999450787825 -4.22444113718139e-05 0.00376917495469617 -0.00119407564755698 -0.000501585781005367 -0.00203943035871755 0.00305091920826202
"94" -0.000254265137372078 1.00965127955601e-05 0.000120092075192777 -6.24867711095356e-05 -0.000341625273856199 -0.000155114569354448 -0.000128124542513741 6.15983888639991e-05 0.0032268078971813 0.0010010614554332 -3.46379414289936e-05 0.00379236521752557 -0.00111309476926092 -0.000430980653234819 -0.00206916611545678 0.00315956023772415
"95" -0.000263566392425025 3.89058218761537e-06 0.000110455713914005 -7.00797595164038e-05 -0.000351022349896883 -0.000157278179579355 -0.000136016263557871 5.24851352259698e-05 0.00309438099123372 0.000794188497556988 -2.79054551518129e-05 0.0037974796997907 -0.00103571669996245 -0.000351662148335389 -0.00209397734903924 0.00324928016936177
"96" -0.000271939104020496 -1.96692409175449e-06 0.000101417935468604 -7.71061465542719e-05 -0.000359553031666097 -0.000157447375168712 -0.000143532684631299 4.43511060951866e-05 0.00296061126617169 0.000590673313038856 -2.19865547726191e-05 0.00378411866156243 -0.000962676962238912 -0.000264686461244785 -0.00211383364358553 0.00331911990089799
"97" -0.000279344332545951 -7.43888051908279e-06 9.30558650842485e-05 -8.34937279597481e-05 -0.000367118232629511 -0.000155606415454897 -0.000150565419708011 3.72815255287898e-05 0.00282630179701811 0.000391777878373533 -1.68080470838565e-05 0.00375204772178521 -0.00089467836842537 -0.000171187717757404 -0.00212870186869318 0.00336828459908478
"98" -0.000285733314577589 -1.24880412894214e-05 8.54394628428631e-05 -8.91792272963464e-05 -0.000373615334182057 -0.000151755547760227 -0.000157008670476257 3.13489149327437e-05 0.00269216061286377 0.000198714379309846 -1.2289078248078e-05 0.00370121025298314 -0.000832380471393952 -7.23719951350675e-05 -0.00213856314856095 0.00339615021695458
"99" -0.000291076508980721 -1.70753811789788e-05 7.86365103530802e-05 -9.4097436732365e-05 -0.000378960569597944 -0.000145903987154945 -0.000162749684547677 2.66189739496012e-05 0.0025588225232699 1.26354891452945e-05 -8.35493412412936e-06 0.00363172944685341 -0.000776377999791332 3.0498025136555e-05 -0.00214339983397022 0.00340228854182709
"100" -0.000295345669271273 -2.11765782563583e-05 7.26979943451926e-05 -9.82012230594617e-05 -0.000383073048340579 -0.000138080492956343 -0.000167699976941865 2.31407094495929e-05 0.00242686574069317 -0.000165352726527019 -4.9147563784099e-06 0.00354390620398191 -0.000727211698403153 0.000136132396451113 -0.00214320595045007 0.0033864722351813
"101" -0.000298518908719735 -2.47720663775923e-05 6.76751995406652e-05 -0.000101442710514774 -0.000385887145110405 -0.000128318602724089 -0.000171767480438509 2.09582559552095e-05 0.00229675809455059 -0.000334214001236773 -1.89511410504584e-06 0.00343822823266266 -0.000685333296098216 0.000243212638006737 -0.00213797488836814 0.00334868448886923
"102" -0.000300590532207912 -2.7842192077761e-05 6.36036142137426e-05 -0.000103790960202032 -0.000387344449201355 -0.000116678246582029 -0.000174872546950338 2.00927906155767e-05 0.00216894272372456 -0.000492962197396255 7.92700880626981e-07 0.00331534691698331 -0.000651108808748722 0.000350433855042587 -0.00212771370261017 0.00328912988721329
"103" -0.000301553307245177 -3.03770452639085e-05 6.05161653134295e-05 -0.000105215029985737 -0.000387400356734754 -0.000103213655017355 -0.000176941385195017 2.05704573570587e-05 0.00204378739862718 -0.000640678402282903 3.22783796420899e-06 0.00317608821754222 -0.000624814197879812 0.000456499190217604 -0.00211242507970456 0.00320823285485938
"104" -0.00030140822860127 -3.23733374414354e-05 5.8428414413e-05 -0.000105697668175714 -0.000386020869748981 -8.80093736952843e-05 -0.000177913847143816 2.23873489498529e-05 0.00192162893459681 -0.000776491466972954 5.49077600320163e-06 0.00302144124914434 -0.00060661126993775 0.000560155755740877 -0.00209212811618562 0.0031066420045846
"105" -0.000300164788421842 -3.38273999522383e-05 5.73552250896804e-05 -0.000105231665367701 -0.00038318502023325 -7.11440855541128e-05 -0.000177737661138768 2.55414879575597e-05 0.00180274289303134 -0.000899603251120547 7.65576071736938e-06 0.00285254618484537 -0.000596570645865408 0.000660202355136049 -0.00206684813408436 0.00298522173809367
"106" -0.000297843757358117 -3.47533217183086e-05 5.72939234843918e-05 -0.000103817602512537 -0.000378889906419786 -5.27202700683086e-05 -0.000176372814263211 3.00118272123504e-05 0.0016873856571236 -0.00100927363539722 9.79899374338243e-06 0.00267068647868665 -0.000594648161837126 0.000755504146599973 -0.00203661647331242 0.00284504980698004
"107" -0.000294462799459665 -3.51503243984351e-05 5.82452437927524e-05 -0.000101458870496709 -0.000373136104077657 -3.28368240920821e-05 -0.000173786892699688 3.57666994336023e-05 0.00157577471296548 -0.00110482644240096 1.19837139046551e-05 0.00247726771903167 -0.000600680304333169 0.000845002894770784 -0.0020014714227228 0.00268739269105824
"108" -0.000290060612729105 -3.50461995988397e-05 6.01894630852264e-05 -9.81800844200829e-05 -0.000365941511967896 -1.16123569784315e-05 -0.000169970458836886 4.27648915530274e-05 0.00146812222458258 -0.00118564928887373 1.4279345119789e-05 0.00227381613754437 -0.000614412432183173 0.000927745981367145 -0.00196146144428587 0.00251370575366064
"109" -0.00028466499661101 -3.44554954430235e-05 6.31037289628339e-05 -9.39974539592312e-05 -0.000357340317434325 1.08357003321999e-05 -0.000164910619042209 5.09561737554099e-05 0.00136461334820117 -0.00125120368729731 1.6734841358958e-05 0.00206194689008657 -0.000635465608527531 0.00100287076799339 -0.00191664730317117 0.00232560016904946
"110" -0.000278315330147557 -3.33983955684152e-05 6.69597051432105e-05 -8.89476747056908e-05 -0.000347370051990609 3.43835641120576e-05 -0.000158606991913295 6.02863091548539e-05 0.00126543051157407 -0.0013010268662322 1.94069809765759e-05 0.00184335948558233 -0.000663374021101921 0.00106964028539333 -0.00186709802749867 0.00212483861198483
"111" -0.000271065286183676 -3.19118820493153e-05 7.1713332624064e-05 -8.30692117692026e-05 -0.000336089725202548 5.88971693838263e-05 -0.00015108360208206 7.06749441995225e-05 0.00117073804939553 -0.00133473051011243 2.23344454422501e-05 0.00161980691536057 -0.000697573324014343 0.00112742988378024 -0.00181289581553076 0.00191329550457206
"112" -0.000262962417946441 -3.00196235996134e-05 7.73231621957254e-05 -7.6407959967456e-05 -0.000323560437311563 8.42422437565575e-05 -0.000142367678913327 8.20510276522857e-05 0.00108072426841741 -0.0013520070267377 2.55625707380677e-05 0.00139308571093661 -0.000737414453011427 0.001175751245802 -0.00175412427565772 0.00169293919017156
"113" -0.000254057929856528 -2.77556737529092e-05 8.3732799503028e-05 -6.90171103033627e-05 -0.000309859685063949 0.000110284556095389 -0.000132486904653063 9.43317363491401e-05 0.000995555969054913 -0.00135264681808776 2.91136926942158e-05 0.00116501040584016 -0.000782169166913283 0.00121424046424986 -0.00169089128390304 0.00146580927133422
"114" -0.000244413533942935 -2.51577491887475e-05 9.08877608571799e-05 -6.09550138911398e-05 -0.000295078456039332 0.000136877734710542 -0.000121496922128277 0.000107421739717006 0.000915441405137137 -0.00133652228906062 3.30237438934923e-05 0.000937389332666851 -0.000831052551757967 0.00124267453412369 -0.00162329905343469 0.00123398530461644
"115" -0.000234087644581452 -2.22611743672706e-05 9.87254808567636e-05 -5.22811347341741e-05 -0.000279303856004244 0.000163887503567534 -0.000109449376080192 0.00012123186587209 0.000840562830959979 -0.00130363003136701 3.73020043098896e-05 0.000712002936061091 -0.000883211777175668 0.00126095997339247 -0.00155147104267006 0.000999550117902252
"116" -0.000223147539277479 -1.91081640015864e-05 0.000107175980921206 -4.3068962663941e-05 -0.000262641658724115 0.000191171485123895 -9.64102648075397e-05 0.000135657746099891 0.000771129527412804 -0.00125408113764075 4.1961717629483e-05 0.000490591279256497 -0.000937776583472446 0.00126913976046658 -0.00147552805380149 0.000764588667656137
"117" -0.000211649513016561 -1.57282848498114e-05 0.000116168415065815 -3.33762959698258e-05 -0.000245200193598671 0.000218594995517081 -8.24445523174249e-05 0.000150604896742469 0.000707366586855703 -0.00118811017480342 4.70091569994711e-05 0.000274822676038146 -0.000993824460078079 0.00126739379667474 -0.00139560498281934 0.00053113147131409
"118" -0.000199664381987606 -1.21676403667025e-05 0.000125627710120874 -2.32879087345177e-05 -0.00022709503740849 0.000246017169315115 -6.76411759250283e-05 0.000165958516135896 0.000649497521913069 -0.00110609134412351 5.24402182566237e-05 6.62726893643395e-05 -0.00105044487032348 0.0012560224102471 -0.00131184079530304 0.000301155978268318
"119" -0.000187254506216247 -8.45822876609348e-06 0.00013548124484123 -1.28745095908202e-05 -0.000208445280730237 0.000273311331465502 -5.20763325814784e-05 0.000181621946161305 0.000597783347344973 -0.00100854825205206 5.82543868303677e-05 -0.000133583870987298 -0.00110670296252181 0.00123546043546233 -0.00122438320472735 7.65499073205322e-05
"120" -0.000174490526114591 -4.64163665750816e-06 0.000145645997083747 -2.21204550479887e-06 -0.000189371250767593 0.000300350625478878 -3.58437467887231e-05 0.000197490076811329 0.000552458913870555 -0.000896157201196138 6.44284410576117e-05 -0.000323411004756677 -0.00116169218467921 0.00120625104483499 -0.00113337957325771 -0.000140901025284021
"121" -0.00016143120750791 -7.4876330941224e-07 0.000156046139276949 8.62172286218213e-06 -0.000170000287998353 0.000327009798621875 -1.90374315673903e-05 0.000213453376376337 0.000513796036050326 -0.000769753749521801 7.09547840378683e-05 -0.00050200959659564 -0.00121452351155913 0.00116904865862942 -0.00103898346784061 -0.00034953591536231
"122" -0.000148142377828 3.18394726723702e-06 0.000166604239622058 1.95514696651809e-05 -0.000150459440206757 0.000353174019019938 -1.75196718947896e-06 0.000229417906897944 0.000482050657736369 -0.000630341673154498 7.78021385214057e-05 -0.00066834482619058 -0.0012643416881342 0.00112460668822538 -0.000941351054358588 -0.000547829516713804
"123" -0.000134685818753567 7.12753948601067e-06 0.000177239024039881 3.05002377565247e-05 -0.000130866739925 0.00037873641588496 1.5915165726483e-05 0.000245281445662734 0.000457474327371622 -0.000479095257901681 8.4944687182211e-05 -0.00082154527002385 -0.00131033141212092 0.00107376303020409 -0.000840645301758355 -0.000734400647798796
"124" -0.000121119523215416 1.10522811810324e-05 0.000187879081238198 4.13898996618352e-05 -0.000111346605230796 0.000403598330304717 3.38616393698191e-05 0.00026095009742582 0.000440316848592184 -0.000317360753204924 9.23573099393821e-05 -0.000960924102961481 -0.00135173724811341 0.00101744396092608 -0.000737030174879191 -0.000908029589277271
"125" -0.000107499733850018 1.49334954426105e-05 0.000198445722542076 5.21526202398607e-05 -9.20231172104077e-05 0.000427666868248003 5.19886635433832e-05 0.000276335686754779 0.000430813909857178 -0.000146656931198785 0.000100001783620998 -0.00108597472248197 -0.00138786319374042 0.000956635260663472 -0.000630660472287378 -0.0010676491488431
"126" -9.38842536622045e-05 1.87464442805775e-05 0.000208873203324037 6.27146687725014e-05 -7.3002998190582e-05 0.000450859327869739 7.01974115034025e-05 0.00029135698641306 0.000429154521572885 3.134963717425e-05 0.000107839635699497 -0.00119636338489507 -0.00141808218321304 0.000892382162204291 -0.000521696415606859 -0.00121236427650321
"127" -8.03178291070028e-05 2.24726977446015e-05 0.000219093832079767 7.30138121114945e-05 -5.44016488187451e-05 0.000473107552386492 8.83898838616489e-05 0.000305935912652596 0.00043552287566993 0.000214839013079421 0.000115838396214654 -0.00129194164192469 -0.00144184745138688 0.000825768045816267 -0.0004102874044903 -0.00134143553256129
"128" -6.68458735276206e-05 2.60950141536663e-05 0.000229045491943409 8.29796922682745e-05 -3.63199357610744e-05 0.000494347843612333 0.000106475234424626 0.000320003719573658 0.000450044031729475 0.000401864806008031 0.000123954459847643 -0.00137272949054959 -0.00145869134641543 0.000757898304229275 -0.000296584534144816 -0.00145428405032788
"129" -5.35160584560237e-05 2.9605634938784e-05 0.000238670572547175 9.25635601267503e-05 -1.8846649600964e-05 0.000514530257313729 0.00012436238889566 0.000333500805193094 0.000472789856340829 0.0005903822276941 0.000132153491473874 -0.00143891692792312 -0.00146822988795054 0.000689896079249003 -0.000180724945529426 -0.00155049187266252
"130" -4.03623214856395e-05 3.2989394729825e-05 0.000247913515852659 0.000101707106956611 -2.0721204265445e-06 0.000533618304536003 0.000141962844252099 0.000346373979346433 0.000503760742866672 0.000778261308134868 0.000140386083025808 -0.00149083700873671 -0.00147017247193934 0.000622878826201263 -6.28482645137485e-05 -0.00162979307313405
"131" -2.74176923176762e-05 3.62437655693518e-05 0.000256739199884094 0.000110362827458784 1.39309617076736e-05 0.000551584364768692 0.000159203742318862 0.000358582043955526 0.000542890342657141 0.000963327323179116 0.000148617797085899 -0.00152895792411129 -0.00146431669514123 0.000557952775114913 5.69107663414163e-05 -0.00169206413463281
"132" -1.47166637106954e-05 3.93635388637172e-05 0.00026509701020526 0.000118488626360736 2.90949088285823e-05 0.000568408998039586 0.000175999507117769 0.000370087867054428 0.000590023278801651 0.0011433807909645 0.000156810165703132 -0.00155387281623332 -0.00145056625978776 0.000496190466055729 0.000178428405664373 -0.00173731421944372
"133" -2.27854751584982e-06 4.2352435943928e-05 0.000272960935147281 0.000126052444683654 4.33705069261585e-05 0.000584092665029415 0.000192295868300208 0.000380867207188666 0.000644903167587543 0.00131623382105708 0.000164925796775702 -0.0015662693066832 -0.00142891299923047 0.000438615233464488 0.000301584530797916 -0.00176568229647074
"134" 9.87876580487448e-06 4.52159407975814e-05 0.000280303859275833 0.00013302190508557 5.67148274916434e-05 0.000598640283518857 0.000208026723699682 0.000390907916368095 0.000707173774521551 0.00147975601076601 0.000172927637080749 -0.00156690952826319 -0.00139944672958016 0.000386199687432518 0.000426254646261742 -0.0017774263241986
"135" 2.17370173682616e-05 4.79593460744733e-05 0.00028710888502094 0.000139374671170521 6.90975563868321e-05 0.000612071490442371 0.000223137065840429 0.000400202773651422 0.000776360422882028 0.00163189287735075 0.000180782658916067 -0.0015566306014937 -0.00136235442926074 0.000339838042923364 0.000552324626741768 -0.00177291545485492
"136" 3.32823548909076e-05 5.05896632572714e-05 0.000293363132159655 0.000145092097826175 8.05010684997779e-05 0.000624411940612339 0.00023758858677425 0.000408755907147778 0.000851881562415745 0.0017707025430321 0.000188461684182383 -0.00153630378344294 -0.00131792450827783 0.000300350363266416 0.000679687355942719 -0.00175261609446288
"137" 4.45175778994336e-05 5.31257491979077e-05 0.000299061492784155 0.000150172832691877 9.09219472831987e-05 0.000635703607126892 0.000251343363608177 0.000416582761180078 0.000933032091361279 0.00189438577397616 0.000195937101189792 -0.0015068244301632 -0.00126652286180594 0.000268452762416216 0.000808227309408809 -0.00171709369118344
"138" 5.54329026809333e-05 5.55765972286925e-05 0.000304213770122209 0.000154608865862241 0.000100368646167938 0.00064599624002404 0.000264376519680993 0.000423705295237537 0.00101898370846357 0.00200132159581888 0.000203177741504953 -0.00146909744176809 -0.00120861336304022 0.00024476642050788 0.000937839553387443 -0.00166699698648513
"139" 6.60321611388959e-05 5.79641207165164e-05 0.000308823736074651 0.000158405562830169 0.000108857356063498 0.000655348288550721 0.000276672134268093 0.000430154460293301 0.0011088172867508 0.00209009017288669 0.000210167266904238 -0.00142401716599661 -0.00114474564926928 0.000229793653119751 0.00106840852644961 -0.00160305218299678
"140" 7.63265592534544e-05 6.03024586354579e-05 0.000312911994479562 0.000161575402927122 0.000116424064102314 0.000663825392729806 0.000288217604631292 0.000435970381793445 0.0012014898371721 0.00215949235634413 0.000216880947331709 -0.00137245826250292 -0.00107554963330566 0.00022391979710246 0.00119981388514182 -0.00152605442703297
"141" 8.632450717288e-05 6.26167407165118e-05 0.000316502911802274 0.000164139827804268 0.000123111812261249 0.000671505228613483 0.000299018305238987 0.000441202333989852 0.00129588806077943 0.00220856902526736 0.000223306666047456 -0.00131526546478915 -0.00100172657218597 0.00022740743064577 0.00133193710668537 -0.00143687435922349
"142" 9.60395706205913e-05 6.49235696253867e-05 0.000319627668140836 0.000166120695560429 0.000128969970882829 0.000678464493318572 0.00030908079241743 0.00044590217629802 0.00139080924491814 0.00223660217556416 0.00022942828606494 -0.00125324380197895 -0.000924056455925295 0.000240392571680508 0.00146463662654314 -0.00133643191853142
"143" 0.000105482829467559 6.72413053177437e-05 0.000322316916774241 0.000167544951201948 0.000134064083922409 0.00068479256424223 0.000318419998561587 0.000450128090241962 0.00148500360879253 0.00224312778640537 0.000235232486022568 -0.00118714762116059 -0.000843364122412552 0.000262876872378161 0.00159776246136285 -0.00122571323185328
"144" 0.000114684201313907 6.96019719237803e-05 0.000324621063267525 0.000168454831032706 0.000138466181452661 0.000690583280708841 0.000327069253014179 0.000453951201665486 0.00157718380445851 0.00222793390500811 0.000240700705190858 -0.00111768134975011 -0.000760527773479438 0.000294728254196861 0.00173114983205476 -0.00110574704930064
"145" 0.000123659382497214 7.20179915812603e-05 0.00032657801269336 0.000168887019439041 0.000142255803682926 0.00069592600795241 0.000335054512773984 0.00045743805630554 0.00166607660244218 0.00219105576351401 0.000245833514666097 -0.00104548526111967 -0.00067647890476945 0.000335693774100325 0.00186460448243937 -0.000977607910956662
"146" 0.000132431798300884 7.45109687972382e-05 0.000328239612581765 0.000168885595301175 0.000145523302459401 0.000700919114385594 0.000342417007633557 0.000460659697184738 0.00175040037300525 0.00213277161384477 0.000250619974564194 -0.000971149421817977 -0.000592167982811402 0.000385387091895857 0.0019979075808864 -0.000842415234160269
"147" 0.000141034280317744 7.7106465413143e-05 0.000329664699023358 0.000168503943703707 0.000148358882006571 0.000705668311847079 0.000349210108042621 0.000463697102236223 0.00182891622721008 0.0020535790122009 0.000255053427594065 -0.000895188920576867 -0.000508557972917884 0.00044330217232772 0.00213081406054835 -0.000701329854737802
"148" 0.000149488913737541 7.9822078484953e-05 0.000330905332157862 0.000167791382676772 0.00015086045957883 0.000710264438346931 0.0003554789584384 0.000466621960375649 0.00190043318507729 0.00195419245758802 0.000259114916129579 -0.000818068436589147 -0.000426618925589432 0.000508804404852359 0.00226304770336134 -0.000555542445011126
"149" 0.000157827549887423 8.2670843547982e-05 0.000332021874920103 0.00016680667157723 0.000153130544591241 0.000714809644019051 0.000361283127472883 0.000469515347956178 0.0019638779514448 0.00183551614449598 0.000262808915590038 -0.000740186471316621 -0.000347323673166521 0.000581170425721146 0.00239430201435351 -0.000406268628267743
"150" 0.000166077039857924 8.56715038197648e-05 0.000333074248503475 0.000165606286318321 0.000155270816002897 0.000719398263001274 0.000366687086277799 0.000472453031327351 0.00201825731222536 0.00169862812720503 0.000266119743603394 -0.000661888663028506 -0.000271607008135563 0.000659562121572296 0.00252423076836002 -0.000254743247094919
"151" 0.00017426574979864 8.88342162623585e-05 0.000334117978151303 0.000164241260179177 0.000157385820132012 0.000724120104296344 0.000371751143878056 0.000475504664930611 0.00206271624502324 0.00154476627878413 0.000269040622831569 -0.000583466628740549 -0.000200365305056775 0.000743055092658841 0.00265245171407782 -0.000102220247383097
"152" 0.000182430536784277 9.21772586395676e-05 0.000335222553616803 0.000162780999493645 0.000159579195974931 0.00072907128660553 0.000376554536070748 0.000478751478830886 0.00209651945314214 0.00137528274774753 0.000271554462068272 -0.000505167698701037 -0.000134443133395773 0.000830642628311771 0.00277855332640003 5.00413350174407e-05
"153" 0.000190591361462612 9.56999776527671e-05 0.00033643602066541 0.000161277833903183 0.000161950294712114 0.000734326169965731 0.000381152040969151 0.000482252409533507 0.00211910257343195 0.00119165199289325 0.000273654427530951 -0.000427189969449504 -7.46185828610581e-05 0.000921249794586896 0.00290207507019529 0.000200785454548451
"154" 0.000198786138061929 9.94173942018268e-05 0.000337826795681355 0.000159793174562337 0.000164602605763845 0.000739970280256658 0.000385631084089239 0.000486079394959145 0.00213004211981212 0.000995432433071269 0.000275313117844847 -0.000349691880072147 -2.15692470354715e-05 0.00101374251611685 0.00302252779529701 0.000348768680122219
"155" 0.00020703328338299 0.000103325069576643 0.000339444316529813 0.000158382807522639 0.000167627179751718 0.000746067451086795 0.000390049571535582 0.000490286011817418 0.00212908777264801 0.000788258970831057 0.000276522055457412 -0.000272799394880269 2.41043430596394e-05 0.00110694025004518 0.00313938745945114 0.000492762015145403
"156" 0.000215363959761961 0.00010742469020447 0.00034133784757936 0.000157095941742648 0.000171117099463798 0.000752683089135233 0.000394485290881683 0.000494921293147292 0.00211614453372409 0.000571821226478404 0.000277253841835051 -0.000196613937450229 6.19162592609802e-05 0.00119963495293654 0.00325209536090591 0.000631582473700584
"157" 0.000223800970887306 0.000111715821144126 0.000343563934806287 0.000155993282206949 0.000175149020944229 0.000759871106625902 0.000399003494397259 0.000500035491385415 0.0020912746646108 0.000347850286481901 0.000277486471902613 -0.000121209940693254 9.151275659741e-05 0.00129058817917671 0.00336005977418588 0.00076407785291506
"158" 0.000232368395778216 0.000116188022971518 0.000346162981286596 0.000155117867509524 0.000179807851499312 0.000767676865452808 0.000403672729628884 0.000505660673958301 0.00205469805562057 0.000118104545250745 0.000277191475702926 -4.66527112931421e-05 0.000112657217410469 0.00137856139713683 0.00346267134888475 0.000889162703110348
"159" 0.000241082298141321 0.00012083433274204 0.000349174465129857 0.000154512814119327 0.000185152279739226 0.000776134985446779 0.00040855499868472 0.000511829619773975 0.00200677626535056 -0.000115640427008331 0.000276339642917039 2.70050966933694e-05 0.000125259265736201 0.00146232059206961 0.00355929203633481 0.00100581175319389
"160" 0.000249960580562363 0.000125636962061857 0.000352631863811785 0.000154220298323846 0.000191246686224529 0.000785269336000189 0.000413711160873359 0.000518554984963747 0.00194801580921634 -0.000351598640439707 0.000274903634037864 9.9708443221655e-05 0.000129368377778504 0.00154065050438374 0.00364927287039353 0.00111308894583393
"161" 0.000259021369338708 0.000130585918356365 0.000356565243635133 0.000154274564102495 0.000198138680796904 0.000795098598071615 0.000419195710251578 0.000525853278432835 0.0018790300122971 -0.000587992019660371 0.000272837656597753 0.000171394743594841 0.000125183998204657 0.00161236432819129 0.00373195099230449 0.00121015115039896
"162" 0.00026827104966909 0.000135662390936495 0.00036099346622169 0.000154704165870713 0.000205864541716194 0.0008056276046436 0.000425059281343749 0.000533726227922896 0.0018005798703557 -0.000823043958567894 0.000270118055186145 0.000241994978815025 0.000113047321702937 0.00167632400586956 0.0038066656660373 0.00129626786554157
"163" 0.000277719050675705 0.000140840958898803 0.000365934968162118 0.000155534657080713 0.00021445872083413 0.000816849694449834 0.000431341015363465 0.000542157510306403 0.00171348696018215 -0.0010550022152829 0.000266698157827757 0.000311422287522315 9.34468224028114e-05 0.00173144400140086 0.00387276167500305 0.00137082635858479
"164" 0.000287373510392329 0.000146100972741492 0.000371399602578244 0.000156784084659036 0.000223931861683764 0.000828747913381218 0.000438084962808511 0.000551132361187376 0.00161867919391345 -0.00128212912880754 0.000262544046891005 0.000379569002826805 6.70108834410456e-05 0.00177669746537783 0.00392959991664148 0.00143335054189973
"165" 0.000297234945209071 0.000151413672214714 0.00037738831280835 0.000158465409364238 0.000234296425685693 0.000841296333218628 0.00044531823386618 0.000560627043427801 0.00151715687507341 -0.00150270916607284 0.000257614659978305 0.000446296235677511 3.44968302454548e-05 0.00181114874185276 0.00397656985775589 0.00148350575213993
"166" 0.000307299735020696 0.000156754641401416 0.000383894006809288 0.000160581829479269 0.00024554319888162 0.000854461168488016 0.000453067562595513 0.000570594574043184 0.00140997445180881 -0.00171505106692146 0.000251875730891548 0.000511439631853942 -3.21488342037409e-06 0.00183393824172209 0.00401310157471307 0.00152110630992135
"167" 0.000317566535663359 0.00016209172075747 0.000390907389707099 0.000163137241782922 0.000257659443214204 0.000868190877984237 0.000461347830373951 0.000580995316043361 0.00129822781570833 -0.00191750058837746 0.000245283803728844 0.000574794908483202 -4.51396726605281e-05 0.00184430816936084 0.00403866276444362 0.00154613032641053
"168" 0.000328026094269645 0.000167393348955497 0.000398409141792936 0.000166122562163302 0.000270613490347241 0.000882433003364432 0.000470169537083623 0.000591767476692801 0.001183045067393 -0.00210843226102271 0.000237801888548658 0.000636113471598523 -9.01954826364185e-05 0.00184159929442271 0.00405277809696896 0.00155870926307773
"169" 0.000338664520341384 0.000172630499292809 0.00040637527087112 0.000169525518830368 0.000284371456810584 0.000897123188491388 0.000479535606749228 0.000602847769661578 0.00106557600058311 -0.00228625953583248 0.000229400447608144 0.000695112724379367 -0.000137224550108553 0.00182527225741042 0.00405503802772264 0.00155913836616835
"170" 0.000349470571463581 0.000177769842435007 0.000414770176137282 0.000173330769257946 0.000298882807655318 0.000912187467862816 0.000489442587380536 0.000614169889323449 0.000946974872077223 -0.00244944801138063 0.00022004578752512 0.000751452529721207 -0.000185003100724227 0.00179490035083039 0.00404510723222616 0.00154787365972454
"171" 0.000360425434471714 0.000182774606247948 0.000423556482895623 0.000177510675385964 0.000314090991900849 0.000927543837580798 0.000499870257429623 0.000625644058077318 0.000828401072645567 -0.00259651235103682 0.000209708322701017 0.000804757158614513 -0.0002322719281519 0.00175019033443685 0.00402272681609246 0.00152552244997798
"172" 0.000371509650983949 0.000187616323424151 0.000432689843918733 0.000182037528885926 0.000329925943557312 0.000943105798609688 0.000510810704561821 0.000637192901450011 0.000711007418599305 -0.00272604106948314 0.000198366217237226 0.000854599530212725 -0.000277739917431886 0.00169097040950824 0.00398773227050712 0.00149283932252408
"173" 0.000382698397347765 0.000192261176963672 0.00044212060531625 0.000186877793724613 0.000346310558502356 0.00095878195330248 0.00052222735889393 0.000648718249896906 0.000595908221914476 -0.00283669244733072 0.000185997685046954 0.000900510138593362 -0.000320124426857746 0.00161720656445295 0.00394004904125617 0.00145072158577936
"174" 0.000393967333335522 0.000196681621059885 0.000451792664459729 0.000191991669287251 0.000363164519781083 0.000974472774765991 0.000534089241625487 0.000660128068206786 0.000484218919722369 -0.00292721429229098 0.000172592285922286 0.000941973699987366 -0.000358147122501924 0.00152900676598649 0.00387970283205144 0.00140017650579303
"175" 0.00040528356253561 0.000200841937963811 0.000461641474628997 0.000197333914229092 0.000380391963476607 0.000990072091886573 0.000546361881620824 0.000671321594009135 0.000377011368704861 -0.0029964661143802 0.000158146123293282 0.000978436142637123 -0.000390561644882094 0.00142660878797958 0.00380682245432971 0.00134233472227001
"176" 0.000416622963985797 0.000204714964579589 0.000471607350422511 0.00020285658457149 0.000397898169172286 0.00100547577134297 0.000558987764343085 0.000682192156038391 0.000275310931322818 -0.00304342543820593 0.000142653710393411 0.00100931159745289 -0.000416166935756978 0.00131039099345714 0.00372163357157864 0.00127841707325493
"177" 0.000427947109950241 0.000208278848616369 0.000481620344321058 0.000208509546316308 0.00041557768696141 0.00102057743935363 0.00057192380513852 0.000692639897362712 0.000180105005133685 -0.0030672118846254 0.000126125448826021 0.0010339869087511 -0.000433826011089883 0.00118087328386113 0.00362447240989748 0.00120971019255009
"178" 0.000439224799819905 0.000211507288472832 0.000491614333600166 0.000214242638619116 0.000433326327213589 0.00103527036411437 0.000585115157898361 0.000702564376361598 9.2340403391122e-05 -0.00306710901119257 0.000108576597256561 0.00105182779314314 -0.000442486408227787 0.00103870640318883 0.00351578299257298 0.00113756841721727
"179" 0.000450416533785337 0.000214375848614017 0.000501506080769104 0.000219992545875147 0.000451032964311608 0.00104943545234126 0.000598489396734756 0.000711850257388783 1.28938317062351e-05 -0.00304257819467914 9.0033821715863e-05 0.00106218882045807 -0.000441187412244417 0.000884674067394517 0.00339609769361676 0.00106338001827619
"180" 0.00046148718737329 0.000216868316789429 0.000511228364594224 0.000225706217350557 0.000468586012755537 0.00106297531899348 0.000611987583868685 0.000720402446454552 -5.74079725677376e-05 -0.00299329854071941 7.05311492629002e-05 0.00106443141213361 -0.000429057526662474 0.000719688838002794 0.00326605338906812 0.00098855014469086
"181" 0.000472400615576827 0.000218974545059389 0.000520703486274382 0.00023132675889212 0.000485872344239176 0.00107578239795543 0.000625543536574263 0.000728125661600559 -0.000117819488035447 -0.00291916849462045 5.01093170692547e-05 0.00105792911294726 -0.000405331302043726 0.000544784947482035 0.00312637400633111 0.000914481230290484
"182" 0.000483114979579974 0.000220678854474091 0.000529857637379718 0.000236797387236013 0.000502784091051111 0.00108775483200853 0.0006390839573411 0.000734925020114936 -0.000167651450715931 -0.00282033511812046 2.88203157703467e-05 0.00104207784815287 -0.000369368819776073 0.000361114250370443 0.00297786793092782 0.000842558296904075
"183" 0.000493590065182199 0.000221972022069604 0.000538613538799292 0.000242052578318018 0.000519204795604495 0.00109879534700436 0.000652531448700805 0.000740706144683194 -0.000206284031381319 -0.00269720500559117 6.73537539297873e-06 0.00101631542498241 -0.000320654899293837 0.00016993621893951 0.00282141145111357 0.000774139101558175
"184" 0.000503787732871313 0.000222852469955176 0.000546902539330415 0.000247041426645498 0.000535027985945659 0.00110881266797685 0.000665816634578311 0.000745393363483223 -0.000233198802133658 -0.0025504711178706 -1.6078744899318e-05 0.000980135016961939 -0.000258797341152677 -2.73920174063568e-05 0.00265795431749275 0.000710523392665366
"185" 0.000513668522948951 0.000223319766790534 0.000554649176663888 0.000251706812809373 0.000550152479859651 0.00111772414516064 0.000678858517480293 0.000748911004706036 -0.000247944993553232 -0.00238109788206426 -3.95279128500434e-05 0.000933102356852035 -0.000183530843275571 -0.000229414261895011 0.00248850707249074 0.00065295334337389
"186" 0.00052318965433925 0.000223378136277166 0.000561790514272659 0.000255996984018934 0.000564477932657367 0.00112544962779476 0.000691581652331886 0.000751191025448018 -0.000250177191218982 -0.00219035976145118 -6.35239363052022e-05 0.000874865786617444 -9.47352645740179e-05 -0.000434604922950392 0.0023141284797904 0.000602591315922038
"187" 0.000532316649059587 0.000223035353369949 0.000568260329073745 0.00025986354954576 0.000577911338276286 0.00113192488584333 0.000703915688979428 0.000752182903515152 -0.000239623317550558 -0.00197981476333238 -8.79529171701659e-05 0.00080518274252195 7.59843867902962e-06 -0.000641368239642846 0.00213591972245919 0.000560506675166858
"188" 0.000541012245428752 0.000222305799336744 0.000574002437006491 0.000263259061575954 0.000590367319415304 0.00113709271029138 0.000715783039587747 0.000751841096678002 -0.000216140828557065 -0.00175132166639218 -0.000112703319426422 0.000723929970739513 0.00012332837343912 -0.000848062627042263 0.00195500150773184 0.000527678731250429
"189" 0.000549238289436787 0.0002212037466492 0.000578962208343318 0.00026614441121165 0.000601766743217864 0.00114089926408725 0.000727108362568669 0.000750129746287973 -0.000179662331924027 -0.00150701977575933 -0.00013764412865681 0.000631112364739071 0.00025219351712791 -0.00105300345437596 0.00177252863030146 0.000504976742146572
"190" 0.000556958069380016 0.00021975124926645 0.000583091628501869 0.000268482067297356 0.000612040022544623 0.0011433140185488 0.000737829263532247 0.000747026895879958 -0.000130253357678241 -0.0012493160230024 -0.000162632939714529 0.000526878764640574 0.000393806630091423 -0.00125448962436332 0.00158965972057305 0.000493157310687617
"191" 0.000564143860268867 0.000217972409570284 0.000586350753376309 0.000270241008066054 0.000621130564807711 0.00114430710312444 0.000747876167910797 0.0007425271956322 -6.80846761788387e-05 -0.00098086929516323 -0.000187526720601714 0.000411527413911425 0.000547660914070807 -0.00145082239562496 0.00140755426077387 0.000492856519114629
"192" 0.000570760100061664 0.000215895369495533 0.000588707136949831 0.000271398402465721 0.0006289844431872 0.00114386598258192 0.000757189969943013 0.000736630697826277 6.54833040701768e-06 -0.000704558515541515 -0.000212169171065113 0.000285516193746614 0.000713118337937666 -0.00164031514999768 0.00122735811815085 0.000504588428942587
"193" 0.000576781365598335 0.000213550478231908 0.000590130501042557 0.000271932734561272 0.000635565903999177 0.00114198702652946 0.000765707886581215 0.000729353777533632 9.32225283388296e-05 -0.000423458756294423 -0.000236390534909289 0.000149454338458614 0.000889435378725643 -0.00182132029440798 0.00105020327110274 0.000528748102681737
"194" 0.000582181757237888 0.000210976785108773 0.000590606161420637 0.000271835895567515 0.000640843697728926 0.00113868437716188 0.00077338205907453 0.00072073127977534 0.000191383419087691 -0.000140811397912685 -0.000260030078671503 4.10680199493736e-06 0.00107576183340911 -0.00199224616101983 0.000877196756581631 0.00056559821629359
"195" 0.000586936267751745 0.000208208875233285 0.000590120461393088 0.000271099515534252 0.000644802024848939 0.00113397890678625 0.000780159812727889 0.000710800217369236 0.000300351939421094 0.000140021632921362 -0.000282902698443674 -0.000149609751595804 0.00127113507559947 -0.00215158268258367 0.000709413548274688 0.000615275959654926
"196" 0.000591025505385608 0.000205289855680572 0.000588672051826362 0.000269724227258055 0.000647433080229521 0.00112790388756168 0.00078600386633216 0.000699613693580548 0.000419286754135364 0.000415594055665922 -0.000304830309600538 -0.000310635558481361 0.00147449392844165 -0.0022979174515255 0.000547873922162396 0.00067779714278292
"197" 0.00059442991413406 0.000202260372164748 0.0005862700213761 0.000267719780571301 0.000648745049567043 0.00112050459353077 0.000790876188307481 0.00068724293048563 0.000547228363713994 0.000682411840700563 -0.00032562622380574 -0.000477786038893516 0.00168468475635589 -0.00242995558965054 0.000393563559723351 0.000753050929361855
"198" 0.000597137981618298 0.000199164482418732 0.00058292520821452 0.000265102127275426 0.000648755752300506 0.00111184027523753 0.000794749750013862 0.000673765112657723 0.000683049424853342 0.000936983894645398 -0.000345115904223257 -0.000649759541964052 0.0019004633283654 -0.00254654857370005 0.000247397573642035 0.000840795965716931
"199" 0.000599136635835064 0.000196048754932001 0.000578660261288004 0.000261889384385313 0.000647486647002159 0.00110197540529692 0.000797593087682254 0.000659265531895603 0.000825500880620145 0.00117587311782775 -0.000363107749495607 -0.000825161050540129 0.00212050815144451 -0.00264669809429138 0.000110220238965393 0.00094066848215587
"200" 0.000600419307531869 0.000192960271068887 0.000573506994871904 0.000258113796768712 0.000644983015571357 0.0010909931190155 0.000799401244674534 0.000643847018151102 0.000973183404057478 0.00139572588487611 -0.000379427102980345 -0.0010025266506943 0.00234342998346472 -0.0027295822642641 -1.71827176717788e-05 0.00105218491930785
"201" 0.000600982151420047 0.000189946044282949 0.000567501248305304 0.000253806913216678 0.000641289905070959 0.00107897424257872 0.000800152473019773 0.000627616461430001 0.00112455969194203 0.00159334127213143 -0.000393904231737617 -0.00118032965894352 0.00256777959773363 -0.00279456806058962 -0.00013411264504074 0.00117473830598298
"202" 0.000600819426849968 0.000187047182035681 0.000560685783123415 0.00024900748912026 0.000636465981632894 0.00106601037676698 0.000799849182753048 0.000610688184016754 0.00127798104816797 0.00176570475554634 -0.000406367153293966 -0.00135701884644107 0.00279204790114367 -0.00284121466771882 -0.000239954354222087 0.00130760744748611
"203" 0.000599940619295876 0.000184316288679121 0.00055312149240559 0.000243765537821823 0.000630577764778493 0.00105221099858376 0.000798495011875765 0.000593188815985503 0.00143168237726329 0.00191003151374051 -0.000416662090007989 -0.00153103075903976 0.00301469295732105 -0.00286928888640462 -0.000334189648610072 0.00144995794714921
"204" 0.000598344833747801 0.000181790645123154 0.000544857851266644 0.000238124895972807 0.000623698701604364 0.00103767294726382 0.000796094659247138 0.00057523822855359 0.00158379299104675 0.00202381996918651 -0.000424649099384138 -0.00170080728221016 0.00323413200573264 -0.00287876928695599 -0.000416397369282793 0.00160084233146494
"205" 0.000596046049609697 0.00017952010731167 0.000535961577376396 0.000232145033917817 0.000615914649551594 0.00102251689004251 0.000792670119967967 0.000556977074976695 0.00173237980487049 0.00210488103832095 -0.000430200638278325 -0.00186482710497507 0.00344877832038463 -0.00286983423570475 -0.000486256751485226 0.00175921036906966
"206" 0.000593052184539884 0.000177538386672241 0.000526499255369659 0.000225880919268581 0.000607312040965881 0.00100685090498797 0.000788236399411261 0.000538533006933822 0.00187545249858404 0.00215138112850334 -0.000433206980753388 -0.00202162054355161 0.00365702342878963 -0.00284287650751595 -0.000543567918945905 0.00192391255374523
"207" 0.000589381041273548 0.000175883631956005 0.000516544587239354 0.000219392800524161 0.000597986031424014 0.000990791339787542 0.000782827066942684 0.00052004794274434 0.00201101304190481 0.00216185864026107 -0.000433576750941988 -0.00216977303667865 0.00385728031926117 -0.00279847658171845 -0.000588228993221214 0.00209370941877626
"208" 0.000585047305568138 0.000174585645752882 0.000506171615898965 0.000212744530898765 0.000588033794462919 0.000974453843194326 0.000776469897560015 0.000501650685162993 0.00213706613539128 0.00213525406502027 -0.000431236842070026 -0.00230795465718316 0.00404797227736379 -0.00273740350308195 -0.000620274708644855 0.00226727598492872
"209" 0.000580076112403103 0.000173677233041649 0.000495456711356169 0.000205998609260945 0.00057755491747685 0.000957956346244134 0.000769207330315605 0.000483481545153514 0.00225166299849729 0.00207091597594452 -0.000426144966658876 -0.00243491217764371 0.00422757504554249 -0.00266060280644461 -0.000639848707669222 0.0024432153122198
"210" 0.000574486179907245 0.000173184337003543 0.000484483714994487 0.000199222614302254 0.000566658812000087 0.000941412351176472 0.000761078719979346 0.00046567058550125 0.0023529512513629 0.0019686159468552 -0.000418281852728692 -0.00254949584384235 0.00439462568599499 -0.00256916916468134 -0.000647227698151072 0.00262005740650152
"211" 0.000568304012377391 0.000173121854821954 0.000473328827470589 0.000192475701274348 0.000555445173538436 0.000924929752915947 0.000752134111334516 0.000448340223326237 0.0024392065159341 0.00182853908263873 -0.000407648181296109 -0.00265065859163631 0.00454772540944608 -0.00246433923531414 -0.000642801437560241 0.00279628998487103
"212" 0.000561558592779822 0.000173505339136286 0.000462067769887031 0.000185827638027125 0.000544021145578138 0.000908617062626548 0.000742420891664157 0.000431616849235089 0.00250886314232557 0.0016512713578719 -0.000394275630013683 -0.00273746127436269 0.00468557410637866 -0.00234746191868375 -0.000627099081815414 0.00297035196625622
"213" 0.000554277642789576 0.000174344793351111 0.00045078437357024 0.000179338766026236 0.000532489297411008 0.000892572590696706 0.000731998781603889 0.000415616242742576 0.00256057176924437 0.00143778470136727 -0.000378227810491951 -0.00280907041209103 0.00480697763286007 -0.0022199921571516 -0.000600769172442392 0.00314065823514286
"214" 0.000546492831682938 0.000175643718543957 0.000439555809597222 0.000173066153140322 0.00052095409668439 0.000876891364610529 0.000720919333583495 0.000400441080593023 0.00259321592683003 0.00118942130438829 -0.000359581769055247 -0.00286476436488292 0.00491086703087209 -0.00208345056546367 -0.00056457520201057 0.00330561142779819
"215" 0.000538235790735333 0.00017739832100797 0.000428449057672972 0.000167072118224355 0.000509512265137702 0.000861659234091917 0.000709243915609169 0.000386196539828275 0.00260595576177738 0.000907847738043796 -0.000338461585200102 -0.00290392575706785 0.0049963205557933 -0.00193942184761237 -0.000519409719221451 0.00346362039272935
"216" 0.000529541403897798 0.000179603130523208 0.000417540310784619 0.000161404627857205 0.000498260011676424 0.000846953215901348 0.000697031360307141 0.000372962033635973 0.00259825035463605 0.000595035239918309 -0.000314995637461705 -0.00292605275197839 0.00506255880087491 -0.00178951820866289 -0.000466263144176459 0.00361312834725362
"217" 0.00052044361412679 0.000182241798435918 0.000406891232046878 0.000156117796331345 0.00048728634132555 0.000832840083147819 0.00068434836906717 0.000360821896239191 0.00256987563477416 0.000253225364003745 -0.000289347985733168 -0.00293074601919904 0.00510897816722426 -0.00163536206554999 -0.000406240330686503 0.00375261779774961
"218" 0.000510978690035407 0.000185297145307968 0.000396566062666622 0.000151256490674394 0.00047668046253792 0.000819383861026339 0.000671256248292061 0.000349844129286935 0.00252092929746506 -0.000115111584840486 -0.000261704248600652 -0.00291771211110903 0.0051351505378006 -0.00147857985169393 -0.000340525016486734 0.00388064516973203
"219" 0.000501185520116929 0.000188739962443397 0.000386620536841682 0.000146857439655353 0.000466517844806081 0.000806630811188396 0.000657815511967912 0.000340078234814863 0.00245183224976053 -0.000507312095867225 -0.000232274222654955 -0.00288675719566103 0.00514084051182926 -0.00132076912647592 -0.000270397137829154 0.00399584243605969
"220" 0.000491093942523618 0.000192544944910522 0.000377102605924234 0.000142962263030923 0.000456871346029117 0.000794619533649811 0.000644090446499244 0.00033157075549378 0.00236333264132166 -0.000920542642931027 -0.000201283138308369 -0.00283778175619944 0.00512598877696557 -0.00116348644444446 -0.000197179638534357 0.00409696029255393
"221" 0.000480745994279686 0.000196674788490097 0.000368061539979783 0.000139596126631629 0.000447805724134521 0.000783382844695059 0.00063014708058879 0.000324352423592227 0.00225648331963416 -0.00135184329857079 -0.000168967572549861 -0.0027707836153343 0.00509075224824238 -0.00100823171985472 -0.000122258612122936 0.00418287414235431
"222" 0.000470175332594415 0.000201090240553309 0.000359531855985379 0.000136781844839111 0.000439379340842386 0.000772936858498098 0.000616043551383245 0.00031843877033054 0.00213261715814068 -0.00179814461805576 -0.000135581412421734 -0.00268586214982264 0.00503546587785178 -0.000856436491488305 -4.70407251433231e-05 0.0042526176437662
"223" 0.000459417631322432 0.000205748519209894 0.000351544662827612 0.000134539908949321 0.00043164146947182 0.000763288214518373 0.000601836795766763 0.00031383408356843 0.00199331829942962 -0.00225630430403853 -0.00010139024139797 -0.00258320014121042 0.00496066753670911 -0.000709449567916369 2.70512703613536e-05 0.00430537956602102
"224" 0.00044851466900569 0.000210599554966881 0.000344124043188827 0.0001328824955585 0.00042463292739113 0.000754437783320826 0.000587588959585599 0.000310530260966516 0.00184039585339331 -0.00272312898881225 -6.66593556019683e-05 -0.00246307962271407 0.00486707097949386 -0.0005685246993667 9.8605088867453e-05 0.00434053247380999
"225" 0.000437494248329329 0.000215596139292895 0.000337292249672049 0.000131812896524199 0.000418388543096873 0.000746372640637851 0.00057335186321762 0.000308511791711294 0.00167582543353911 -0.00319537600784022 -3.16634916281183e-05 -0.00232587003802516 0.00475557555690077 -0.00043481183096108 0.00016623314182469 0.00435764932408584
"226" 0.000426397488436991 0.000220684761732957 0.000331056116612171 0.000131334672454655 0.000412927791807908 0.000739075730002875 0.000559183369397408 0.00030774374581661 0.00150173540490472 -0.00366978790386382 3.32294312034998e-06 -0.00217203091252105 0.0046272367030308 -0.000309345413584522 0.000228601516144242 0.00435650355526271
"227" 0.000415256107331257 0.000225809292076534 0.000325422461261328 0.000131440483785568 0.000408270066228119 0.000732511560866194 0.000545126412670358 0.000308180958717927 0.00132033194596524 -0.00414309406214268 3.80340505637705e-05 -0.00200211962403848 0.00448326430823885 -0.000193044966635194 0.000284446760652252 0.00433707229279327
"228" 0.000404097474640543 0.000230912515951544 0.000320386605471681 0.000132114733468111 0.00040441774581778 0.000726642453480514 0.000531226789221659 0.000309765731321859 0.00113388731272024 -0.0046120221171286 7.22044568971599e-05 -0.00181679232716515 0.00432499101961144 -8.66960147570496e-05 0.000332600304477378 0.00429955541519238
"229" 0.000392960314384609 0.000235939715407863 0.000315939978275507 0.000133344481363208 0.000401375923953887 0.000721425626477808 0.000517530630607139 0.00031243629022437 0.000944664243720738 -0.00507331422440985 0.000105571499052031 -0.00161679861832265 0.00415387716011725 9.03707893631089e-06 0.000371993689513082 0.00424434883754782
"230" 0.00038187064920423 0.000240834994722888 0.000312067642938569 0.000135102290781088 0.000399130160548412 0.000716808100260047 0.000504078155355696 0.000316116510141598 0.000754927365871526 -0.00552372122261995 0.000137899898986705 -0.00140298369143761 0.00397146225292031 9.36324804107648e-05 0.000401694000417752 0.00417205039372663
"231" 0.000370857214589435 0.000245535706443424 0.000308748855449975 0.000137363314871263 0.000397661366506292 0.000712726508280867 0.000490896747796014 0.000320720840648652 0.000566842865011061 -0.00596003089303367 0.000168953975249008 -0.00117630102325087 0.00377936398703648 0.000166693149790187 0.000420899422668407 0.00408345643243992
"232" 0.000359947058937992 0.000249987665573299 0.000305954950110055 0.000140090882002888 0.0003969500011206 0.000709120289798502 0.000478020587834482 0.000326156414810802 0.000382505473695831 -0.00637907262929787 0.000198520327017384 -0.000937809369602661 0.00357924713653529 0.000227971841690462 0.000428963822684532 0.00397953552969192
"233" 0.000349162731595817 0.000254138989638606 0.00030365605420898 0.000143249371230428 0.000396961801376348 0.000705920132853973 0.000465476535409195 0.000332321761509293 0.000203880944240925 -0.00677773025712075 0.000226399739840394 -0.000688672204725971 0.00337281732257105 0.000277347266497177 0.000425401855764912 0.00386142127200007
"234" 0.000338526988349891 0.000257932037179388 0.000301813299661012 0.000146792900669291 0.000397655162183301 0.000703047721042372 0.000453284698273927 0.000339111443946934 3.2795930587354e-05 -0.00715295547551436 0.000252407641525267 -0.00043017071450695 0.00316177920893454 0.000314837049127582 0.000409894371902393 0.00373039570604542
"235" 0.000328065989508648 0.000261320713398649 0.000300386860302649 0.000150677642954755 0.000398986705929575 0.000700434482360609 0.000441460918891852 0.000346415568795895 -0.000129074724236678 -0.00750181320386022 0.00027638496732021 -0.000163699736934131 0.00294783075506814 0.000340586219298972 0.000382284268119174 0.00358786395958164
"236" 0.000317791803155332 0.000264255435985898 0.000299330625839177 0.000154855257990028 0.000400908737113812 0.000697997865748168 0.000430020849973603 0.000354117588167428 -0.000280231494389777 -0.00782147167422674 0.000298191414399867 0.000109233432206405 0.00273264144574487 0.000354875339831591 0.000342591932034175 0.00343533529073534
"237" 0.000307722611024704 0.000266693421308402 0.000298596849740783 0.000159268987059228 0.000403364577458126 0.000695661816865613 0.000418970706841905 0.000362095281732418 -0.000419350412545358 -0.00810925651979603 0.000317705636171035 0.000387002008256758 0.00251783585091856 0.000358102578541839 0.000291003421900883 0.00327440966181312
"238" 0.000297870881241829 0.000268594413434517 0.000298131873739481 0.00016386279140189 0.000406290753642696 0.000693344377622303 0.000408312372299632 0.000370230737222592 -0.000545295774440518 -0.00836268091296397 0.000334830535420727 0.000667868137122357 0.00230496946790174 0.000350785671706934 0.000227866782183777 0.00310674239195966
"239" 0.000288245462207961 0.000269915918440687 0.000297883606537109 0.000168580061133997 0.000409627353977809 0.000690964804869561 0.000398048506764635 0.000378404340208209 -0.000657113861515711 -0.00857946869805052 0.000349482707426154 0.000949979606448833 0.0020955289975429 0.000333550561102477 0.000153683920828694 0.00293403275328061
"240" 0.000278858577734671 0.000270636549880528 0.000297796443386559 0.00017336065480984 0.000413305474278861 0.000688450280312528 0.00038817188426071 0.000386494259289041 -0.000754021206284029 -0.00875761076561038 0.000361607654929108 0.00123137879324769 0.0018909066572284 0.000307126564512813 6.91068919029141e-05 0.00275799480023319
"241" 0.000269712028103151 0.000270720921632523 0.000297810991229221 0.000178143640943564 0.000417255480197672 0.000685722562384657 0.000378675234547561 0.000394379730764169 -0.000835429170433832 -0.00889538560683192 0.000371164826245383 0.00151000719423012 0.00169239121459439 0.00027233554427196 -2.50880362813405e-05 0.0025803357897183
"242" 0.000260812627676225 0.000270150817086375 0.000297873027851794 0.000182868028229349 0.000421408894864867 0.000682709451114547 0.00036954455069017 0.000401948978059219 -0.000900891907124406 -0.00899139066491066 0.000378133553051842 0.00178371588074888 0.00150115704663653 0.000230090317123224 -0.000127996532155426 0.0024027457012916
"243" 0.000252155679128597 0.000268906914375331 0.000297924477157418 0.000187474041930252 0.000425693820676514 0.00067934163656016 0.000360761281941197 0.000409087049083953 -0.000950138147961492 -0.00904457983737788 0.000382516835742732 0.00205028382752231 0.00131827994549918 0.000181371683411019 -0.000238612831869671 0.00222686956081202
"244" 0.000243741109973569 0.000266977706733916 0.00029790508707784 0.000191894746994374 0.000430039951461574 0.000675557119098859 0.000352308942660508 0.000415689160074958 -0.000983031690922425 -0.00905427994366674 0.000384331146831883 0.00230743140595638 0.00114469213890081 0.000127229013536362 -0.000355835538821234 0.00205429387473006
"245" 0.000235561630000813 0.000264356781645316 0.000297764568168638 0.000196073005109266 0.000434371813563436 0.000671296644282043 0.000344163169607218 0.000421655210065074 -0.000999585733979307 -0.00902020888251343 0.000383608511505549 0.00255284706564446 0.000981214264979221 6.87692330067788e-05 -0.000478495818582996 0.00188653883993381
"246" 0.000227608643304985 0.000261041730390963 0.000297443789732508 0.000199948036421259 0.000438617805302671 0.000666500920468994 0.000336296860525734 0.000426891340336993 -0.000999934090488717 -0.0089424756372462 0.000380406973387789 0.00278421470787292 0.000828533970699489 7.14036768488117e-06 -0.000605358607566712 0.00172503482911444
"247" 0.000219876197311179 0.000257042166683837 0.000296893935883431 0.000203467581360572 0.000442718362031272 0.000661131229352249 0.000328682433448203 0.000431316341276345 -0.000984326433205846 -0.00882159562462389 0.000374779639494039 0.00299924140198973 0.000687217008028064 -5.64904014577289e-05 -0.000735145825813222 0.00157111626074848
"248" 0.000212346972831323 0.000252361293361756 0.000296069918574058 0.000206574660106435 0.000446599019915794 0.000655141039013728 0.000321288404915143 0.00043485209026534 -0.000953122396463872 -0.00865846014973651 0.000366811345671132 0.00319568958415726 0.000557692974620955 -0.000120925676157209 -0.000866547382519904 0.0014260091555704
"249" 0.000205008769370555 0.000247017301694743 0.000294919825586828 0.00020921834809402 0.000450204435728648 0.000648501403864247 0.000314083112268693 0.000437435679060421 -0.000906769808642861 -0.00845432678480434 0.00035659228251489 0.00337142101188867 0.000440274661816548 -0.000184969729332885 -0.00099824680103231 0.00129082894863391
"250" 0.000197841713260882 0.000241031789086899 0.000293409452337912 0.000211350677695706 0.00045347086350213 0.000641184019457442 0.000307034050496392 0.000439014622625012 -0.000845807076362368 -0.00821079694592711 0.000344225967993987 0.00352442795034341 0.000335157538521643 -0.00024743866503018 -0.0011289172254565 0.00116655363748731
"251" 0.000190826379419544 0.000234425753949068 0.000291494225020932 0.000212930518312125 0.00045634485911971 0.000633171832397524 0.000300103456785068 0.00043954157599976 -0.00077085432637075 -0.00792978494688365 0.000329824066511752 0.00365287490055755 0.0002424106053151 -0.000307173130477957 -0.0012572535582973 0.00105404675852555
"252" 0.000183946177587831 0.000227233644853775 0.0002891459614461 0.000213917011040631 0.000458779580274458 0.000624454929749908 0.00029325645251215 0.00043898718485354 -0.000682606059448081 -0.00761348187261642 0.000313511507158853 0.00375514133355571 0.000162000829579265 -0.000363045366709602 -0.00138196973850129 0.00095402153034185
"253" 0.000177175268598578 0.000219490743939365 0.000286340637813075 0.000214281325149454 0.000460730928352063 0.00061503036613091 0.000286459321115145 0.000437334413182184 -0.000581819744596708 -0.00726432662061192 0.000295415098568977 0.00382985459876756 9.37914065154339e-05 -0.000413979045294247 -0.00150181951075508 0.000867055979883376
"254" 0.000170491818286214 0.000211232459784118 0.000283055357469679 0.000213989462737576 0.000462159311431551 0.000604909138188568 0.000279677513212167 0.000434572595412545 -0.000469329624572676 -0.00688496708305667 0.000275674351615163 0.003875925957367 3.75496253159982e-05 -0.000458967323329346 -0.00161560331856503 0.00079358383664895
"255" 0.000163872243821529 0.000202508964958779 0.000279270978691876 0.000213020834507056 0.000463033012012167 0.000594098083922556 0.00027287476556468 0.000430708018985281 -0.000346016683844236 -0.00647823544570014 0.000254433245466203 0.00389257873206103 -7.04745397837629e-06 -0.000497063449400653 -0.00172218765008826 0.000733894643128104
"256" 0.000157295566782131 0.000193362762084072 0.000274978561602266 0.000211361748261871 0.000463325482809959 0.000582628834736341 0.000266018165473259 0.000425758794935384 -0.000212837408594202 -0.00604711960482841 0.000231843597618455 0.00387937078393584 -4.04193498761674e-05 -0.00052742206763015 -0.00182050595239994 0.000688132881316513
"257" 0.000150734320685804 0.000183848607080757 0.000270177087638484 0.000209001876033323 0.000463020021853211 0.000570526985853253 0.000259079535882802 0.000419756100132291 -7.08062067637873e-05 -0.00559472066270569 0.000208052087384327 0.00383621698560686 -6.3043294946122e-05 -0.000549293394564242 -0.00190956322394202 0.000656292447842011
"258" 0.000144166894894635 0.000174019805208685 0.000264869040262609 0.000205938127332796 0.000462104004449725 0.000557833249811656 0.000252030598433539 0.000412736240089224 7.90058310123458e-05 -0.0051242513825949 0.000183219340054845 0.0037633826642196 -7.54853719668089e-05 -0.000562028523128675 -0.0019884613209996 0.000638224504807992
"259" 0.000137564463346467 0.000163930750153032 0.000259059303060601 0.000202169481278578 0.000460572102818707 0.000544589042794871 0.000244837966669672 0.000404751818058278 0.000235474832675383 -0.00463901083677452 0.000157509771377141 0.00366149812617289 -7.836366445999e-05 -0.00056509951323766 -0.00205638427083618 0.000633628780991193
"260" 0.000130911309729144 0.000153644042533039 0.00025276410270231 0.000197709069946385 0.000458424557732731 0.000530847335869831 0.000237484740689756 0.000395866721161217 0.000397401159943833 -0.00414236791281998 0.000131074484723076 0.00353153615887692 -7.23463241412675e-05 -0.000558105184736725 -0.00211262509470332 0.0006420641866338
"261" 0.000124181272060375 0.000143220811642229 0.000246003388368566 0.000192572932089197 0.000455670224304346 0.000516667715392515 0.000229947064807178 0.000386150897114806 0.000563537986463947 -0.0036377517291696 0.00010407417437915 0.00337479965222142 -5.81556399740441e-05 -0.00054076303878612 -0.00215657704665359 0.00066294248561128
"262" 0.000117361258254649 0.000132721590617447 0.000238803761417584 0.000186781087016498 0.000452326046334803 0.000502114490959186 0.000222210866698008 0.000375686205001977 0.000732584776306915 -0.00312864538572779 7.66737660884417e-05 0.00319289867160335 -3.65528841227733e-05 -0.000512931296103394 -0.00218775116488605 0.000695537449288043
"263" 0.00011042834849662 0.000122208601696758 0.000231198127591838 0.00018036456159944 0.000448412067011266 0.000487255087477234 0.0002142615131867 0.00036456024917822 0.000903171447292657 -0.00261856231944919 4.90207616497724e-05 0.00298771973145497 -8.32787562267762e-06 -0.00047459856114948 -0.0022057757639594 0.000738992090078038
"264" 0.000103368398742212 0.000111745691484032 0.000223214865774505 0.00017335614165255 0.000443953600204729 0.000472157805325521 0.000206086976054519 0.000352861791239859 0.00107389274702876 -0.0021110507051447 2.12771692471691e-05 0.00276137433740693 2.5696795008799e-05 -0.000425887928639234 -0.00221039976586799 0.000792322262034816
"265" 9.61679539567832e-05 0.000101396603941253 0.000214905019474586 0.000165800095454867 0.000438989410790558 0.000456907331135464 0.000197689209899347 0.000340700961804127 0.0012432864255837 -0.00160967753368983 -6.41113771874191e-06 0.00251616920664109 6.46926891655762e-05 -0.000367052391770645 -0.00220149723128578 0.000854413131143943
"266" 8.88182365265871e-05 9.12185138053429e-05 0.000206303498255782 0.000157737178791463 0.000433556634717422 0.000441570574462087 0.000189060011468918 0.000328171816206643 0.00140985510818745 -0.00111800550643832 -3.39037578427946e-05 0.00225456643322582 0.00010780279181965 -0.000298472777962109 -0.00217907683965402 0.000924056130497784
"267" 8.13150935298328e-05 8.12793916868686e-05 0.000197465037112848 0.000149221398309877 0.00042769716898894 0.000426237800402334 0.000180208578691973 0.000315388316400879 0.0015720711932672 -0.00063958961058465 -6.10635547364344e-05 0.0019791295774177 0.000154176300162914 -0.000220653799812321 -0.00214326708013928 0.000999930882752335
"268" 7.36453947506844e-05 7.1629996932322e-05 0.000188437479603731 0.000140306806243213 0.000421457229410314 0.000410983955191937 0.000171139050880538 0.000302456715549847 0.00172841058286917 -0.000177943937720539 -8.77537916332735e-05 0.00169249637931226 0.000202961035563811 -0.000134211254504684 -0.00209433584324045 0.00108063109654482
"269" 6.58137822488401e-05 6.2328655485497e-05 0.000179271670643713 0.000131052347474266 0.00041489599741524 0.000395890144470194 0.000161869559299825 0.000289489544727343 0.00187732128942314 0.000263472793015149 -0.000113857263239118 0.00139732189746947 0.000253309334153957 -3.98795060820321e-05 -0.00203267958507313 0.00116467874538199
"270" 5.7824048649677e-05 5.34256380595683e-05 0.000170026387828828 0.000121516895368462 0.000408061890758249 0.000381037376329338 0.000152409112335006 0.000276588904784607 0.00201728192963454 0.000681294719709544 -0.000139262425206094 0.00109624810151196 0.00030438397530109 6.15134680446887e-05 -0.00195881284653346 0.00125053466946301
"271" 4.96753314599308e-05 4.49678645467816e-05 0.000160755218197548 0.000111768357719248 0.000401013711025794 0.000366500170636595 0.000142783729712753 0.000263863023290024 0.00214681432265157 0.00107228760688781 -0.000163859242747237 0.00079187022780373 0.000355372455598371 0.000169051168709792 -0.00187338636616886 0.00133661165122276
"272" 4.13771123708577e-05 3.7001673518678e-05 0.000151512710079432 0.000101870152125085 0.000393810493290793 0.000352351723720936 0.000133011234829446 0.000251413613620096 0.00226447422029587 0.00143337134313485 -0.00018756031671083 0.000486708631959571 0.000405493736214737 0.000281732936149247 -0.00177716405248018 0.00142130623689347
"273" 3.29439124253925e-05 2.95623220508096e-05 0.000142354325269103 9.18949710018831e-05 0.000386514818116577 0.000338667988529571 0.000123125578476661 0.000239339721553998 0.00236892559466605 0.00176167053486488 -0.000210282107128259 0.000183178681742314 0.000453988461673628 0.000398501638989601 -0.00167102247197718 0.00150299810169502
"274" 2.43892839317939e-05 2.26885826556962e-05 0.000133335133269323 8.19104764409639e-05 0.000379183972428114 0.000325512158943087 0.000113152893829733 0.0002277318513064 0.00245892770915131 0.0020545590967763 -0.000231956465950514 -0.000116425261776568 0.000500141037356656 0.000518239620820268 -0.00155593200438614 0.00158009409515472
"275" 1.57304091864277e-05 1.64029522088173e-05 0.000124502990423069 7.19830010225011e-05 0.000371881389304694 0.000312943485086227 0.000103129535498868 0.000216672353962861 0.00253336453326346 0.00230969022824856 -0.000252523006196453 -0.000409958844779588 0.000543277882404232 0.000639778380869591 -0.00143297127198519 0.0016510351644035
"276" 6.98816197849137e-06 1.07313797578861e-05 0.00011590866306579 6.21797218759603e-05 0.000364665400154466 0.000301020951372196 9.30890808709009e-05 0.000206238101550129 0.00259129544622591 0.00252505777365921 -0.000271935228940066 -0.000695425046712956 0.000582778357643805 0.000761934903891511 -0.00130328868152214 0.00171431924445713
"277" -1.81619754173383e-06 5.68560522674102e-06 0.00010759976450408 5.25726490517354e-05 0.000357591593624489 0.000289789177926222 8.30689071680435e-05 0.000196493138768224 0.00263194350513458 0.00269901656788634 -0.000290159068532155 -0.000970997124772143 0.000618077784815013 0.000883494787645545 -0.0011681042975837 0.00176852206297222
"278" -1.06543433279866e-05 1.27298336588233e-06 9.96136104163397e-05 4.32181828560517e-05 0.00035071822369869 0.000279288637528789 7.31068583543036e-05 0.000187495014673016 0.00265474079189747 0.00283033136293292 -0.000307167880352408 -0.0012350159561932 0.000648665864203548 0.00100324897726826 -0.00102868828293204 0.00181232294425456
"279" -1.9501575329393e-05 -2.49759173697666e-06 9.19943667368454e-05 3.41886599031257e-05 0.000344091633581111 0.000269558954290588 6.32441797086628e-05 0.000179291061083872 0.00265932609994048 0.00291818887511536 -0.000322956942851614 -0.00148599067526783 0.000674112243224392 0.00111998130776097 -0.000886349384673334 0.00184451784353884
"280" -2.83273268857565e-05 -5.63753389385558e-06 8.47688234698461e-05 2.55392299523261e-05 0.000337766341281024 0.000260623449558278 5.35205799333325e-05 0.00017191328685434 0.00264558809881118 0.00296223142382629 -0.000337518473581328 -0.00172260659185686 0.000694037702974923 0.00123250448145066 -0.000742415822208763 0.00186405472780556
"281" -3.70989216077826e-05 -8.15493036866568e-06 7.79636974443995e-05 1.7325353751662e-05 0.00033178332084924 0.00025249602973782 4.39743298989842e-05 0.00016538183471186 0.00261363320105746 0.00296256252458047 -0.000350871062485003 -0.00194371548520102 0.000708153776499158 0.00133965570269412 -0.000598220716552511 0.0018700301359426
"282" -4.57822527748248e-05 -1.00688870805353e-05 7.16048953598424e-05 9.59831742762298e-06 0.000326181051272839 0.000245191187681838 3.46496391908226e-05 0.000159712561718414 0.0025638347278876 0.00291974172045422 -0.000363028808820309 -0.00214834324248722 0.000716241435736489 0.00144030833533435 -0.000455083207322525 0.00186171913115429
"283" -5.43455145475291e-05 -1.14109135394796e-05 6.57036299449654e-05 2.40595915077949e-06 0.000320993300258494 0.000238705555939308 2.55756920173106e-05 0.000154896301824572 0.00249679176934461 0.00283478181928053 -0.000374022195569448 -0.00233566615094591 0.000718168488358616 0.00153339490540331 -0.000314289304194035 0.00183857766114022
"284" -6.27549470907249e-05 -1.2204631260208e-05 6.02704931206639e-05 -4.21037796815007e-06 0.00031625334259015 0.000233035075988466 1.6795912553266e-05 0.000150923364864126 0.00241333924100165 0.00270912737251945 -0.000383890907532246 -0.00250502913730861 0.000713876149598024 0.00161790685273297 -0.00017707519602452 0.00180026310559568
"285" -7.0975153932262e-05 -1.24924008627876e-05 5.53101162979671e-05 -1.02097635828285e-05 0.000311981729792293 0.000228164409240706 8.34461872845477e-06 0.000147763891118618 0.00231454637475855 0.00254463331728339 -0.000392673939343156 -0.00265591985555131 0.00070339298784938 0.00169290100008944 -4.46113664815011e-05 0.00174662784996267
"286" -7.89673487791196e-05 -1.23183316152283e-05 5.08190345810897e-05 -1.55593392046197e-05 0.000308193892368793 0.000224070215481533 2.50292905898191e-07 0.000145382775083983 0.00220166208798304 0.00234352412626445 -0.000400429716726193 -0.00278797678010166 0.00068682963694082 0.00175751683166812 8.20143271684592e-05 0.00167773765348275
"287" -8.66979391385522e-05 -1.17323789406718e-05 4.67875025883682e-05 -2.02391475025061e-05 0.000304905007487564 0.000220717662262249 -7.45814507921831e-06 0.000143726009357116 0.00207613192796781 0.00210835667308114 -0.000407207322809627 -0.00290096945258614 0.000664369681414311 0.00181098496350661 0.000201807281658945 0.00159384766436555
"288" -9.41331524662782e-05 -1.07912496064295e-05 4.32026786247532e-05 -2.42229135626935e-05 0.000302117133261841 0.000218073476448224 -1.47526253039125e-05 0.000142734181111038 0.00193954668668466 0.00184197132714404 -0.000413065434077284 -0.00299480232610468 0.000636279291543236 0.00185262708972089 0.000313892624960688 0.00149541291687821
"289" -0.000101239642945747 -9.55274982635146e-06 4.00382104754272e-05 -2.75009013915572e-05 0.000299831889760425 0.000216089614607248 -2.16114471219507e-05 0.000142335477297134 0.00179362919766586 0.00154744347654279 -0.000418068028362522 -0.00306949547981754 0.000602895038549583 0.00188186527825775 0.000417520349405688 0.00138307945291353
"290" -0.000107981801613024 -8.08309427777831e-06 3.72729306453441e-05 -3.00595135087349e-05 0.000298037990972803 0.000214713348202193 -2.80203180416222e-05 0.000142448859407926 0.00164018750651765 0.0012280368879229 -0.0004222741230918 -0.003125188489444 0.00056463148025799 0.00189823094312463 0.000512067030599797 0.00125766652937732
"291" -0.000114326460579251 -6.44683428551289e-06 3.48712236607326e-05 -3.18948812125474e-05 0.000296725540665963 0.000213891866861794 -3.39617173554476e-05 0.00014298636570167 0.00148108891419983 0.00088715552226335 -0.000425751738110902 -0.00316212399255824 0.000521964307060376 0.0019013705271071 0.000597053322362054 0.00112015050774382
"292" -0.000120248071053707 -4.71416836832276e-06 3.27973998760431e-05 -3.30161307852766e-05 0.000295877333570887 0.000213561925121269 -3.94249956710171e-05 0.00014384839538714 0.0013182471027005 0.000528298742311635 -0.00042855936117034 -0.0031806573244238 0.000475423931761968 0.0018910400032196 0.000672142386584341 0.000971657691271988
"293" -0.000125712217289079 -2.95754021135065e-06 3.10093965407661e-05 -3.34269653729127e-05 0.000295466424118722 0.000213657563297798 -4.44077845426182e-05 0.000144934627481296 0.00115356652800311 0.00015501381085428 -0.000430759571884093 -0.00318122987763542 0.00042559851564146 0.00186712279833585 0.000737137158407419 0.000813446345174252
"294" -0.000130701640236642 -1.25230208409857e-06 2.94607609714268e-05 -3.31415083646964e-05 0.000295463901881761 0.000214108029705053 -4.89097098536058e-05 0.000146133171577325 0.000988929206515819 -0.000229146740000042 -0.000432408516482019 -0.00316437557658536 0.000373121266220786 0.00182960856809303 0.000791998644145694 0.000646871331651104
"295" -0.000135185138393826 3.32553037829195e-07 2.81062793801361e-05 -3.21796008771362e-05 0.000295834057270115 0.000214842698657866 -5.2935359343352e-05 0.000147333328406582 0.000826175409620272 -0.000620666484713639 -0.000433563022542025 -0.00313072196172561 0.000318657214144412 0.0017786166098508 0.00083681663855756 0.000473390212655167
"296" -0.000139142342818378 1.72129554816768e-06 2.68921403395913e-05 -3.05667647195462e-05 0.000296540678046785 0.000215785181333583 -5.64919267794164e-05 0.000148422396936867 0.000667069337801143 -0.00101609435949241 -0.000434269823497207 -0.00308095753588932 0.000262911934051958 0.00171438386759261 0.0008718285444926 0.000294513827693614
"297" -0.00014255692623848 2.84571149153904e-06 2.57628063501997e-05 -2.83284143559313e-05 0.000297542600478105 0.000216863468873018 -5.95878748345091e-05 0.000149285504668404 0.000513275500894318 -0.0014120744063713 -0.000434583971701908 -0.00301586142438705 0.000206604480687092 0.00163725298870183 0.000897398860223987 0.00011180613800452
"298" -0.00014541999870206 3.62987944199708e-06 2.46668819258688e-05 -2.55007903866873e-05 0.000298789560971847 0.000217999717849965 -6.22488819730113e-05 0.000149802080831131 0.000366375038072229 -0.00180538744521457 -0.000434536576513451 -0.00293626910764453 0.000150458314648482 0.00154769354844126 0.000914019405015014 -7.31317524046837e-05
"299" -0.000147711206881372 4.01318488846382e-06 2.35444461014399e-05 -2.21197241744332e-05 0.00030023695522776 0.000219120170256388 -6.44937725351448e-05 0.000149866168689212 0.000227806732048351 -0.00219296363126618 -0.000434168418020354 -0.0028430771541228 9.52164266555349e-05 0.00144626911620654 0.00092229633377665 -0.000258700043889802
"300" -0.000149425268864918 3.92768016156958e-06 2.23411805736049e-05 -1.82238223278061e-05 0.000301829408420018 0.000220151012687399 -6.63448619018851e-05 0.000149362620071616 9.88948392348088e-05 -0.00257190132055892 -0.00043350860612323 -0.00273723896613353 4.16019307019208e-05 0.00133365321739804 0.000922926607190917 -0.000443299568576921
"301" -0.000150557162204276 3.31798918024647e-06 2.10015242997177e-05 -1.38584697190399e-05 0.000303518381477742 0.00022101987770392 -6.78381030856897e-05 0.000148188599581853 -1.91742826016761e-05 -0.00293949516021522 -0.000432580075040612 -0.00261975648988113 -9.6698798677497e-06 0.00121061937351189 0.000916704399701352 -0.000625355939583694
"302" -0.000151108919819611 2.12696739228424e-06 1.94663362156561e-05 -9.0710944513355e-06 0.000305249540322527 0.000221658055086185 -6.90020753529476e-05 0.000146242952653606 -0.000125351253640749 -0.00329325058037669 -0.000431394998053633 -0.00249167915239751 -5.79067830923792e-05 0.00107802327657146 0.000904486264822677 -0.000803330910736314
"303" -0.000151086051054444 3.05735086183789e-07 1.7690113721744e-05 -3.90669440775433e-06 0.000306964381219747 0.00022200114569033 -6.98737245120163e-05 0.00014343859821958 -0.000218738250148659 -0.00363089569156882 -0.000429973340902357 -0.00235409187643428 -0.000102432537573042 0.00093680090204181 0.000887184961560549 -0.000975739636026539
"304" -0.000150489786570015 -2.18481635322352e-06 1.56169898292291e-05 1.58032783835185e-06 0.000308610099520728 0.000221987491551706 -7.04925835963046e-05 0.000139687349856743 -0.000298573171028003 -0.00395039216551958 -0.000428321212460643 -0.00220811127508811 -0.000142608947855065 0.000787960311780797 0.000865751202263364 -0.00114115873433086
"305" -0.000149334381781814 -5.38310688803033e-06 1.31992099903684e-05 7.34262205034703e-06 0.00031013394432002 0.00022155998326479 -7.09006109479486e-05 0.000134917232707949 -0.000364228231076499 -0.0042499557372548 -0.000426434566464587 -0.00205487447241766 -0.000177834697930343 0.000632574120730367 0.00084117409078439 -0.00129823746563694
"306" -0.000147636524396612 -9.31711831968145e-06 1.03938311277056e-05 1.33247123279479e-05 0.000311484340174151 0.00022066540588847 -7.11414674763583e-05 0.000129067049490927 -0.000415219650285753 -0.00452805945976613 -0.000424306849195 -0.00189553478900321 -0.000207546890261468 0.000471759844351494 0.000814446873213629 -0.00144570906353525
"307" -0.000145412956237449 -1.40038972564492e-05 7.16334311517752e-06 1.94783646224716e-05 0.000312607494435315 0.00021926012570918 -7.12555666402074e-05 0.000122083141147473 -0.000451196841531725 -0.00478342463324916 -0.000421933264876214 -0.00173124929852919 -0.000231220200918251 0.000306684473807855 0.000786556076574975 -0.00158239062903953
"308" -0.000142687040816841 -1.94613500559917e-05 3.47319398770382e-06 2.57483595461999e-05 0.000313459876958627 0.000217305566998738 -7.12921613420129e-05 0.000113929161251928 -0.000471949569559862 -0.00501504471837682 -0.000419296646668113 -0.0015631718194834 -0.000248389798108573 0.000138533421837148 0.000758472314362706 -0.00170720599031688
"309" -0.000139487786168467 -2.56929802617906e-05 -7.10331033154162e-07 3.2087494257685e-05 0.000313993546151925 0.000214766378958968 -7.1296199439495e-05 0.000104580300735511 -0.000477378840955742 -0.00522217044194683 -0.000416378797930685 -0.00139244460461996 -0.000258629872147239 -3.14866426118875e-05 0.000731125427713113 -0.00181917458192849
"310" -0.000135839015228219 -3.26897711098824e-05 -5.40830784075733e-06 3.84455560301556e-05 0.000314171861143293 0.000211620423233519 -7.13104754894367e-05 9.4025983611235e-05 -0.000467528163850663 -0.00540431258989944 -0.000413160018053776 -0.00122018710710401 -0.000261571555490045 -0.000202160985472637 0.000705402256734498 -0.00191743262892173
"311" -0.000131784004606838 -4.04482106465118e-05 -1.06392946738458e-05 4.47697154645263e-05 0.000313951186661454 0.000207839484062366 -7.13836338355358e-05 8.22585971582646e-05 -0.000442542299959181 -0.00556122856184525 -0.000409610462704131 -0.00104748719889037 -0.000256904031357959 -0.000372283449865654 0.000682126379802677 -0.00200122565422633
"312" -0.000127351571628262 -4.89405669263824e-05 -1.64146393545127e-05 5.10217833926365e-05 0.000313304410115826 0.000203421299641161 -7.15571467772423e-05 6.93066494038662e-05 -0.00040271247651159 -0.00569292900652466 -0.000405715462351601 -0.000875396379335821 -0.000244353381185899 -0.000540670310139852 0.00066205261570613 -0.00206992344231243
"313" -0.000122588297950868 -5.81463287267586e-05 -2.27428737044373e-05 5.71505333479124e-05 0.000312200014761577 0.000198350757070289 -7.18747228782235e-05 5.5187471513788e-05 -0.000348416977114057 -0.00579964572333917 -0.000401431716189511 -0.000704905235649394 -0.000223730176114777 -0.00070615254905308 0.000645854483859827 -0.0021230066041963
"314" -0.000117528851236277 -6.80216289446706e-05 -2.96191742084514e-05 6.31216738371862e-05 0.000310617693563049 0.000192639620618616 -7.23767983320763e-05 3.99547032423647e-05 -0.000280171008950394 -0.00588184227499678 -0.000396741477934404 -0.000536949647771021 -0.000194875624592591 -0.000867610914936982 0.000634111211611745 -0.00216009193489191
"315" -0.000112220623244394 -7.85217936623735e-05 -3.70368212886393e-05 6.88994516598307e-05 0.000308545746491127 0.000186292780892975 -7.30942507087124e-05 2.36608999062621e-05 -0.000198586466400303 -0.00594016871836696 -0.000391618363311717 -0.000372391514219367 -0.000157696219560979 -0.00102397204646401 0.000627311708832393 -0.00218091588800944
"316" -0.000106710090058419 -8.9604334752802e-05 -4.49841432861913e-05 7.44434332542901e-05 0.000305967647049971 0.000179324852170606 -7.4071324649765e-05 6.3755780072553e-06 -0.000104398499476883 -0.00597546469753481 -0.000386028588562708 -0.000212014365591203 -0.00011215867975003 -0.00117421799516235 0.000625832470072235 -0.00218533920285056
"317" -0.00010105085520339 -0.000101204630597731 -5.34360855278275e-05 7.9726749299837e-05 0.000302879111336645 0.000171761217466941 -7.5335720997248e-05 -1.18188542429326e-05 1.56348089633912e-06 -0.00598873732132209 -0.000379944485197275 -5.65197892161465e-05 -5.82793186332321e-05 -0.00131739836391024 0.000629944690162638 -0.00217335213064291
"318" -9.5284226296581e-05 -0.000113258019234002 -6.23668519314348e-05 8.47239262207589e-05 0.000299287459604573 0.000163627260299303 -7.69089680735176e-05 -3.08272714448074e-05 0.000118346834918177 -0.0059811355312841 -0.000373350162392497 9.34822438297106e-05 3.86879597566032e-06 -0.00145264214048482 0.000639803067929307 -0.00214507292408352
"319" -8.94658156405678e-05 -0.000125696588694311 -7.17433507809671e-05 8.94127017449066e-05 0.000295196949204267 0.000154962341559686 -7.88231110862443e-05 -5.05484805160548e-05 0.000244895706173041 -0.0059539395411185 -0.000366225251414047 0.000237473232335263 7.41598155315805e-05 -0.00157915439200794 0.000655439567581182 -0.00210074425439231
"320" -8.3642228604433e-05 -0.000138443961431107 -8.15259401832302e-05 9.3775119736303e-05 0.000290624654764747 0.000145805270560911 -8.10878357620727e-05 -7.08627520114487e-05 0.000380051903444903 -0.00590852589441871 -0.000358551889119306 0.000375030777410397 0.000152418758145696 -0.00169622648283432 0.00067677249623229 -0.00204073322956098
"321" -7.78672811300114e-05 -0.000151426360508716 -9.1672071809204e-05 9.7792960097579e-05 0.000285587659096355 0.000136200090662132 -8.37221453539719e-05 -9.16526169457415e-05 0.000522563067048784 -0.00584635945108825 -0.000350316519976429 0.000505832481057936 0.000238405877925365 -0.00180324148866676 0.000703609576636684 -0.00196553199115613
"322" -7.21903843981721e-05 -0.000164554412616387 -0.000102125642618572 0.000101461534940216 0.000280118171937958 0.00012619882042698 -8.67352794468577e-05 -0.000112788057347078 0.00067105279922796 -0.00576896716749915 -0.000341520743667946 0.000629642178974417 0.000331853811406541 -0.00189968192552433 0.000735640731706449 -0.00187575002214888
"323" -6.66560027249548e-05 -0.00017774433041497 -0.0001128381851001 0.00010477134780319 0.000274245425289287 0.000115855705972964 -9.01265487107079e-05 -0.000134131863020579 0.000824083076450724 -0.00567791946624586 -0.000332159407847075 0.000746317324330189 0.000432417342180775 -0.00198511805542828 0.000772442707259543 -0.00177211377269281
"324" -6.13218276329213e-05 -0.000190913104563842 -0.000123750768705724 0.000107720094164668 0.000268007344437787 0.000105228784336661 -9.3897423089729e-05 -0.000155544312482592 0.000980105186442419 -0.00557481308579559 -0.000322239620483788 0.000855800650876403 0.000539714737676009 -0.00205922386621962 0.000813488978374207 -0.00165545980154108
"325" -5.62280444456387e-05 -0.000203972207450715 -0.000134800140591694 0.000110309784452306 0.000261448739213469 9.43737588169721e-05 -9.80422378408238e-05 -0.000176882413297709 0.00113750722742134 -0.00546125497292373 -0.000311772687767706 0.000958108782535824 0.000653311659144687 -0.00212177255688076 0.000858160507921605 -0.00152673421291676
"326" -5.14234187910104e-05 -0.000216830046648623 -0.000145922742012404 0.000112546455432889 0.000254615165139364 8.3356588843289e-05 -0.000102548446090224 -0.000198002033725774 0.00129459260305005 -0.00533884116516388 -0.000300784791708006 0.00105333247957667 0.000772730631738136 -0.00217263268301783 0.000905742546422472 -0.00138698498669284
"327" -4.69481075666607e-05 -0.00022940215492735 -0.000157051992573889 0.000114434093847447 0.000247559451171873 7.22383009131704e-05 -0.000107401739845251 -0.0002187533200183 0.00144962852351197 -0.00520913771713338 -0.000289296852221819 0.00114161872644116 0.000897437942641253 -0.00221176803960037 0.000955449766249306 -0.00123735941890528
"328" -4.28413482166745e-05 -0.000241601409207773 -0.000168121077539138 0.000115988464925574 0.000240333664291963 6.10798784075813e-05 -0.000112577194980311 -0.000238999800706375 0.00160081465862762 -0.00507368109648234 -0.000277347993607854 0.00122316555291759 0.00102686365633712 -0.00223923945782054 0.00100642295140986 -0.00107909364624522
"329" -3.91479088239713e-05 -0.000253348712957115 -0.000179060097203872 0.00011721651720586 0.000233000387274501 4.99476918694768e-05 -0.000118054718119379 -0.000258595466027426 0.00174635591443015 -0.00493394789965911 -0.000264972738892649 0.00129821499552248 0.00116038520769903 -0.00225518665746434 0.00105774817622942 -0.000913502765716571
"330" -3.58958894317059e-05 -0.000264562218645749 -0.000189804659955468 0.000118141145377631 0.00022561889541081 3.88989454496317e-05 -0.000123800257435951 -0.000277403494635909 0.00188443206814707 -0.0047913525779146 -0.000252221408449272 0.00136704003025351 0.00129734302977423 -0.00225984859672036 0.00110847702454754 -0.000741972407501197
"331" -3.31194229813297e-05 -0.000275163844633992 -0.000200286113335384 0.000118771228661732 0.000218246177467846 2.79955414592066e-05 -0.000129782175404248 -0.000295291747858495 0.00201324407619952 -0.0046472340548004 -0.000239150154293938 0.00142992955381369 0.0014370407539326 -0.00225353307976031 0.0011576359243887 -0.000565953363881264
"332" -3.08496357211113e-05 -0.000285089891112019 -0.000210439732954876 0.000119132017462784 0.000210946935620979 1.72935019190866e-05 -0.000135963038997803 -0.00031213898621186 0.00213104050229252 -0.00450284136531206 -0.000225814682898159 0.00148718974860613 0.0015787405890213 -0.0022366311101078 0.00120422620470505 -0.000386941841708093
"333" -2.91091216741251e-05 -0.000294270299522341 -0.000220202572818842 0.00011923735296279 0.000203782964574808 6.8468020015061e-06 -0.00014230313923717 -0.000327824298171712 0.00223613707456026 -0.00435932982246463 -0.000212281084032668 0.00153912595771923 0.00172167362870147 -0.00220960136483706 0.00124726364321199 -0.000206484142003053
"334" -2.79251742670273e-05 -0.000302649467044155 -0.000229518157049987 0.000119110639160016 0.000196813410827779 -3.29694595946315e-06 -0.000148766177748678 -0.000342242149477934 0.0023269459026297 -0.00421773210158016 -0.000198612906675428 0.00158604076557021 0.00186503524678889 -0.00217296046701766 0.00128577144074687 -2.61486297192999e-05
"335" -2.73142709125181e-05 -0.00031017795673382 -0.000238332115876895 0.000118770121109028 0.000190100035467014 -1.30914157930161e-05 -0.000155305059368039 -0.000355296880369647 0.00240200005427521 -0.00407898727540011 -0.000184888870203548 0.00162821991224984 0.00200799978104833 -0.00212729194434204 0.00131881791112577 0.000152487198305965
"336" -2.72856892781677e-05 -0.000316805344991276 -0.000246588536065161 0.000118240805536077 0.000183699978490431 -2.2494387313758e-05 -0.000161871444643002 -0.000366898434281092 0.0024599917061433 -0.00394390855639111 -0.000171180744350752 0.00166592200167581 0.00214972486421243 -0.00207322282912303 0.00134551367686179 0.000327837407484131
"337" -2.78622605968291e-05 -0.00032250339114559 -0.000254251016153683 0.000117535963741091 0.000177665833727692 -3.14769446916557e-05 -0.00016842767702858 -0.000376978377095083 0.00249979405410057 -0.00381317191695988 -0.00015755584458681 0.00169937309057479 0.00228933045309206 -0.00201142911446586 0.00136502956578454 0.000498342723313052
"338" -2.90462986539429e-05 -0.000327239560943184 -0.000261272054715319 0.000116672465263642 0.000172044846307994 -4.00077969823707e-05 -0.000174922581913693 -0.000385476284821081 0.00252047510110719 -0.00368733604156194 -0.00014409662722266 0.00172876521104502 0.00242594066199879 -0.00194262340044004 0.00137661061660224 0.000662469255207163
"339" -3.08471867697805e-05 -0.00033099650080779 -0.000267622312367438 0.00011567574870319 0.000166891312671115 -4.80622610601143e-05 -0.000181311440933268 -0.000392339358220591 0.00252132367259614 -0.00356682653515579 -0.000130874533754095 0.00175425351995079 0.00255868042605907 -0.00186754897367852 0.00137959608331181 0.000818733409612244
"340" -3.326267275827e-05 -0.0003337611841028 -0.000273273470858992 0.00011455483965329 0.000162237873508603 -5.56270573525531e-05 -0.000187552494140753 -0.000397538427811408 0.00250187218086231 -0.0034519400821714 -0.000117966214664088 0.0017759491889917 0.0026866563829073 -0.0017869762827849 0.0013734167127864 0.000965717948560144
"341" -3.62919006697194e-05 -0.000335537130293577 -0.000278205499593209 0.000113327731538321 0.000158127336107461 -6.26917165779255e-05 -0.000193604165794049 -0.000401054856759755 0.00246191265671701 -0.00334283567459102 -0.000105436886359274 0.00179392590506503 0.00280899543958941 -0.0017016916509363 0.00135762071024408 0.00110208441132175
"342" -3.99335324320435e-05 -0.000336330996793967 -0.000282404699465738 0.000112002686625946 0.000154583859215648 -6.92534542757877e-05 -0.000199424769888581 -0.0004028838608602 0.0024014778429547 -0.00323955302647659 -9.33600739127924e-05 0.00180820798067772 0.00292483137571072 -0.00161249716748654 0.00133187387479104 0.00122658911999968
"343" -4.41726399993912e-05 -0.000336153337477575 -0.000285863423186851 0.000110596313157843 0.000151638332000001 -7.5314152159569e-05 -0.000204973224663598 -0.00040303697060746 0.00232088071682387 -0.00314200251863737 -8.17924546169157e-05 0.00181878388389052 0.00303333287162105 -0.00152019714632179 0.00129596709398326 0.00133810658449124
"344" -4.9005872489243e-05 -0.00033503434307772 -0.000288581930130572 0.000109111201769549 0.000149305181472589 -8.08857325832337e-05 -0.000210220867947921 -0.000401538415711103 0.00222067585514938 -0.00304997967541186 -7.07966250496783e-05 0.00182559298710515 0.00313368333268329 -0.00142560492462647 0.00124981933556876 0.00143562858252055
"345" -5.44162261654197e-05 -0.000333004899677471 -0.000290571428253865 0.000107556047469082 0.000147596285907617 -8.5985092502677e-05 -0.000215131017837043 -0.000398431019350732 0.00210168078924856 -0.00296316431365513 -6.04193005526641e-05 0.00182853971031033 0.00322512375523618 -0.00132952494101338 0.00119347622041979 0.00151828992874697
"346" -6.03830090315851e-05 -0.000330106566522046 -0.000291839285635925 0.000105933475206201 0.000146520417894621 -9.0630740774786e-05 -0.000219677392060862 -0.000393761682334579 0.00196491273693557 -0.00288114474403685 -5.07174198665102e-05 0.00182749239686358 0.00330693651982041 -0.00123275063382706 0.00112712296389485 0.00158537666954849
"347" -6.68872404027483e-05 -0.0003263904952785 -0.000292410023485716 0.000104245220602988 0.000146071448657664 -9.48491306508181e-05 -0.000223834600958958 -0.000387603887650435 0.0018116295968055 -0.00280342405506462 -4.17251292974908e-05 0.00182228736865015 0.00337846851124376 -0.00113606288084995 0.00105107056419659 0.00163634460178691
"348" -7.39073544300856e-05 -0.00032190733852438 -0.000292307113265806 0.000102491908952648 0.00014624727604678 -9.86737607477164e-05 -0.000227584023893955 -0.000380032977090536 0.0016432645288382 -0.00272941963046432 -3.34806418093373e-05 0.00181273853158539 0.00343913850001117 -0.00104021761313683 0.000965768475245957 0.00167081150850856
"349" -8.14180213430012e-05 -0.000316728267640582 -0.000291568576168723 0.000100668314044542 0.000147027963266519 -0.000102142671426531 -0.000230913472805537 -0.000371145769892886 0.00146139840164349 -0.00265849141159598 -2.6009607429648e-05 0.00179863931772894 0.00348843820434651 -0.000945945198854106 0.000871779623885201 0.00168857948239271
"350" -8.93801538219904e-05 -0.000310911181910329 -0.000290221311819422 9.8778044447669e-05 0.000148403601409642 -0.000105287825582913 -0.000233798483774362 -0.000361036969595565 0.00126775181098785 -0.00258996077680014 -1.93367739487954e-05 0.00177976977660178 0.00352594639370422 -0.000853952172535647 0.00076979444015139 0.00168963165998307
