"V1" "V2" "V4" "V5" "V7" "V8" "V10" "V11" "V13" "V14" "V15" "V17" "V18" "V20" "V21" "V23"
"1" 8.5959883719673e-06 8.39980644254634e-06 7.32853961071518e-06 1.21248977423657e-05 -5.51768980401e-06 -4.30718422288217e-06 1.65180618278706e-06 2.8697354991141e-06 1.12804953728441e-05 1.01881416712069e-07 5.73445162912992e-06 -9.65357737715629e-06 1.5171924728587e-06 6.31978176140221e-06 -7.168054796559e-07 -8.69510776782193e-06
"2" 7.54086221134099e-06 -1.07222634763225e-05 2.77845201405551e-06 -1.61932784538012e-05 -1.71742597092313e-05 -1.99830685530012e-05 4.90118330064543e-06 4.25885724251879e-06 1.02431104115988e-05 1.40041743551418e-05 -1.03759125529745e-05 -4.74985139004554e-05 -2.9112807293518e-05 -2.23288673338459e-05 -2.38769611338622e-05 -1.85894943779301e-05
"3" 6.56416094898821e-06 -2.97445071790846e-05 -1.73373151703898e-06 -4.43550669661781e-05 -2.87663722503075e-05 -3.55933477289265e-05 8.17677808465719e-06 5.67967315969772e-06 9.09621306320239e-06 2.76943797412024e-05 -2.64483520389775e-05 -8.50779826373876e-05 -5.95838940117392e-05 -5.08747388322854e-05 -4.69567201345484e-05 -2.85073447512151e-05
"4" 5.74094699195646e-06 -4.86026012537072e-05 -6.16955908435143e-06 -7.22532738015711e-05 -4.02475272162255e-05 -5.11007270303715e-05 1.15004156129307e-05 7.15332464963445e-06 7.7446827968772e-06 4.10441451034894e-05 -4.24651368896781e-05 -0.000122232003382773 -8.97945192783931e-05 -7.92790299872975e-05 -6.9917662828126e-05 -3.84831410003801e-05
"5" 5.14327076240203e-06 -6.72277927537452e-05 -1.04963711187517e-05 -9.97771593075276e-05 -5.15586512910788e-05 -6.64619953313113e-05 1.48933079707909e-05 8.69395570003146e-06 6.09037535923216e-06 5.39315274919433e-05 -5.84174574288298e-05 -0.000158805278946302 -0.000119647154204792 -0.000107490661904972 -9.27251925129492e-05 -4.85535727519768e-05
"6" 4.84099246101631e-06 -8.55533468102472e-05 -1.46740065881566e-05 -0.000126824606980223 -6.26601845658009e-05 -8.16439068332216e-05 1.83758320632274e-05 1.03212403342966e-05 4.04931153017875e-06 6.62353999843847e-05 -7.42841218797156e-05 -0.000194647465392108 -0.000149045763679139 -0.000135462165456281 -0.000115341496082358 -5.87432406552205e-05
"7" 4.9079163235715e-06 -0.000103518551136149 -1.86632641715813e-05 -0.000153292145108134 -7.35001394840512e-05 -9.6606011933497e-05 2.19674047741324e-05 1.20502058666845e-05 1.5329882651626e-06 7.78483587713485e-05 -9.00570626757169e-05 -0.000229613075566062 -0.000177895301814442 -0.000163150923221012 -0.000137733159111732 -6.90874186190369e-05
"8" 5.40573207513822e-06 -0.000121061448380941 -2.24315397494998e-05 -0.000179085407076772 -8.40318938336093e-05 -0.000111315658480503 2.56828109330271e-05 1.3892934010512e-05 -1.54019382214489e-06 8.86649587762015e-05 -0.000105719588089492 -0.000263567268442672 -0.000206112445176904 -0.000190508278279178 -0.000159868077838743 -7.96096372247979e-05
"9" 6.39383627197079e-06 -0.000138123322933078 -2.59415683765112e-05 -0.000204111358819901 -9.42134682177362e-05 -0.000125735501051015 2.9539111679148e-05 1.58635178674688e-05 -5.2496969161353e-06 9.85894379957978e-05 -0.000121256693870578 -0.00029638259155392 -0.000233614569740624 -0.00021749846406746 -0.000181713765474848 -9.033307110347e-05
"10" 7.92994613842064e-06 -0.000154649993821508 -2.91608674521027e-05 -0.000228281711071686 -0.000104001466941515 -0.000139831780174322 3.35525443782457e-05 1.79735484744531e-05 -9.65575478535019e-06 0.000107536813965961 -0.000136658347484265 -0.000327942057096379 -0.000260323783636589 -0.00024408058479818 -0.000203243137522379 -0.000101273698253394
"11" 1.00622346957719e-05 -0.000170593806159677 -3.20579286121503e-05 -0.000251519188004777 -0.000113357876495711 -0.000153570472474384 3.77345422350606e-05 2.02325466664561e-05 -1.4826065677423e-05 0.000115426455527474 -0.000151909146705952 -0.000358131930007413 -0.000286169400476583 -0.000270215166570892 -0.000224427639719707 -0.000112448740628398
"12" 1.28345015711987e-05 -0.000185904369973987 -3.45977027304462e-05 -0.00027374789760832 -0.000122245601449882 -0.000166924035309331 4.20970801177165e-05 2.26473197724749e-05 -2.08084293412491e-05 0.000122196855481971 -0.00016699201925354 -0.000386860281778483 -0.00031108673166961 -0.000295864515786251 -0.000245240054833075 -0.000123864801446943
"13" 1.62847634533008e-05 -0.000200540740076854 -3.67591798205245e-05 -0.000294905963216749 -0.000130631244743889 -0.000179859290406078 4.66428247275267e-05 2.52219882345348e-05 -2.76548687468737e-05 0.000127792923991803 -0.000181898050665183 -0.000414040355378491 -0.000335024972368652 -0.0003210028630527 -0.000265659380007087 -0.000135526498562008
"14" 2.04414289822038e-05 -0.000214465122751194 -3.85076310457289e-05 -0.000314929929572946 -0.000138482290556895 -0.000192348850681613 5.13789618666066e-05 2.79618593069015e-05 -3.53945006842287e-05 0.00013216661987457 -0.000196608826579665 -0.000439597851813251 -0.000357930293416357 -0.000345596268687896 -0.000285662267755136 -0.000147435454277592
"15" 2.53304361492054e-05 -0.00022764329409513 -3.982342071977e-05 -0.000333776215027619 -0.000145776329271308 -0.000204368453384562 5.63094998715283e-05 3.08639953505902e-05 -4.40571775316959e-05 0.000135295425171064 -0.000211115010686194 -0.000463473388274857 -0.00037976686674077 -0.000369620089530781 -0.000305234068266298 -0.000159581950213858
"16" 3.09659603818366e-05 -0.00024004954073822 -4.06836963839653e-05 -0.000351396482949664 -0.000152485837871143 -0.000215893939675594 6.1433121932865e-05 3.39308097616232e-05 -5.36583257791053e-05 0.000137149780026363 -0.00022540240323163 -0.000485619523192228 -0.00040049407254361 -0.000393048187316082 -0.000324353244780807 -0.00017195655776938
"17" 3.73541794976305e-05 -0.00025165708888407 -4.10687931786753e-05 -0.000367761044115972 -0.00015859051952579 -0.000226899720600483 6.67434520761564e-05 3.71548099830728e-05 -6.42070596171167e-05 0.000137736319810311 -0.000239455803259505 -0.000505999137431791 -0.00042009371765498 -0.000415861799451283 -0.000343011055701641 -0.00018454231444995
"18" 4.44995251175104e-05 -0.000262448585634419 -4.09569764510013e-05 -0.000382840390165169 -0.000164075926190909 -0.000237367273619299 7.22410896069612e-05 4.05335250473237e-05 -7.57049520916813e-05 0.000137042305529366 -0.000253263581785648 -0.000524590312067344 -0.000438546363483155 -0.00043804636558954 -0.000361192888962466 -0.000197316347456972
"19" 5.23874625346422e-05 -0.000272408228279402 -4.03383233718461e-05 -0.000396620702138962 -0.000168930170598678 -0.000247279550917631 7.79112960584356e-05 4.40539033286071e-05 -8.8130900727101e-05 0.000135100474372574 -0.000266810628405059 -0.000541386368636291 -0.00045584448223536 -0.000459584723809149 -0.000378890817962128 -0.000210249401643772
"20" 6.10100072302579e-05 -0.000281530441927079 -3.91997884168201e-05 -0.000409089313622998 -0.000173139239990892 -0.000256621212373777 8.37503889197458e-05 4.7708375343225e-05 -0.000101473159527232 0.000131921570817838 -0.000280087197109125 -0.00055638776147505 -0.000471981711745465 -0.000480464101817986 -0.000396096413119659 -0.000223310015159778
"21" 7.03386541235913e-05 -0.000289810087169126 -3.75296064779247e-05 -0.000420248310007679 -0.000176704343511925 -0.000265377316243028 8.97381550959368e-05 5.14830388745157e-05 -0.000115700587084776 0.000127560357828171 -0.000293077556120473 -0.000569612191937842 -0.000486970808676986 -0.000500679833703548 -0.000412808087091631 -0.00023646283136222
"22" 8.03460296016966e-05 -0.000297246499573042 -3.53225466688273e-05 -0.000430104258359562 -0.000179621672495489 -0.000273535129105895 9.58595067270721e-05 5.53643642098483e-05 -0.000130773648750158 0.000122049012326303 -0.00030577017270756 -0.000581086349628855 -0.000500819370868353 -0.000520224227605927 -0.000429019106146186 -0.0002496604460543
"23" 9.09912380178611e-05 -0.000303847303222276 -3.25808297699025e-05 -0.000438673706392206 -0.000181894485246781 -0.000281089263434059 0.000102094867107749 5.93348449228215e-05 -0.000146648906730342 0.000115463243075437 -0.000318152707805122 -0.000590852794465869 -0.000513555006698221 -0.000539099722152961 -0.000444733260868767 -0.000262863887666367
"24" 0.000102235329134865 -0.00030961979901158 -2.92916803211384e-05 -0.000445974409216719 -0.00018352685142077 -0.000288031552398764 0.000108426796296667 6.33777193036077e-05 -0.000163267263626007 0.00010785555605193 -0.000330215428316062 -0.000598958321475358 -0.000525200279486161 -0.000557302178852329 -0.000459948288138164 -0.000276016357608121
"25" 0.00011402172964444 -0.000314583200711429 -2.54715511611088e-05 -0.000452043677783053 -0.000184530928285277 -0.000294360507904804 0.000114828727709608 6.74696272742057e-05 -0.000180575808445493 9.93136551344436e-05 -0.000341946263234934 -0.00060546686035594 -0.000535791272723763 -0.000574840284019517 -0.000474672637384459 -0.000289072934868968
"26" 0.000126294719772503 -0.000318750227165592 -2.11165982144618e-05 -0.000456909328311515 -0.000184921798215126 -0.000300074479326621 0.000121279293885996 7.1594565997964e-05 -0.000198501969236789 8.9915553239619e-05 -0.000353332954792435 -0.000610446134708521 -0.000545367163205007 -0.00059171271042134 -0.000488906867854568 -0.000301971373238844
"27" 0.000138994234714434 -0.000322151576153066 -1.62368090517858e-05 -0.000460622608509755 -0.000184712809810816 -0.000305173798235652 0.000127745371833719 7.57234711896938e-05 -0.000216982030178398 7.97568974176387e-05 -0.000364370924135449 -0.000613978788360951 -0.00055397443706726 -0.000607936794669204 -0.000502663789442102 -0.000314658419333165
"28" 0.000152051551746245 -0.000324805725663802 -1.0847341105998e-05 -0.000463225769947494 -0.000183929726371968 -0.000309662770712831 0.000134199899251886 7.98395234017823e-05 -0.000235934053998542 6.89305170210818e-05 -0.000375046508094012 -0.000616150565741239 -0.000561659495340919 -0.000623516831227456 -0.000515945515151452 -0.000327074859150559
"29" 0.000165393643316682 -0.000326743846857864 -4.95763373449481e-06 -0.000464771621483196 -0.00018259468038537 -0.000313548714719684 0.000140617097733782 8.39172391769602e-05 -0.00025527885601953 5.75343836368276e-05 -0.000385351830186693 -0.000617053805443508 -0.000568474555426381 -0.000638465115715852 -0.000528764643247674 -0.00033916230650838
"30" 0.000178947482437025 -0.000328001231626805 1.41544251351317e-06 -0.000465320054919254 -0.000180729918772036 -0.000316841983605487 0.000146965960058975 8.79294174179858e-05 -0.000274935072574189 4.56830640153897e-05 -0.000395282590196506 -0.000616792878254589 -0.000574483760122988 -0.000652801284437396 -0.000541133270948896 -0.000350861471699004
"31" 0.000192634262421921 -0.000328609519497283 8.24812394603634e-06 -0.000464935186121253 -0.000178371697798272 -0.000319552063414926 0.000153210689827897 9.18548937910635e-05 -0.000294819798075864 3.34744921121217e-05 -0.000404827826628021 -0.000615469549720135 -0.000579738925718364 -0.00066653202647972 -0.000553058708218224 -0.000362110199976825
"32" 0.000206371954111249 -0.000328609284192165 1.55163733387606e-05 -0.000463680089757778 -0.000175549581997783 -0.00032169407619232 0.000159319648477595 9.56672160560083e-05 -0.000314847183553267 2.1023275140663e-05 -0.000413985983226075 -0.000613195602075434 -0.000584306175858004 -0.00067968645254711 -0.000564558771580171 -0.000372856090508472
"33" 0.000220081033703834 -0.000328039782127705 2.32036606120275e-05 -0.000461622890407229 -0.000172297682187881 -0.000323283041500351 0.000165266067658616 9.93422850082705e-05 -0.000334932484253834 8.4374255333396e-06 -0.000422752904352854 -0.000610079753856651 -0.000588242716456863 -0.000692271370317956 -0.000575641790105085 -0.000383037992787157
"34" 0.000233675530910528 -0.000326938908121044 3.12795686958971e-05 -0.000458831488914505 -0.000168653192396368 -0.000324339516457309 0.000171010019918101 0.000102859218161998 -0.000354988836029538 -4.17548056174071e-06 -0.000431121448685707 -0.000606238811523142 -0.000591615762488011 -0.000704309207170578 -0.000586321785665274 -0.000392603726124651
"35" 0.000247072227261004 -0.000325351413492591 3.97096985788021e-05 -0.000455380495262344 -0.000164652961057028 -0.000324883153811919 0.000176525570472801 0.00010619133562143 -0.00037493344758093 -1.67064372309317e-05 -0.000439091989694387 -0.000601784042634599 -0.000594490187189893 -0.000715819248453897 -0.00059661099642539 -0.000401506109957821
"36" 0.000260192979335754 -0.000323318819006909 4.84681803455586e-05 -0.000451338694045403 -0.000160336473770632 -0.000324933247776718 0.000181778834002872 0.000109320612826821 -0.000394687198547461 -2.90537174974436e-05 -0.00044666268218546 -0.000596829222557169 -0.000596925831863265 -0.000726818970960513 -0.00060652249020479 -0.000409689902192232
"37" 0.000272953952255062 -0.000320884782809817 5.75188287567134e-05 -0.000446778997058296 -0.000155745974865954 -0.000324517891892818 0.000186740598868853 0.000112223360031085 -0.000414169764680684 -4.11167278376819e-05 -0.000453833076130185 -0.00059148630199107 -0.000598981173783758 -0.00073732744231842 -0.000616065036446273 -0.000417116134776435
"38" 0.000285276963861124 -0.000318094101702123 6.68298600546498e-05 -0.000441769809460281 -0.000150922037241721 -0.000323660014228263 0.000191380610491247 0.000114881971270993 -0.000433310586834385 -5.28014178152557e-05 -0.000460605887620055 -0.000585866076324101 -0.000600720560007676 -0.000747368113197741 -0.000625256311141441 -0.000423745894484407
"39" 0.000297084662774859 -0.000314987505645117 7.63595048933642e-05 -0.000436385069676314 -0.000145902769415056 -0.000322385727953166 0.000195671265774211 0.000117281612886659 -0.000452033162309906 -6.40186431117532e-05 -0.000466979380766638 -0.000580069046389611 -0.000602192705201825 -0.000756949376555488 -0.000634098003964957 -0.000429541053636718
"40" 0.000308309733004536 -0.000311606916281131 8.60764778893158e-05 -0.000430685540713767 -0.000140732711651546 -0.00032072383236024 0.00019959299613841 0.000119404201371042 -0.000470274744870035 -7.46954449840193e-05 -0.000472954169928769 -0.000574196003512069 -0.000603453999994828 -0.000766090937182051 -0.000642599123469867 -0.000434469933472812
"41" 0.000318881890342896 -0.000307995592486925 9.59398569429271e-05 -0.000424738525406792 -0.000135454416321382 -0.000318703811580788 0.000203116123588376 0.000121240724714492 -0.000487975267724241 -8.47547181539915e-05 -0.000478538869962605 -0.000568341279493452 -0.000604548116287135 -0.000774809488902736 -0.00065076811770918 -0.000438509405332732
"42" 0.00032873917829472 -0.0003041898944548 0.000105905780326862 -0.000418607023472572 -0.000130105013973169 -0.000316352240162263 0.000206218628817653 0.000122775799268779 -0.00050507881729467 -9.41350999528951e-05 -0.000483735346471196 -0.00056259356801802 -0.000605522927852238 -0.000783119846579352 -0.000658611519056221 -0.000441640236394741
"43" 0.000337821937706061 -0.000300232361403481 0.00011593891172459 -0.000412349980839275 -0.000124725532600826 -0.000313700466231657 0.000208885593869652 0.000124005000354652 -0.000521534727191698 -0.000102779458335961 -0.000488549227872978 -0.000557029047497049 -0.000606412717792098 -0.000791033176204501 -0.000666129318410734 -0.000443847637802755
"44" 0.000346080480443324 -0.000296156159818221 0.000125997355057477 -0.000406016013064938 -0.000119352354896539 -0.000310778374061159 0.00021110085167952 0.000124921804163043 -0.000537300141174339 -0.000110653106417453 -0.000492984340643426 -0.000551719975027707 -0.000607252308062305 -0.000798557805671129 -0.000673320727871069 -0.000445122922464037
"45" 0.000353470712048167 -0.000291994271516716 0.000136039097430542 -0.000399655573313747 -0.000114020585328831 -0.000307614012556022 0.000212849750182612 0.000125525308293618 -0.000552339723725793 -0.000117726698874278 -0.000497045758105711 -0.000546726540021701 -0.000608068861118755 -0.00080570206985693 -0.000680183401007854 -0.000445459195483616
"46" 0.000359948986041691 -0.000287779591012353 0.000146024831813152 -0.000393315743263942 -0.000108769884598866 -0.000304238810285452 0.000214121414086027 0.000125811144060604 -0.000566617413669938 -0.000123967829788899 -0.000500740560631705 -0.000542107992632849 -0.000608885814446852 -0.000812476457216759 -0.00068671835808438 -0.00044486534371117
"47" 0.000365490184331047 -0.000283537572651404 0.000155914495814564 -0.00038703103774005 -0.000103627089149547 -0.000300678302443861 0.000214907323321318 0.00012578660919538 -0.000580114922976579 -0.000129382043863384 -0.000504076097506174 -0.000537898520857399 -0.000609715662021387 -0.000818883318813669 -0.000692911821578428 -0.000443341708781175
"48" 0.00037006799388838 -0.000279298716716763 0.000165670138001036 -0.000380837683671219 -9.86253670534395e-05 -0.00029696234392951 0.000215208785359296 0.00012545506720895 -0.000592810663120254 -0.000133964351285791 -0.000507057048231036 -0.00053413804469703 -0.000610567778270112 -0.000824922083561007 -0.000698756450024195 -0.000440907042634384
"49" 0.000373664962818929 -0.000275079225186107 0.00017525190988141 -0.000374760345388417 -9.37859633503595e-05 -0.000293116769967787 0.000215023250719601 0.000124828285119484 -0.000604688747654563 -0.000137743428531717 -0.000509691299704851 -0.000530840650286261 -0.000611440886162365 -0.000830593051517597 -0.000704236776522815 -0.000437575489677243
"50" 0.000376272526122013 -0.000270903903514858 0.000184621522891202 -0.000368823914991157 -8.91397510191725e-05 -0.000289166921139238 0.000214347984097002 0.00012391274742121 -0.000615746691313205 -0.000140737803333633 -0.000511984278212355 -0.000528025390712286 -0.000612338479116737 -0.000835893973306979 -0.000709340483736332 -0.00043337155532425
"51" 0.000377890887503945 -0.000266786162722077 0.000193746998056669 -0.000363042085324885 -8.4701985624136e-05 -0.000285136279358573 0.000213196025223015 0.000122724077153548 -0.000625982912941787 -0.000142990309636825 -0.000513944133492551 -0.000525689632674196 -0.000613241924079505 -0.00084081950828474 -0.000714048551541867 -0.000428323352995722
"52" 0.00037852312968831 -0.000262740589345395 0.000202589805635166 -0.000357424474557196 -8.04933078164223e-05 -0.000281048931907526 0.000211570551347621 0.000121279340346753 -0.000635401011353965 -0.000144556494318804 -0.000515576371548772 -0.000523825428221535 -0.000614143455427607 -0.000845361453808381 -0.000718338094162981 -0.000422459870094894
"53" 0.000378182114528765 -0.000258775958915602 0.000211118512125856 -0.000351981473966174 -7.65267966547291e-05 -0.000276923719667286 0.000209481418239569 0.000119592713467333 -0.000644010320495376 -0.000145485650161298 -0.000516888281345657 -0.000522419641792608 -0.000615019342787921 -0.000849515529438932 -0.000722191232403381 -0.000415823586539691
"54" 0.000376888349630945 -0.000254902795045673 0.000219305021513895 -0.000346706192248658 -7.28124144393219e-05 -0.000272779759477216 0.000206946155477298 0.000117688592300374 -0.000651823000755404 -0.000145858896465938 -0.000517883785106889 -0.000521438040242307 -0.000615841583133002 -0.000853262648468735 -0.000725576252430532 -0.000408446152675389
"55" 0.000374669762184214 -0.000251122425754367 0.000227117520481388 -0.000341593230914648 -6.93599445440981e-05 -0.000268633679009187 0.000203982489883598 0.000115586228292845 -0.000658861675692722 -0.000145754589593067 -0.000518570455946854 -0.00052084422044101 -0.000616577206464722 -0.000856595133466666 -0.000728469264717104 -0.000400376555427706
"56" 0.000371561229328261 -0.000247432652560717 0.000234536201630736 -0.000336633197573525 -6.61721514197275e-05 -0.000264498718192916 0.000200610596243161 0.000113311445251955 -0.000665142649969539 -0.000145266383855415 -0.000518949576692548 -0.000520595685013913 -0.000617191540784054 -0.000859494284118612 -0.000730839244311839 -0.00039165425894649
"57" 0.000367601112447173 -0.000243838051144546 0.000241534574741633 -0.000331810366614992 -6.32513360324239e-05 -0.000260385972921902 0.000196846980477439 0.000110885348939018 -0.000670695240500234 -0.000144480480994198 -0.000519027568723201 -0.000520638462736997 -0.000617647840797587 -0.00086194325996194 -0.000732655326203784 -0.000382334048815299
"58" 0.000362834845804599 -0.000240331202823803 0.000248094624311614 -0.000327105510627829 -6.0591767625528e-05 -0.000256307571269943 0.000192722869990149 0.000108339694325174 -0.000675543015696285 -0.000143501726611418 -0.000518808931202588 -0.000520914224246779 -0.000617896579227134 -0.000863927009102036 -0.000733884641818326 -0.000372458248027186
"59" 0.000357312244820074 -0.000236907963881022 0.000254194466234263 -0.000322493850402443 -5.81914566306831e-05 -0.000252268108570373 0.000188253233937817 0.000105693840178253 -0.000679720740907334 -0.000142436916877894 -0.000518295737065276 -0.000521356940058426 -0.000617898031949325 -0.000865424398550548 -0.000734495838547168 -0.000362083360477617
"60" 0.000351086767249079 -0.00023355710462331 0.000259824371274079 -0.000317949055744142 -5.60409996996311e-05 -0.000248275346364608 0.000183471686839336 0.000102977558011054 -0.000683258532750157 -0.000141389884471246 -0.000517493458894048 -0.000521898524293765 -0.000617605727035766 -0.00086641873724003 -0.000734455648138614 -0.000351260703376659
"61" 0.000344216853127094 -0.00023027547664191 0.000264967200091027 -0.000313444934659191 -5.4130760223664e-05 -0.000244329114253324 0.000178405511253731 0.0001002163400545 -0.000686187465439712 -0.000140473835731408 -0.000516403114923057 -0.00052246466142125 -0.000616967963480242 -0.000866890116683603 -0.000733731191791919 -0.000340043143754294
"62" 0.000336769870647711 -0.000227044186975638 0.000269622437627432 -0.000308946720863072 -5.24467819496764e-05 -0.000240432368373841 0.000173080249560861 9.74354307508259e-05 -0.000688543174731524 -0.000139794646406275 -0.000515026107264786 -0.000522976529541043 -0.000615934962263485 -0.000866817092025118 -0.000732286542029788 -0.000328480250165942
"63" 0.000328805789727507 -0.000223857017771279 0.000273776732586556 -0.000304423270059618 -5.09727080864339e-05 -0.000236581073197551 0.000167530853987899 9.46650272342171e-05 -0.000690359630646959 -0.000139467809546627 -0.000513365446047853 -0.00052335715243 -0.000614459296551088 -0.000866180308914339 -0.000730091618791028 -0.000316629019955854
"64" 0.000320391850710488 -0.000220698449590278 0.000277432874564036 -0.000299841976524278 -4.96897456067947e-05 -0.000232773677095397 0.000161781970799253 9.19252336163811e-05 -0.00069166604710452 -0.000139596142322655 -0.000511423998870209 -0.000523526566460528 -0.000612494163482105 -0.000864960781139886 -0.000727114538023106 -0.000304534213478851
"65" 0.000311594774084981 -0.000217558179550252 0.000280584907097155 -0.00029516986830427 -4.85849990003041e-05 -0.000229006809881138 0.000155860087000871 8.92361704425031e-05 -0.000692503240329229 -0.00014027717670753 -0.000509199482072891 -0.000523408112747041 -0.00060999605263946 -0.000863142357530122 -0.000723330484489228 -0.000292255556087994
"66" 0.000302486091190981 -0.00021441796795092 0.000283242698372114 -0.000290368671506889 -4.76328545960797e-05 -0.000225267347106216 0.000149800404242849 8.66263460298497e-05 -0.000692895573319249 -0.000141622226179529 -0.000506696594423449 -0.000522917747545103 -0.000606913955380332 -0.000860704242701825 -0.00071870475737047 -0.000279830662985591
"67" 0.000293133054540262 -0.000211269389965402 0.000285406648233002 -0.000285414213724628 -4.6814485215608e-05 -0.000221553719871639 0.000143628945923078 8.41078501310624e-05 -0.000692878479949948 -0.000143700700192842 -0.000503916426165443 -0.000521986870331 -0.000603213229617512 -0.000857638500095939 -0.000713222577520857 -0.000267315807229509
"68" 0.000283602661931314 -0.000208099338965104 0.000287083650350817 -0.000280272803169895 -4.61055903954169e-05 -0.000217854345938494 0.000137369018865692 8.16996441658423e-05 -0.00069247685875512 -0.000146603326625008 -0.000500857638247267 -0.000520542211118046 -0.00059885822135972 -0.000853927766717065 -0.000706857931846088 -0.000254750601136132
"69" 0.000273963363501291 -0.000204895511359161 0.000288288806038808 -0.000274914083907159 -4.54883848745176e-05 -0.000214157581680758 0.000131047205995816 7.94181731967156e-05 -0.000691720193291238 -0.000150407392309627 -0.000497524303246848 -0.000518511973929793 -0.000593812824429289 -0.000849559831984542 -0.000699592633856835 -0.000242181239553232
"70" 0.000264281720967799 -0.000201645234341575 0.000289033659809614 -0.000269316372600274 -4.49342124151963e-05 -0.000210451896135884 0.000124692282917521 7.72728391283744e-05 -0.000690628182979999 -0.000155168898219886 -0.000493915551870572 -0.000515837496077681 -0.000588052717175392 -0.000844528302138816 -0.000691415240087566 -0.00022964436718483
"71" 0.000254613836151208 -0.000198343483055341 0.000289329343328465 -0.000263457188312183 -4.4428781768584e-05 -0.000206728928278854 0.000118319151534767 7.52699226242798e-05 -0.000689226641324342 -0.000160937289224981 -0.000490036946344754 -0.00051246670032035 -0.000581562010765017 -0.000838832008835229 -0.000682320831607637 -0.00021718240298249
"72" 0.000245028765394729 -0.000194982896645284 0.000289199310659474 -0.000257315687213483 -4.39447646041479e-05 -0.000202971249093527 0.000111954808805152 7.34209220267714e-05 -0.00068753082170267 -0.000167764558727055 -0.000485890340730162 -0.000508340866105739 -0.000574316330812437 -0.0008324604836295 -0.000672298371562037 -0.000204824174942963
"73" 0.000235573172694462 -0.00019155701106211 0.000288656683945817 -0.00025088305391561 -4.34674668153705e-05 -0.000199172355470825 0.000105612725353216 7.17235099214486e-05 -0.000685556493348366 -0.000175662172293247 -0.000481476915417328 -0.000503424297365888 -0.000566315290524252 -0.000825420723987907 -0.000661353809810781 -0.000192604152637208
"74" 0.000226305022149974 -0.00018806145936472 0.000287718802993257 -0.000244148256923289 -4.29750550112167e-05 -0.000195317797189844 9.9308112639433e-05 7.01786559528898e-05 -0.00068331953546316 -0.000184652590546403 -0.000476804661044794 -0.000497684774633256 -0.000557553252003225 -0.000817715911934064 -0.000649494758894193 -0.0001805484989394
"75" 0.000217270623632727 -0.000184499896990349 0.000286413900928368 -0.000237108139818724 -4.24504861077035e-05 -0.000191396518849827 9.30555424860295e-05 6.87797679547456e-05 -0.00068082559067476 -0.000194727212912718 -0.00047187534859995 -0.000491096396470784 -0.000548036523118982 -0.000809353768217052 -0.000636731825951526 -0.000168687560240642
"76" 0.000208514003511739 -0.000180869033580094 0.000284762429236294 -0.000229759885596353 -4.18774402405393e-05 -0.000187399549786719 8.68662117614847e-05 6.75221904423321e-05 -0.000678086574851716 -0.000205887694558782 -0.000466693983474762 -0.000483643695809523 -0.000537779041872539 -0.00080034294091596 -0.000623081134536818 -0.000157040514048933
"77" 0.000200076866870006 -0.000177174138493868 0.000282783928288637 -0.000222112900151734 -4.12452254282739e-05 -0.000183317936917395 8.0749270021963e-05 6.63932346418178e-05 -0.000675100516554363 -0.000218092891789772 -0.000461271580319492 -0.000475320751687593 -0.000526801748784839 -0.000790703876807034 -0.000608571770096441 -0.000145629285960193
"78" 0.000191987776739267 -0.000173423912759759 0.00028050642367866 -0.000214178276212112 -4.05441896692072e-05 -0.000179141241108009 7.47072768282378e-05 6.53806094752496e-05 -0.000671875449823257 -0.000231309877910681 -0.00045561402565211 -0.0004661303232622 -0.00051513083609638 -0.000780452585689918 -0.00059323220110268 -0.000134468578218147
"79" 0.000184279055817275 -0.000169626704292196 0.00027795170982035 -0.000205972430270001 -3.97604760064651e-05 -0.00017486425010597 6.87441275870444e-05 6.4466465114353e-05 -0.00066840486005617 -0.000245481647634456 -0.000449728759825139 -0.000456089310475643 -0.000502802920106055 -0.000769611372172703 -0.000577095932309833 -0.000123575119958315
"80" 0.000176972178022266 -0.000165790695334635 0.000275145614428665 -0.000197518586951548 -3.88912715355534e-05 -0.000170482711432616 6.28615468463968e-05 6.36314351672301e-05 -0.000664688316372271 -0.000260548293870882 -0.000443627844978808 -0.000445216452290842 -0.000489863504775193 -0.000758209947597578 -0.000560207981198898 -0.000112963263614854
"81" 0.000170089655950372 -0.000161933416759663 0.00027211440350157 -0.000188841659097164 -3.79341581551988e-05 -0.000165992150586465 5.70574058444393e-05 6.28537261358733e-05 -0.000660721061069785 -0.000276428593437677 -0.000437324325739497 -0.000433547719999182 -0.000476357342668428 -0.000746274621026878 -0.000542614788227694 -0.00010263750214694
"82" 0.000163643170000013 -0.000158068388661963 0.00026888032969643 -0.000179975964328967 -3.68850308946913e-05 -0.000161391851229654 5.13243273274873e-05 6.21071513049994e-05 -0.000656493004129157 -0.000293029634575431 -0.000430826842013895 -0.000421126080140854 -0.00046234598941597 -0.000733842557896214 -0.000524372302402352 -9.26129410312494e-05
"83" 0.000157641179088133 -0.000154215165004997 0.000265467295983504 -0.000170957648022986 -3.57461654003229e-05 -0.000156682642385757 4.56600324606172e-05 6.13679023016304e-05 -0.000651999093090916 -0.000310256629706077 -0.000424153515229693 -0.000408000474455154 -0.00044789046421905 -0.000720947854964289 -0.000505536987809706 -8.28916321343144e-05
"84" 0.000152085130473057 -0.000150395593499211 0.000261903417875832 -0.00016182796186464 -3.45227204504084e-05 -0.000151867048652973 4.00577481516892e-05 6.06047805804789e-05 -0.000647226350236828 -0.000327990386320623 -0.000417319101547905 -0.000394233906175922 -0.000433061566095482 -0.0007076332587344 -0.000486177286586038 -7.34803932861293e-05
"85" 0.000146977353909034 -0.000146629062801066 0.000258206754180604 -0.000152633131381252 -3.32227811967706e-05 -0.00014694920783782 3.45027341416744e-05 5.97895102442752e-05 -0.000642164149856468 -0.00034612403447919 -0.000410336938780817 -0.000379892822226456 -0.000417931860292535 -0.000693937558263198 -0.00046635662056086 -6.43836295217784e-05
"86" 0.000142311821483053 -0.000142939560078316 0.000254406793034189 -0.000143417440084325 -3.18547737985582e-05 -0.000141938997152392 2.89858757654343e-05 5.88932267069021e-05 -0.000636808582153337 -0.000364523725604957 -0.000403230013897691 -0.000365053237307616 -0.000402584672019179 -0.000679912058421562 -0.00044615389134448 -5.56059167834769e-05
"87" 0.000138076317510741 -0.000139353032365059 0.000250521250061974 -0.000134237570487304 -3.04274268044908e-05 -0.000136842149051524 2.34948671275653e-05 5.78812088784362e-05 -0.000631137699067509 -0.00038305752897751 -0.000396013423016085 -0.00034979950086907 -0.000387101383596925 -0.000665597982273426 -0.000425643065639019 -4.71445721642316e-05
"88" 0.000134259944339632 -0.000135892378464275 0.000246573834434167 -0.000125142610415634 -2.89600337186781e-05 -0.000131671018323944 1.80158013653477e-05 5.6724171791605e-05 -0.000625147039665914 -0.00040158871333363 -0.000388707901532844 -0.000334217264711697 -0.000371568395578128 -0.000651045432079223 -0.000404907480540129 -3.90052608224058e-05
"89" 0.000130846698476108 -0.000132586406490397 0.000242582296837876 -0.000116190422452283 -2.74652573116665e-05 -0.000126439861600476 1.25342211090872e-05 5.53910468778474e-05 -0.000618826844145522 -0.000419969661494815 -0.000381337971924785 -0.000318402315067623 -0.000356081490541635 -0.000636311931963737 -0.000384030232540332 -3.11928252482251e-05
"90" 0.00012781536264254 -0.000129457576622866 0.000238572158947184 -0.000107432191125948 -2.59579628087743e-05 -0.000121162740305837 7.03799596001459e-06 5.38520253608866e-05 -0.000612160640657513 -0.000438071282062085 -0.000373918491081852 -0.000302447010967856 -0.000340722676911886 -0.000621439208965577 -0.000363091472808807 -2.37024987154791e-05
"91" 0.000125142531775365 -0.000126536628959305 0.000234559111143712 -9.89315141079427e-05 -2.4461027614789e-05 -0.0001158562782696 1.51157843901608e-06 5.2074500308631e-05 -0.000605148042221264 -0.000455727613980515 -0.000366475724785984 -0.000286459363359121 -0.000325593023908984 -0.000606487770352773 -0.000342184427834421 -1.65439353767262e-05
"92" 0.000122807702213881 -0.000123843063034649 0.000230557352398677 -9.07360858456233e-05 -2.29899154207426e-05 -0.000110540272756745 -4.05964294990988e-06 5.00352484177514e-05 -0.000597775325007287 -0.000472810650902071 -0.000359032934939419 -0.000270533346401101 -0.00031077941686698 -0.000591505274892331 -0.000321393145656544 -9.71438907925528e-06
"93" 0.000120780818937173 -0.000121405338664407 0.00022659222899764 -8.29057878157004e-05 -2.15697649902009e-05 -0.000105231631424015 -9.69104064063001e-06 4.77042086199108e-05 -0.000590041592769484 -0.000489163420064595 -0.000351613737863159 -0.000254779730735884 -0.000296378735682372 -0.000576542205235485 -0.000300804511306594 -3.22283016613761e-06
"94" 0.000119035798834817 -0.00011925237975882 0.000222668828995002 -7.54952082468838e-05 -2.02194708890831e-05 -9.99561469424459e-05 -1.53929253101419e-05 4.50571462131174e-05 -0.000581945984527401 -0.000504643762838405 -0.000344244050674516 -0.000239300791482523 -0.000282483941165273 -0.000561660250519798 -0.000280510562584604 2.92662635883867e-06
"95" 0.000117546332831362 -0.000117395308865803 0.00021881088275442 -6.85489885293692e-05 -1.89561068467978e-05 -9.47305986434374e-05 -2.11762403072672e-05 4.20779586779404e-05 -0.000573481780174286 -0.000519128570641101 -0.000336941306109776 -0.00022419327450934 -0.000269177377825823 -0.000546898456677804 -0.000260588106336871 8.73264963578035e-06
"96" 0.000116282653689196 -0.000115858602657408 0.000215029498459389 -6.21169650956095e-05 -1.7805821079318e-05 -8.95770957692554e-05 -2.70507615749661e-05 3.87446602167276e-05 -0.000564650081385179 -0.000532481692963899 -0.000329734685943939 -0.000209556741471024 -0.000256539364227419 -0.000532306494349253 -0.000241120916781644 1.41839011036061e-05
"97" 0.000115216321894374 -0.000114660026468098 0.000211337434563086 -5.62403341592836e-05 -1.67864271733499e-05 -8.45212288068142e-05 -3.30280538314359e-05 3.5045889845931e-05 -0.000555457332938871 -0.000544578123481001 -0.000322645783217304 -0.000195490817306124 -0.000244658165277912 -0.000517936465064616 -0.000222189476057731 1.92741333390814e-05
"98" 0.000114319509772567 -0.000113812372918324 0.000207748163769652 -5.09580900372641e-05 -1.59151958339481e-05 -7.95856976180234e-05 -3.91102733076804e-05 3.09687439488863e-05 -0.000545910884799374 -0.000555304840281045 -0.000315694584877526 -0.000182079761479007 -0.000233604724641103 -0.000503825322912674 -0.000203865315511594 2.39939403537497e-05
"99" 0.000113565787720105 -0.000113330791371477 0.000204268874167665 -4.6304244695006e-05 -1.52139932110022e-05 -7.47908524134336e-05 -4.53014703509358e-05 2.65090048843613e-05 -0.000536016816834941 -0.000564557561915838 -0.000308906104682221 -0.000169414771316374 -0.000223445046305161 -0.000490017213837311 -0.000186220496868079 2.83340465181732e-05
"100" 0.000112931653998987 -0.000113222535211643 0.00020091658609476 -4.23071712225514e-05 -1.4694277518482e-05 -7.01567929271357e-05 -5.16036766463728e-05 2.16605826570288e-05 -0.000525788031371555 -0.00057223745489813 -0.000302300501307288 -0.000157568905862469 -0.000214243826756294 -0.000476549436165195 -0.000169319270437592 3.22855148411901e-05
"101" 0.000112387466185975 -0.000113493111538114 0.000197694164586858 -3.89894443060706e-05 -1.43723407248322e-05 -6.57084480028956e-05 -5.80163825668689e-05 1.64256747425543e-05 -0.000515238310065728 -0.0005782679684226 -0.000295897250648566 -0.000146615894560879 -0.000206054024926795 -0.000463451774232218 -0.000153214154339224 3.58356690506943e-05
"102" 0.0001119143441731 -0.000114144936926819 0.000194611468494659 -3.63666037236946e-05 -1.42629268502432e-05 -6.14627660952931e-05 -6.4538316915032e-05 1.08111563858449e-05 -0.000504387953034816 -0.000582577228142114 -0.000289715723223351 -0.000136614439021119 -0.000198922815789706 -0.000450757304803159 -0.000137963133361494 3.89699047866385e-05
"103" 0.000111494539372283 -0.000115177611817458 0.00019168297497776 -3.44467445211949e-05 -1.43681733005393e-05 -5.74377542582197e-05 -7.11564832480665e-05 4.83010230213274e-06 -0.000493252376235127 -0.000585108670954621 -0.000283770076631689 -0.000127620287397308 -0.000192887447127238 -0.000438491153441894 -0.000123604338052167 4.16785989981698e-05
"104" 0.000111110343010771 -0.000116579840513775 0.000188909051209293 -3.32277067136582e-05 -1.46999488474641e-05 -5.36502466709611e-05 -7.78627262942515e-05 -1.50326882712434e-06 -0.000481853795692684 -0.000585830809170861 -0.000278077321132872 -0.000119674605490561 -0.000187972768166341 -0.000426668770402137 -0.000110175046487965 4.3947368879105e-05
"105" 0.00011074479804905 -0.000118346160651502 0.000186302195906995 -3.2707150235428e-05 -1.52574613740782e-05 -5.01132224949191e-05 -8.46469763874781e-05 -8.17246976907883e-06 -0.000470217303833111 -0.000584709006537023 -0.000272649945830635 -0.000112808600154844 -0.000184200572344312 -0.000415307734147834 -9.76999682551567e-05 4.5766292650439e-05
"106" 0.00011038571064092 -0.000120467503987314 0.000183865240223862 -3.2877838592356e-05 -1.6048123184058e-05 -4.68402403847705e-05 -9.14930827254723e-05 -1.51514888102978e-05 -0.000458369617308154 -0.000581732245433545 -0.000267500371153813 -0.00010705114163827 -0.000181583574733738 -0.000404420090062623 -8.6201233599978e-05 4.71222229831313e-05
"107" 0.000110030824568627 -0.000122916079659108 0.000181608762518272 -3.37108389046667e-05 -1.7057110188924e-05 -4.38374121876484e-05 -9.83792436121988e-05 -2.24069973403667e-05 -0.000446337189990585 -0.000576929316995304 -0.000262635068670404 -0.000102403337720696 -0.000180114237037005 -0.000394006199551372 -7.56817782741068e-05 4.80065590726199e-05
"108" 0.000109667651787158 -0.000125679703325073 0.00017953608467954 -3.51839711403228e-05 -1.82884491414163e-05 -4.11141899729008e-05 -0.000105286087240609 -2.99144157487469e-05 -0.000434146971607675 -0.00057030674476293 -0.000258061805338689 -9.88735648634555e-05 -0.0001797890720839 -0.000384066308590651 -6.61452548987324e-05 4.84058169428799e-05
"109" 0.000109295602907215 -0.000128727688579114 0.00017765255475549 -3.72647189083783e-05 -1.97290953568421e-05 -3.86733059839643e-05 -0.000112187248213332 -3.76318977601944e-05 -0.0004218337755392 -0.000561910059211868 -0.000253782271550831 -9.64496304180464e-05 -0.000180584705773773 -0.000374595323405834 -5.75821030978144e-05 4.83124694000488e-05
"110" 0.000108910667955315 -0.000132033943958388 0.000175960643673188 -3.99085881991428e-05 -2.13641934513472e-05 -3.65160512328121e-05 -0.000119057855139841 -4.55220631556103e-05 -0.000409423476805534 -0.000551804065580687 -0.000249801434897942 -9.51094862145854e-05 -0.000182475841582363 -0.000365579257464535 -4.99745846522293e-05 4.77229218180764e-05
"111" 0.000108523989209388 -0.000135566902347514 0.000174470450166173 -4.30733131702815e-05 -2.31769248232884e-05 -3.46417120760742e-05 -0.000125868569571303 -5.35408328293108e-05 -0.000396955288141704 -0.000540059384049574 -0.000246116248972017 -9.48236076642402e-05 -0.000185422670983033 -0.000357005706081188 -4.32960482475263e-05 4.66268235938567e-05
"112" 0.000108132545877371 -0.000139290397173612 0.000173184277206791 -4.67031676550951e-05 -2.51499204960591e-05 -3.30416529823803e-05 -0.000132590148642937 -6.1639759301514e-05 -0.000384454251243934 -0.000526774621857902 -0.000242723468473722 -9.55505019210584e-05 -0.000189376957572008 -0.000348848213716767 -3.75078628889427e-05 4.50307534317181e-05
"113" 0.00010775145719852 -0.000143167250376731 0.000172109056200386 -5.07383877851459e-05 -2.7257671711581e-05 -3.17065503630343e-05 -0.000139181431525858 -6.97721093926484e-05 -0.000371956490403909 -0.000512064938345913 -0.000239615892701723 -9.72385228243274e-05 -0.00019428315462737 -0.000341077813632886 -3.2564724693346e-05 4.29288019333217e-05
"114" 0.000107388531388062 -0.00014715727725448 0.000171244860760926 -5.51195783209958e-05 -2.94792760706082e-05 -3.0630810470868e-05 -0.000145615894226325 -7.78866859192413e-05 -0.000359494742214523 -0.000496040417913348 -0.000236789925121124 -9.98309714639873e-05 -0.000200081756132864 -0.000333670028576097 -2.84210037106432e-05 4.03246612337866e-05
"115" 0.000107054901425641 -0.000151217237727321 0.0001705979962596 -5.9776442684016e-05 -3.17833757034003e-05 -2.97965534588144e-05 -0.00015185337778294 -8.5932448390865e-05 -0.000347098462620585 -0.000478856202427944 -0.000234226758838612 -0.000103260230112116 -0.000206699118476667 -0.000326580252205702 -2.50105933092243e-05 3.72309870673757e-05
"116" 0.000106763458456299 -0.000155305565220913 0.000170169045770242 -6.46411783392535e-05 -3.41398744737608e-05 -2.91859408785656e-05 -0.000157861627715659 -9.38549489811796e-05 -0.000334800195564899 -0.000460656547663965 -0.000231919918590429 -0.000107454247741637 -0.000214063486187084 -0.000319775173845116 -2.22723001094325e-05 3.36513242107714e-05
"117" 0.000106535750303571 -0.000159372700840303 0.00016996392653214 -6.96394604679991e-05 -3.65137979206638e-05 -2.87815842961499e-05 -0.000163598581982821 -0.000101598353006456 -0.00032262833495438 -0.000441613398366605 -0.000229851588322106 -0.000112329516746107 -0.00022209078217279 -0.000313206445510673 -2.01303407770683e-05 2.96050397998686e-05
"118" 0.000106385261373376 -0.000163371269658266 0.000169986603312085 -7.46878054911226e-05 -3.88744965654749e-05 -2.85593126385987e-05 -0.000169023854640273 -0.000109110097608893 -0.000310609463664651 -0.000421906436717713 -0.00022800330025794 -0.000117803982798581 -0.00023069359291623 -0.000306826585193653 -1.85091535460594e-05 2.51067036737248e-05
"119" 0.000106328663929773 -0.000167260194763184 0.000170234761651437 -7.97176361066493e-05 -4.11889449513088e-05 -2.84952206533883e-05 -0.000174108046286548 -0.000116337468283403 -0.00029877111254554 -0.000401717118484698 -0.000226354273004856 -0.000123791085345341 -0.000239782177974753 -0.000300587644103359 -1.73268484290993e-05 2.01798239676462e-05
"120" 0.000106386515039666 -0.000170985079662914 0.000170711089536081 -8.46446254100683e-05 -4.34163844426879e-05 -2.85650903088395e-05 -0.000178808777661681 -0.000123225550552848 -0.000287139786397551 -0.000381246729110452 -0.000224889682769272 -0.000130194084088115 -0.000249263893575253 -0.000294439233165932 -1.64990659270012e-05 1.48484735400049e-05
"121" 0.00010657736170788 -0.000174504978207036 0.000171418490265334 -8.9394320329981e-05 -4.55235102487999e-05 -2.87370065235407e-05 -0.000183091875723706 -0.000129725383920196 -0.000275735743420994 -0.000360693413022989 -0.000223580893913013 -0.000136924293845738 -0.000259041443557054 -0.000288324169820644 -1.59364715141405e-05 9.14173568077353e-06
"122" 0.000106917871035596 -0.000177769306494364 0.000172357043382275 -9.3886366356183e-05 -4.74693626135871e-05 -2.89828165563326e-05 -0.000186923164733454 -0.000135783623999003 -0.000264578634170403 -0.000340266342848661 -0.000222406011918894 -0.000143886280362969 -0.00026901990396543 -0.000282189648090814 -1.55524392501487e-05 3.09549369173319e-06
"123" 0.000107423494803674 -0.000180739006584482 0.000173524187365377 -9.80459721195865e-05 -4.92226926201612e-05 -2.92730485591634e-05 -0.000190271289221915 -0.000141357789730892 -0.000253684571199914 -0.000320169375668202 -0.000221344698911991 -0.000150986497481897 -0.000279100889704444 -0.000275981151815053 -1.5256912726463e-05 -3.25763165668103e-06
"124" 0.000108112798838803 -0.000183365055078445 0.000174916955277798 -0.000101803192651105 -5.07489298809645e-05 -2.9573775891583e-05 -0.000193104347953253 -0.000146400674264969 -0.000243074203503145 -0.000300615006303885 -0.000220368098332262 -0.000158131275794029 -0.000289192224419571 -0.000269640663239168 -1.49597133831236e-05 -9.87753348075826e-06
"125" 0.000109001450146029 -0.000185611562566077 0.000176536593916491 -0.000105082083215627 -5.20086748896882e-05 -2.98558548085503e-05 -0.000195393747547948 -0.000150872708200883 -0.000232754651118824 -0.000281809326200319 -0.000219451630252073 -0.000165230552608727 -0.000299193240230543 -0.000263117372193633 -1.45726872882664e-05 -1.67208692063561e-05
"126" 0.0001101005531578 -0.000187439288458749 0.000178376862189527 -0.000107821727247457 -5.2976586253777e-05 -3.00872295011036e-05 -0.000197118166929244 -0.00015473922698415 -0.000222742707195992 -0.000263955279008357 -0.000218569474323786 -0.000172202982643279 -0.000309017398935705 -0.000256360601324422 -1.40149833101682e-05 -2.37427727310512e-05
"127" 0.000111420853796712 -0.00018881233744668 0.000180429900401773 -0.000109958402371201 -5.36182619023715e-05 -3.02374587706815e-05 -0.000198253482664659 -0.000157963822238076 -0.000213040248519396 -0.000247246256038832 -0.000217698370745332 -0.000178962620705857 -0.00031857391459045 -0.000249316083019142 -1.31995469824601e-05 -3.08946020652529e-05
"128" 0.00011297316942452 -0.000189696942951299 0.000182696326418613 -0.000111433789364493 -5.39046916039793e-05 -3.02717693167216e-05 -0.000198780434527397 -0.000160520483193517 -0.000203655278201571 -0.000231877876997503 -0.000216808668015563 -0.000185432896070622 -0.000327774712812683 -0.000241936721873782 -1.20498803362029e-05 -3.81255983573327e-05
"129" 0.000114763152506998 -0.00019006920171005 0.000185163031858326 -0.000112201633354431 -5.38160273894222e-05 -3.01641830956542e-05 -0.000198689707517822 -0.000162382783629121 -0.000194591736155463 -0.000218016799019913 -0.00021588235281892 -0.000191544551026918 -0.000336540711673243 -0.000234179388190921 -1.04949107357021e-05 -4.53886375517506e-05
"130" 0.000116796691236512 -0.000189901510337084 0.000187823629876082 -0.00011221437993857 -5.33263152602733e-05 -2.98826532262663e-05 -0.000197962615871762 -0.000163533967819537 -0.000185847185445036 -0.00020583557240946 -0.000214894484310396 -0.00019723192960471 -0.000344797687645633 -0.000226002070083292 -8.46350849016637e-06 -5.26229590636667e-05
"131" 0.000119065455994599 -0.000189176649001659 0.000190663587821189 -0.000111438636226883 -5.24202809505115e-05 -2.94036319631021e-05 -0.000196600642605074 -0.000163961429427053 -0.000177427611426615 -0.000195472498607425 -0.0002138221859148 -0.00020244191342289 -0.000352475884274458 -0.000217372362430842 -5.9025280526496e-06 -5.97803365753393e-05
"132" 0.000121576813237604 -0.000187876475494671 0.000193677027222224 -0.000109838560593267 -5.10832503420977e-05 -2.87022629981948e-05 -0.000194593818319883 -0.000163654657156963 -0.000169323797071409 -0.000187082832349459 -0.000212646663813633 -0.000207119275113069 -0.000359512835435634 -0.000208256234624945 -2.75176878896993e-06 -6.6802913678491e-05
"133" 0.000124320958923061 -0.00018599255412155 0.000196844897439417 -0.000107393387338665 -4.93035386590537e-05 -2.77543096423073e-05 -0.000191953090808642 -0.00016261311394973 -0.000161530079044534 -0.000180753162748001 -0.000211348393927819 -0.000211233730420471 -0.000365851512065025 -0.000198626210194016 1.03047120132185e-06 -7.36394031031355e-05
"134" 0.000127290011801318 -0.000183512391916622 0.00020015908453404 -0.000104087446267488 -4.7071671183358e-05 -2.65403367372494e-05 -0.000188673137485152 -0.00016083220196717 -0.000154047192171497 -0.000176610576389618 -0.000209910385267272 -0.000214740431194065 -0.000371441849060215 -0.000188465836334162 5.48141061856473e-06 -8.02332818479899e-05
"135" 0.000130467364946727 -0.000180442137774132 0.000203596741020761 -9.99142063337906e-05 -4.43916886079554e-05 -2.50455642007776e-05 -0.000184778048324167 -0.000158330804981499 -0.000146862480472016 -0.000174700273540839 -0.000208321762113565 -0.000217628393703259 -0.000376245652035782 -0.000177761072171842 1.06240791187334e-05 -8.65350101705006e-05
"136" 0.000133843316516499 -0.00017677678739496 0.000207145023858245 -9.48720693804315e-05 -4.12606058635049e-05 -2.32513683286673e-05 -0.000180269465423669 -0.00015511442796918 -0.000139969736478156 -0.000175106565617852 -0.000206569359527844 -0.000219873399139716 -0.000380220716996665 -0.000166502584845857 1.64839079298697e-05 -9.24909900575839e-05
"137" 0.000137397414058698 -0.000172527985794717 0.000210785140705045 -8.89687706933693e-05 -3.76845268045307e-05 -2.11487751054288e-05 -0.000175174951679238 -0.000151201406980953 -0.000133358495086272 -0.000177843060694145 -0.000204641928587581 -0.000221475711454587 -0.000383348278369276 -0.000154691691302404 2.30693372443455e-05 -9.80566256296464e-05
"138" 0.000141108785199168 -0.000167704345335868 0.000214495069099488 -8.22179271101179e-05 -3.36758206508933e-05 -1.87303960112641e-05 -0.00016951558580208 -0.000146617092910892 -0.000127017888596226 -0.000182922919528987 -0.000202532652416418 -0.000222434380783348 -0.00038560509602663 -0.000142331728035276 3.03775061360077e-05 -0.000103181241398516
"139" 0.000144950972262765 -0.000162323417270814 0.000218254881967641 -7.46447418699923e-05 -2.92477029511614e-05 -1.5991550280158e-05 -0.000163316194326965 -0.000141388161821883 -0.000120938991943737 -0.000190331701552655 -0.000200237114551133 -0.000222764990643125 -0.000386981844693586 -0.000129435951544826 3.83970840385974e-05 -0.000107824789556994
"140" 0.000148901519044529 -0.000156404417113398 0.000222044313753867 -6.62771354448248e-05 -2.44193913619062e-05 -1.29293115113943e-05 -0.000156606561442074 -0.000135546264174725 -0.000115114325966466 -0.000200042076083746 -0.000197757185689671 -0.000222482597151482 -0.000387472950735365 -0.000116029456625914 4.71093460252178e-05 -0.000111947312601068
"141" 0.000152929399316333 -0.000149970422306945 0.000225839058893369 -5.71521565647024e-05 -1.92161912827096e-05 -9.54632073480082e-06 -0.000149425960843893 -0.000129129665103739 -0.000109531845683115 -0.000211987844280751 -0.000195089900352221 -0.000221618890449385 -0.000387089227407891 -0.000102136583474801 5.64851830952325e-05 -0.000115515576054866
"142" 0.000157003102807036 -0.000143049743757265 0.000229621547768049 -4.73107226629017e-05 -1.36574498805328e-05 -5.8491310247386e-06 -0.000141805207889126 -0.000122177668999564 -0.000104180405885983 -0.000226096352353215 -0.00019224179867471 -0.000220206042831528 -0.000385831231008524 -8.77900858935103e-05 6.64856066869733e-05 -0.000118493789812631
"143" 0.000161092951041917 -0.000135675223420923 0.000233362112651702 -3.68034403492364e-05 -7.77818143258569e-06 -1.84687504695986e-06 -0.000133786789263826 -0.000114735580306467 -9.90535673566549e-05 -0.000242258325657241 -0.00018921707482009 -0.000218288444653237 -0.000383723587844874 -7.30309134428761e-05 7.70632533971157e-05 -0.000120861160690294
"144" 0.000165162011295859 -0.000127876878305431 0.000237040403636246 -2.56841447917945e-05 -1.60702779364592e-06 2.45030054747203e-06 -0.000125412056430412 -0.000106850666163095 -9.4141751256661e-05 -0.00026036220743348 -0.000186025223425501 -0.000215912576738559 -0.000380788408791327 -5.79092142621715e-05 8.81593609787469e-05 -0.00012259475615944
"145" 0.000169177790755225 -0.000119692968182856 0.000240633014493874 -1.40109251226701e-05 4.81512364439371e-06 7.02717819465702e-06 -0.000116725720489163 -9.85708247006568e-05 -8.9439669844565e-05 -0.000280263621142569 -0.000182679742567387 -0.00021313328900632 -0.000377059780205381 -4.24799412525459e-05 9.97116777148542e-05 -0.000123676261544103
"146" 0.000173106930668961 -0.000111160495151302 0.000244120340591744 -1.84166416129964e-06 1.14555134458681e-05 1.1865026559387e-05 -0.000107771191209811 -8.9945302887371e-05 -8.49376883778991e-05 -0.000301818355819949 -0.000179190351583994 -0.000210006471919064 -0.000372569708899172 -2.67998461855954e-05 0.000111649641989125 -0.000124099498272915
"147" 0.000176912343091443 -0.000102321051981067 0.000247475919365443 1.07491900651576e-05 1.82698669284731e-05 1.69399916111501e-05 -9.85996323677116e-05 -8.10337590196229e-05 -8.06358672499106e-05 -0.000324842975092244 -0.000175578337213644 -0.000206600920271657 -0.000367363373827767 -1.09352062564653e-05 0.00012388781151752 -0.000123860175579186
"148" 0.000180558886504378 -9.32179914576653e-05 0.000250677876065939 2.3697427465488e-05 2.52166550857987e-05 2.22318473877833e-05 -8.92586357475467e-05 -7.18899074100671e-05 -7.6527883994665e-05 -0.00034915596223192 -0.000171859234857904 -0.000202978236179825 -0.000361487243926292 5.03822142724063e-06 0.000136345233303933 -0.000122960947642537
"149" 0.000184016443751118 -8.3888135366452e-05 0.000253708892038447 3.69361977769399e-05 3.22563739630181e-05 2.77142542088651e-05 -7.97949419455193e-05 -6.25637976673245e-05 -7.26124260616504e-05 -0.00037457547978877 -0.00016805206735323 -0.00019920440164876 -0.000354987295786443 2.10530222399757e-05 0.000148930886723776 -0.000121404020971549
"150" 0.000187249240062219 -7.43807706131444e-05 0.000256549181807298 5.03874898215721e-05 3.93426528566935e-05 3.33608112688218e-05 -7.02538350405371e-05 -5.31165914689137e-05 -6.88878906339493e-05 -0.000400884202731331 -0.000164178187081092 -0.000195352823770264 -0.00034792115498615 3.70229501697019e-05 0.000161550138640468 -0.000119203534648515
"151" 0.000190226021165686 -6.47351515220547e-05 0.000259182106270859 6.39843321301016e-05 4.64299710817972e-05 3.91385099779201e-05 -6.06898371558046e-05 -4.3601226359038e-05 -6.53588837587719e-05 -0.000427873554736986 -0.000160264102786206 -0.000191493627041587 -0.000340344699563921 5.28656591512269e-05 0.000174101001478541 -0.000116382037701044
"152" 0.000192917825214439 -5.49933830885627e-05 0.000261587729923018 7.76554303085158e-05 5.34715761332903e-05 4.50186597146687e-05 -5.11440798071803e-05 -3.40722330485024e-05 -6.20233060495973e-05 -0.000455328320007276 -0.000156329849475357 -0.000187693314422607 -0.000332316064094692 6.84985832582773e-05 0.000186487648956536 -0.000112958862892941
"153" 0.000195302378713098 -4.51961685762253e-05 0.000263754827425958 9.13312631836003e-05 6.04302528773551e-05 5.09668964695352e-05 -4.16646838081331e-05 -2.4582260197434e-05 -5.88856013258473e-05 -0.000483035391653086 -0.000152401735585543 -0.000184020127142316 -0.000323891767894663 8.3833581624046e-05 0.000198602452315465 -0.000108962200486155
"154" 0.000197351277767944 -3.53846226639075e-05 0.000265669518748725 0.000104940626247574 6.72569410459507e-05 5.69524851966402e-05 -3.22946294538809e-05 -1.51837778263232e-05 -5.5956462299026e-05 -0.00051076363081636 -0.000148507767846429 -0.000180543584510037 -0.000315137924540097 9.87762074994282e-05 0.000210344097920976 -0.000104427247328016
"155" 0.00019904467538232 -2.55980317928591e-05 0.000267322591704841 0.00011842142395541 7.39098944668077e-05 6.29380621469162e-05 -2.30803781768858e-05 -5.92630463623815e-06 -5.32377194523937e-05 -0.000538295203565054 -0.000144670619277739 -0.000177323005848892 -0.000306114253795073 0.000113240108386362 0.000221609384398104 -9.93920947316697e-05
"156" 0.000200366194410294 -1.58704355453541e-05 0.000268704628779398 0.000131711984316385 8.03510135163164e-05 6.88942869409955e-05 -1.40573481964548e-05 3.14638817434749e-06 -5.07393910500895e-05 -0.000565418449127511 -0.000140917005057115 -0.000174417564032965 -0.000296874541005407 0.000127136949348311 0.0002322985515256 -9.38916179681488e-05
"157" 0.00020130206095727 -6.2334888956879e-06 0.00026981552052796 0.000144755786040015 8.65407854938145e-05 7.47836576135684e-05 -5.25976594473047e-06 1.19916321152536e-05 -4.84709027948936e-05 -0.00059191816918937 -0.000137275064024829 -0.000171879397793947 -0.000287485494729016 0.000140375755917899 0.000242314711364064 -8.79723317795086e-05
"158" 0.00020184206227458 3.27846967324928e-06 0.000270645453678562 0.000157498699059613 9.24461639405458e-05 8.05734977647835e-05 3.27464722968666e-06 2.05658189136865e-05 -4.64434200429579e-05 -0.000617579163059076 -0.000133765777982234 -0.000169761378740606 -0.000277996894569201 0.000152870961207432 0.000251560926790764 -8.16812015063432e-05
"159" 0.000201979548320628 1.26400167641757e-05 0.000271195688191102 0.000169892400549063 9.80290497337773e-05 8.62333727341607e-05 1.15171591343104e-05 2.88354769294305e-05 -4.46646816634455e-05 -0.000642212944937762 -0.00013041699701329 -0.000168099300980002 -0.000268469955358041 0.000164537930893605 0.00025995038828435 -7.50620431727295e-05
"160" 0.000201711739543167 2.18290224182649e-05 0.000271469889672415 0.000181898287865272 0.000103266429938248 9.17295746088712e-05 1.94394599087719e-05 3.67676866833558e-05 -4.31499682896374e-05 -0.000665629026359158 -0.000127250945807807 -0.000166931432103361 -0.000258953073232771 0.000175293403055465 0.000267397214761125 -6.81684438049471e-05
"161" 0.000201045268322531 3.08228638981169e-05 0.00027147364248019 0.000193479063556608 0.000108124423422268 9.70332341777309e-05 2.70229566512317e-05 4.43382456792086e-05 -4.19113369027706e-05 -0.000687646187885029 -0.000124290343525969 -0.000166284795531656 -0.000249491650405275 0.000185062877904306 0.000273829592710631 -6.10494110406748e-05
"162" 0.000199977477438115 3.96041422543834e-05 0.000271207076968842 0.000204599703478636 0.000112583273206101 0.00010211367573548 3.42385217392059e-05 5.1515808427961e-05 -4.0960240088972e-05 -0.000708090387793912 -0.000121557617544241 -0.000166181186832079 -0.000240136243465963 0.000193772783634461 0.000279170569106977 -5.37484570883384e-05
"163" 0.000198527324817925 4.81633841990973e-05 0.000270688539475631 0.000215248386759597 0.000116622976572263 0.000106946598353719 4.10846355665076e-05 5.82906618754032e-05 -4.03065818202099e-05 -0.000726817660895701 -0.000119064987562046 -0.000166630613357917 -0.00023091906514944 0.000201361924000912 0.000283367383619912 -4.63183493830774e-05
"164" 0.000196705096105554 5.64901665978015e-05 0.000269927044679515 0.000225402132206637 0.000120227926456569 0.000111506592136638 4.75398119983653e-05 6.46440438611812e-05 -3.99670449420469e-05 -0.000743681528898127 -0.000116837236602237 -0.000167639764996749 -0.00022187866613608 0.000207761926350104 0.000286362870530402 -3.88059075832016e-05
"165" 0.000194529240881615 6.4579405393778e-05 0.000268932531221098 0.000235053140555459 0.000123385265273653 0.00011576962076778 5.35986450535153e-05 7.05676767855398e-05 -3.9950181200998e-05 -0.000758557483017086 -0.000114883261531519 -0.000169200924646242 -0.000213041173775137 0.000212927270138078 0.000288120752032526 -3.125097214947e-05
"166" 0.000192023204890591 7.24316400063171e-05 0.000267727054268379 0.000244198225926323 0.000126089396065139 0.000119717160483023 5.92624947304041e-05 7.6054510950724e-05 -4.02705918710615e-05 -0.000771333349529775 -0.000113220868813952 -0.000171304433227184 -0.000204441126108898 0.000216803719577938 0.00028860514557268 -2.36980539300498e-05
"167" 0.00018920996812233 8.0044170504154e-05 0.000266323073449596 0.000252840730266952 0.000128331409194352 0.000123331373873957 6.45273427697385e-05 8.11057336107028e-05 -4.09346235887537e-05 -0.000781913131086194 -0.000111854226140078 -0.00017393223587674 -0.00019609035002156 0.000219360904197732 0.000287796867462965 -1.61800724986525e-05
"168" 0.000186117738083108 8.74325483124051e-05 0.000264746540644161 0.000260994786416616 0.000130114664767865 0.000126595385966948 6.93990506641172e-05 8.5726810510344e-05 -4.19536071841717e-05 -0.000790222203201194 -0.00011079562615071 -0.000177052780770312 -0.000188004172163558 0.000220563350059488 0.000285685079481577 -8.73888873415754e-06
"169" 0.000182780859153487 9.45984232425779e-05 0.000263016197297368 0.000268672287500455 0.000131441245675059 0.000129499798094689 7.38844676463647e-05 8.99216725235267e-05 -4.3335377538572e-05 -0.000796183953099005 -0.000110048599854278 -0.000180636184412598 -0.000180194347940851 0.000220393314530421 0.000282269568557474 -1.3961647489782e-06
"170" 0.000179230158606833 0.000101557123624045 0.000261151888563845 0.000275899496850735 0.00013231321376132 0.000132031000066072 7.7996584443176e-05 9.3704021270074e-05 -4.50867972017013e-05 -0.000799767544226094 -0.000109616428617716 -0.000184637766388334 -0.000172664585839884 0.000218835839252897 0.000277561541723292 5.81586921774131e-06
"171" 0.000175502655039355 0.000108327109439918 0.000259180783467877 0.000282701972364086 0.000132744707391235 0.00013418433781836 8.17496134346354e-05 9.70899883010846e-05 -4.72125912747149e-05 -0.000800934731680287 -0.000109497831332761 -0.000189011585036207 -0.000165413706811045 0.000215886714602052 0.000271582760807433 1.28838883924118e-05
"172" 0.000171636330359039 0.000114924953755875 0.000257125440310988 0.000289111248503147 0.000132744758018481 0.000135954342970921 8.51576274400381e-05 0.000100096912728216 -4.97164496994486e-05 -0.000799673174427717 -0.000109692567051923 -0.000193705704231731 -0.000158441323677791 0.000211552520553978 0.000264363848217097 1.97908153723105e-05
"173" 0.00016766916403768 0.000121370957739013 0.000255012409313499 0.000295163712328928 0.000132332030374419 0.000137337822992997 8.82456190660838e-05 0.000102745298921792 -5.25951298302279e-05 -0.000795984687736178 -0.000110192540103377 -0.00019866127770919 -0.000151729481443251 0.000205848068973574 0.000255948719859641 2.6525326596092e-05
"174" 0.000163643117960581 0.000127689673631696 0.000252866330097061 0.000300905511206745 0.000131518857298764 0.000138336506407109 9.10330968448826e-05 0.000105063392022991 -5.58544513654405e-05 -0.000789899555519581 -0.000110991753208031 -0.000203816053889037 -0.000145268599724864 0.000198795927261502 0.000246390362108639 3.30855637118365e-05
"175" 0.000159596601681413 0.000133902920003621 0.000250711360922097 0.000306372155171979 0.000130324381258886 0.000138949647282522 9.35397435274209e-05 0.000107070971449196 -5.94896764417991e-05 -0.000781439381698166 -0.000112081672504528 -0.000209109985389562 -0.000139048917132551 0.000190425322017447 0.000235743186406774 3.94733860222166e-05
"176" 0.000155571099546411 0.000140034662608232 0.000248574347634948 0.000311611963022032 0.000128774542781549 0.000139184462832638 9.57952138398322e-05 0.000108800406113595 -6.34927506546257e-05 -0.000770659597320606 -0.000113448031931916 -0.000214474667839992 -0.000133039267118794 0.000180777849532394 0.00022407998613584 4.56928295012544e-05
"177" 0.000151607203128776 0.000146114384106414 0.000246478058521071 0.000316674506105535 0.000126886604552616 0.000139046289128087 9.78219001616449e-05 0.00011027822240921 -6.78570999760175e-05 -0.000757632083216505 -0.000115079295389712 -0.000219842415481203 -0.000127225560863251 0.000169902534648536 0.000211475586594393 5.17519738460402e-05
"178" 0.000147741581105378 0.000152163235892949 0.000244447167986457 0.000321601399719994 0.000124684359245137 0.000138543172689204 9.9650180081557e-05 0.000111535096500945 -7.25777944151367e-05 -0.000742433077803491 -0.000116959846671291 -0.000225147291962247 -0.000121578243889082 0.000157852664079417 0.000198008734319796 5.76666031763382e-05
"179" 0.000144013862218275 0.000158211343849864 0.000242500706134206 0.000326446542665126 0.000122190970982627 0.00013768253309622 0.000101306414590202 0.000112601176113237 -7.76386079229786e-05 -0.00072516434303576 -0.000119069818383035 -0.00023032021652642 -0.000116076384483755 0.000144693624831648 0.000183768962601703 6.34590616734718e-05
"180" 0.000140457080079048 0.000164280117850804 0.000240658928275175 0.000331251199513612 0.000119429222856019 0.000136476640049211 0.000102815257611868 0.000113505043683318 -8.30276283958781e-05 -0.000705921162854867 -0.000121395791204593 -0.000235301299047104 -0.000110691913804312 0.000130490567398091 0.000168845442899427 6.91460123152172e-05
"181" 0.000137105896607723 0.000170395520809482 0.000238943097529648 0.000336063253442222 0.000116426925517406 0.000134939597754607 0.000104201230369523 0.000114275814168354 -8.8731303084496e-05 -0.000684838689941263 -0.000123913518865147 -0.000240024900759289 -0.000105396925235674 0.000115317950293066 0.000153331857311992 7.47528968879156e-05
"182" 0.000133990856496103 0.000176577501095287 0.000237369847193343 0.000340926315316555 0.000113201303601557 0.000133079846062168 0.000105497373906089 0.00011494490265785 -9.47266226916434e-05 -0.000662045246696609 -0.000126604357402075 -0.000244431411111244 -0.0001001637899774 9.92575232010591e-05 0.000137331394063544 8.03065871427166e-05
"183" 0.000131138702564799 0.000182846162138751 0.00023594907136294 0.000345880624596648 0.000109774628701488 0.000130910809266792 0.000106718667066943 0.000115532094030288 -0.000101002334251341 -0.000637678913188713 -0.00012944827659145 -0.000248470600219788 -9.49742993066552e-05 8.23874562093947e-05 0.000120932858760675 8.58328978548237e-05
"184" 0.000128570952261844 0.000189220476116506 0.000234696756039803 0.000350961050100346 0.000106166151179924 0.000128450051461496 0.000107890616255919 0.000116068466734306 -0.000107532162605233 -0.000611895408500033 -0.000132422442180986 -0.00025209281858051 -8.97993812092717e-05 6.47975871838288e-05 0.000104238308677097 9.13600385458586e-05
"185" 0.000126314994070528 0.00019571803579926 0.000233622510631393 0.000356203408860531 0.00010240280509173 0.000125708010940804 0.000109038953457014 0.000116577768078207 -0.000114294063472522 -0.000584868932807128 -0.000135507391637298 -0.000255249267006712 -8.4618127686646e-05 4.65787142874133e-05 8.73475633865137e-05 9.69169833299234e-05
"186" 0.000124381509330794 0.000202346005828234 0.000232727288269657 0.000361631314783865 9.84927747472554e-05 0.000122700586026618 0.000110177332803694 0.000117075881566358 -0.000121267389657682 -0.00055675603814513 -0.000138678938633883 -0.000257907558759714 -7.94112064386686e-05 2.78196635301538e-05 7.03526117445795e-05 0.000102529716387622
"187" 0.000122786111446823 0.000209115400419278 0.000232020288827456 0.000367273951951385 9.44588821847874e-05 0.000119438955264256 0.000111322775973833 0.000117586044795625 -0.000128424660592611 -0.00052774125086686 -0.000141918612456304 -0.000260031742024491 -7.41618960937256e-05 8.616262455059e-06 5.33513299483805e-05 0.000108222412300097
"188" 0.000121533728312105 0.000216028309544703 0.000231499908334238 0.000373143002217332 9.0307842613935e-05 0.000115938616672897 0.000112487140056223 0.000118120043590348 -0.000135745478721484 -0.000497998286346005 -0.00014520549197698 -0.000261603963451121 -6.88578447510516e-05 -1.09459223473239e-05 3.64243309640883e-05 0.000114021031466299
"189" 0.000120630637858413 0.000223094959644364 0.000231164777386799 0.000379253308930968 8.60584497618238e-05 0.000112212867336433 0.000113689374006439 0.000118694705871152 -0.000143200260092083 -0.000467730785398677 -0.000148517620709793 -0.000262599647029916 -6.34844435235466e-05 -3.07679580390605e-05 1.96665447585293e-05 0.000119944373800621
"190" 0.00012007799903072 0.000230306940358823 0.00023101144452801 0.000385608381628075 8.17170321641396e-05 0.000108272736282467 0.000114934121763546 0.000119317153507017 -0.000150761677204879 -0.000437110293512714 -0.000151837943801439 -0.000263015518366325 -5.80387415258979e-05 -5.07594555394601e-05 3.15052530071887e-06 0.000126005178975514
"191" 0.000119864596873096 0.000237656933187464 0.000231024167320244 0.000392207431877811 7.72903024049873e-05 0.000104132224446836 0.000116221877739739 0.000119991107264822 -0.000158407580784888 -0.000406325540935933 -0.000155151981947259 -0.00026284898656137 -5.25259146199598e-05 -7.08362011784737e-05 -1.30510810005293e-05 0.000132218956392957
"192" 0.000119986977592622 0.000245140353057363 0.000231202082806076 0.000399046407671358 7.27827612078206e-05 9.98004226962011e-05 0.00011756528348076 0.000120725956188546 -0.000166110704138348 -0.000375576518206181 -0.000158440120559292 -0.00026210461627889 -4.69363125594536e-05 -9.09112063860137e-05 -2.88659884146456e-05 0.000138589556533847
"193" 0.00012042888437131 0.000252743247127786 0.000231525732056365 0.000406110523454505 6.82017998399554e-05 9.5288118483403e-05 0.000118958178327876 0.000121519030175038 -0.000173845734874965 -0.00034504743354165 -0.00016169141861581 -0.000260797463392482 -4.12828594175774e-05 -0.000110897623119967 -4.42342635417378e-05 0.000145114640382892
"194" 0.000121171966223743 0.000260447118454473 0.000231983747296097 0.000413378621878218 6.35449464742278e-05 9.06062797911289e-05 0.000120402949574956 0.000122370493374842 -0.000181585157401828 -0.000314920272882699 -0.000164887825031217 -0.000258943446598032 -3.55737444925632e-05 -0.000130716930989252 -5.91037266649046e-05 0.000151796227737464
"195" 0.00012219525516404 0.000268228744968937 0.000232547925684351 0.00042082467403586 5.88107111740878e-05 8.57619690434043e-05 0.000121888879773096 0.000123269083520789 -0.000189310466196986 -0.00028536936699224 -0.000168020400739082 -0.000256575963073337 -2.98241926988273e-05 -0.00015029736669621 -7.34317801897145e-05 0.000158615691609501
"196" 0.000123472000579168 0.000276067066277588 0.000233207735250659 0.000428419768449072 5.39967883651661e-05 8.07656384536144e-05 0.000123413565074972 0.000124211924022333 -0.000196995866228635 -0.000256567646580768 -0.000171082552624571 -0.000253726413592121 -2.40537339219659e-05 -0.000169569831719661 -8.7178292773852e-05 0.000165555893405941
"197" 0.000124974813992497 0.000283933102842438 0.000233935247229791 0.000436121359307289 4.91005448791165e-05 7.56218794097325e-05 0.000124964675035036 0.000125187416356664 -0.000204618223095674 -0.000228684685144932 -0.000174061964311998 -0.000250432276605527 -1.82850185617959e-05 -0.000188462169042181 -0.0001003110749687 0.000172590757617798
"198" 0.000126669537644447 0.000291796178439128 0.000234705084289757 0.000443891520721132 4.4117617808375e-05 7.0339671033421e-05 0.000126532943092299 0.00012618055256268 -0.000212162693084996 -0.000201871612564233 -0.00017695810347079 -0.000246742471603684 -1.25414340560435e-05 -0.000206922458967848 -0.000112811716396787 0.000179690402336812
"199" 0.00012852581373255 0.00029962411978798 0.000235495154043048 0.000451682917800134 3.90387455032119e-05 6.49230825848221e-05 0.000128106303528448 0.000127179764387283 -0.000219603904193888 -0.000176274779314988 -0.000179759455703055 -0.000242702879994452 -6.85311453329821e-06 -0.000224892189284018 -0.000124663008262884 0.000186816243891776
"200" 0.000130498441535502 0.000307379885814513 0.000236275359973515 0.000459439814368313 3.38586801441259e-05 5.93783485828811e-05 0.000129663556130445 0.000128162779488621 -0.000226930131407793 -0.000152018088721399 -0.000182471026063633 -0.000238373070642238 -1.25437808854344e-06 -0.0002423265772656 -0.000135864034597289 0.00019391463842644
"201" 0.000132553655728738 0.000315028912605613 0.000237021439637543 0.000467113916872306 2.85694564711749e-05 5.37144447137803e-05 0.000131195331590158 0.000129118372124356 -0.000234124863501265 -0.000129228453776866 -0.000185086372231628 -0.000233805141635319 4.22256772894194e-06 -0.0002591823297793 -0.000146408284625068 0.000200937366859875
"202" 0.000134649020496183 0.000322528071462663 0.000237697595540286 0.000474636594097338 2.31606196848968e-05 4.79306308949565e-05 0.000132674999047188 0.00013001808028622 -0.00024117373419378 -0.000108004900115255 -0.000187611946881589 -0.000229065104182921 9.53886835549285e-06 -0.000275427569429833 -0.00015631465749401 0.000207821325290606
"203" 0.000136739541553606 0.000329838274366607 0.000238283216840471 0.00048195660196533 1.76254886297416e-05 4.20353229645215e-05 0.000134089381555369 0.000130847490741909 -0.000248065043365717 -8.84337743073732e-05 -0.000190045562971023 -0.000224212865783176 1.46531331016618e-05 -0.000291026724662278 -0.000165590895582436 0.000214503428683869
"204" 0.000138789589434647 0.000336917123274393 0.000238747145539301 0.000489008279223517 1.19596926326845e-05 3.60304418680382e-05 0.000135419624443984 0.000131584561103324 -0.00025479221522586 -7.06005024265344e-05 -0.000192392029647506 -0.000219309936538091 1.95308315905009e-05 -0.000305962119362263 -0.000174262445952368 0.000220913282706956
"205" 0.000140749814067698 0.000343727669915887 0.00023906307243113 0.000495730802853145 6.15398026940776e-06 2.9925231618733e-05 0.000136645418621846 0.000132206429681429 -0.000261341958541369 -5.45528916244442e-05 -0.000194658996289876 -0.000214423497366712 2.41297511017283e-05 -0.000320213533140576 -0.000182355002106232 0.000226971726484241
"206" 0.000142579303909042 0.000350224404736249 0.000239202875542305 0.000502053394714363 2.00257773565193e-07 2.37191606888744e-05 0.000137744870570592 0.000132690303418209 -0.000267715402354814 -4.03329955773079e-05 -0.000196848598961607 -0.000209615693988944 2.84024884986124e-05 -0.000333772596027086 -0.000189907685916397 0.000232597319911746
"207" 0.000144237028703828 0.000356367995300693 0.000239140673734773 0.000507920843660993 -5.90512567837279e-06 1.74220821211677e-05 0.000138702666415552 0.000133019130382115 -0.000273903789196083 -2.79647370697951e-05 -0.000198971463600225 -0.000204948595328971 3.23148625479308e-05 -0.000346626354543292 -0.000196955175962026 0.000237713419034393
"208" 0.000145680447883283 0.000362117829206586 0.000238853281584032 0.000513268798576307 -1.21653669627128e-05 1.10386383751123e-05 0.000139496413663479 0.000133170517911684 -0.000279906240245801 -1.74619236152576e-05 -0.000201034335743147 -0.000200483162958563 3.58244991129722e-05 -0.000358781409943149 -0.000203544230416503 0.000242231084973376
"209" 0.000146872289385252 0.000367435956177206 0.000238318811282731 0.000518038189684675 -1.85799249892444e-05 4.57393127348124e-06 0.00014011111584338 0.000133120815970832 -0.0002857200650693 -8.80835615477676e-06 -0.000203044147081497 -0.000196275773178541 3.88893306008887e-05 -0.000370241841118766 -0.000209719273986221 0.000246066658521338
"210" 0.000147776048037245 0.000372287051182029 0.000237518467987384 0.00052216935294359 -2.51508328482256e-05 -1.96208191625295e-06 0.000140528553747179 0.000132857385029764 -0.000291349415340192 -1.98757913832269e-06 -0.000205012264324727 -0.000192379389645123 4.14762841263994e-05 -0.000381011820764657 -0.000215530767631147 0.000249134596292127
"211" 0.000148357679203206 0.000376636530683168 0.000236436045507504 0.000525613586625977 -3.18774834794288e-05 -8.56424983114811e-06 0.000140732360330549 0.000132361748180918 -0.000296792788215757 3.03700039253334e-06 -0.000206946360006517 -0.000188844240822476 4.35486080082311e-05 -0.000391108136022542 -0.00022103166727245 0.000251347574990956
"212" 0.000148583839669001 0.000380451063771912 0.000235052998221123 0.000528318296028143 -3.87518773505917e-05 -1.52206659071213e-05 0.000140711287312292 0.000131618036476637 -0.000302054821263114 6.32502068370725e-06 -0.000208855493040979 -0.000185713420802699 4.50750708445876e-05 -0.000400545276389181 -0.000226277185655216 0.000252624876782931
"213" 0.00014842629391713 0.000383705335551797 0.000233359922140939 0.000530237429714914 -4.57697974631529e-05 -2.19258262454509e-05 0.000140455443828021 0.000130614289774541 -0.000307142196522581 7.93718617398282e-06 -0.000210751185034802 -0.000183028922889481 4.60236882424035e-05 -0.000409347979277157 -0.000231325754634891 0.000252888686692606
"214" 0.000147862966448348 0.000386375704279421 0.000231348288885981 0.000531336274389137 -5.29207742495437e-05 -2.86648237054413e-05 0.000139950101379319 0.000129339638506074 -0.000312053983295029 7.94822418735637e-06 -0.000212637321653693 -0.000180820627129762 4.63693807647019e-05 -0.000417534579597125 -0.000236225910882762 0.000252063929528469
"215" 0.000146870161116924 0.000388439788139049 0.000229011818876593 0.000531580646896232 -6.01929489946369e-05 -3.54283652263544e-05 0.000139188134817417 0.000127786647447199 -0.000316799053654395 6.44624758155448e-06 -0.000214526055607417 -0.0001791170972217 4.60931466467249e-05 -0.000425134237996726 -0.000241036270657038 0.000250086830995365
"216" 0.000145430385404264 0.000389881899230192 0.000226349950257155 0.000530938797463323 -6.75751283084539e-05 -4.22038859283599e-05 0.000138167259742249 0.000125947414708131 -0.000321381788095749 3.52543805055255e-06 -0.000216420996087858 -0.000177935544252093 4.51756987443026e-05 -0.000432171538522062 -0.000245808876875969 0.000246892515839487
"217" 0.000143533334210297 0.000390685433176159 0.000223362891364879 0.000529390978959178 -7.50477292805443e-05 -4.89794101314813e-05 0.000136884012031976 0.000123819943046243 -0.000325813537175431 -6.97745079269815e-07 -0.000218334340890007 -0.000177295357330136 4.36020079914847e-05 -0.000438680003057067 -0.000250603953125522 0.000242427688103034
"218" 0.000141170018581799 0.000390847078957252 0.000220056675760196 0.000526923655777572 -8.25922812568054e-05 -5.57360401891973e-05 0.00013533540943512 0.000121403547819944 -0.000330090719387701 -6.12492960478612e-06 -0.00022026559805491 -0.000177195771627792 4.13681374675752e-05 -0.000444686088105954 -0.000255462324288202 0.000236651851515605
"219" 0.000138333344644917 0.000390362134316948 0.000216436471284927 0.000523529477813112 -9.01908188504923e-05 -6.24615788255267e-05 0.000133522739715461 0.000118699898998823 -0.000334226316567448 -1.26331988522604e-05 -0.000222221494550898 -0.000177639247797174 3.84673789791073e-05 -0.000450220248385007 -0.000260437045799744 0.000229529307476712
"220" 0.000135025786073951 0.000389234152223971 0.00021251577338572 0.000519210164516674 -9.78184265273927e-05 -6.91402945064246e-05 0.000131454473214797 0.000115713850183364 -0.000338222627209279 -2.01066449216413e-05 -0.000224204851418113 -0.000178614268374556 3.49031898007257e-05 -0.000455315399917276 -0.000265567150998008 0.000221039524970562
"221" 0.000131254480367766 0.000387464431308826 0.000208314269112263 0.000513973749785893 -0.000105445970009797 -7.57523868626188e-05 0.000129133752394901 0.00011245630226115 -0.000342081202649709 -2.84231645192378e-05 -0.000226219169665441 -0.000180104963590867 3.0683159728723e-05 -0.000459998335506085 -0.00027089260402585 0.00021117110604234
"222" 0.000127025176322274 0.000385064455690379 0.000203841794584443 0.000507827046718609 -0.000113053341333375 -8.22844518298429e-05 0.000126571202299949 0.000108930596473809 -0.000345814280064012 -3.74512674734316e-05 -0.000228264709192561 -0.00018209402193843 2.58131939934214e-05 -0.000464304301508791 -0.000276455080763511 0.000199922934810219
"223" 0.00012235094604271 0.000382053701559239 0.000199124608865226 0.000500795514280643 -0.000120608054633005 -8.87161572107578e-05 0.000123776885333988 0.00010515451559902 -0.000349415748691151 -4.70756469591428e-05 -0.000230340804437413 -0.000184546464116534 2.0319189925782e-05 -0.000468255362518919 -0.000282277661229479 0.000187311359433667
"224" 0.000117251462047868 0.000378447306139168 0.000194183667174523 0.000492906602945656 -0.000128082493201656 -9.50299095579736e-05 0.000120767847620762 0.000101142265356507 -0.000352891234532618 -5.71734376943742e-05 -0.000232440536874248 -0.000187428667379272 1.42162341338692e-05 -0.0004718806672842 -0.000288388390816919 0.00017336405080566
"225" 0.000111746888325574 0.000374273182244361 0.000189048700974049 0.000484193411749504 -0.000135446015271398 -0.000101205660889606 0.000117552745868699 9.69074490677866e-05 -0.000356240622151737 -6.76208850178238e-05 -0.000234564220607178 -0.000190700211698864 7.53354166667152e-06 -0.000475207048111269 -0.000294808176698168 0.000158116423328192
"226" 0.000105859833522385 0.000369553308326357 0.000183743040324403 0.000474692447544359 -0.000142666865099645 -0.000107230385125703 0.000114154312168884 9.24725354903122e-05 -0.000359462179867263 -7.82992327824758e-05 -0.000236706691839316 -0.000194314227629295 2.98037414410931e-07 -0.000478255859866043 -0.000301550772733292 0.000141621439597266
"227" 9.96215694573392e-05 0.000364327915248015 0.000178306258285888 0.000464457093997437 -0.000149714362875933 -0.000113077704215595 0.000110590631814273 8.78577762224963e-05 -0.000362552789810061 -8.91059686655431e-05 -0.000238859666371074 -0.000198214416668106 -7.4465907440314e-06 -0.000481045487903676 -0.000308622066257221 0.000123947329177712
"228" 9.3062725234534e-05 0.000358626868767471 0.00017276470728598 0.000453531283428339 -0.000156554225385515 -0.000118735085231947 0.000106883850183738 8.3087049514442e-05 -0.000365510416101911 -9.99312197484235e-05 -0.000241015551565931 -0.00020234832055723 -1.56684985367663e-05 -0.000483595782184291 -0.00031602870300027 0.000105172909290753
"229" 8.6214663800606e-05 0.00035249076034976 0.000167153245593394 0.000441972728281184 -0.000163158891784814 -0.000124181908067976 0.000103052891896357 7.81808042043618e-05 -0.000368329491095812 -0.000110670957739074 -0.000243162359853444 -0.000206656542371345 -2.43235325390864e-05 -0.000485922368641158 -0.000323764818516892 8.53833925585855e-05
"230" 7.9120246685545e-05 0.000345964028275229 0.000161508866811459 0.000429840480374427 -0.00016949878248887 -0.000129405211420148 9.91238145226452e-05 7.31686170038905e-05 -0.000370998840312775 -0.000121235714473745 -0.000245291871348934 -0.000211075478109559 -3.33580161320001e-05 -0.000488032237038397 -0.000331818283554026 6.46833809998946e-05
"231" 7.18121465531118e-05 0.000339087754191789 0.000155870429368859 0.00041720002130483 -0.000175537051301678 -0.000134383044930663 9.51200765387663e-05 6.80749337077466e-05 -0.000373512600022656 -0.00013154006818646 -0.000247390662403974 -0.000215537890646388 -4.27327681876963e-05 -0.000489940145801646 -0.000340180328020427 4.31840402121953e-05
"232" 6.43346884484631e-05 0.000331910701764652 0.000150274218342705 0.000404112601777661 -0.000181247410293106 -0.000139103858363051 9.10667396232394e-05 6.29265888019531e-05 -0.000375858217695484 -0.000141495901825218 -0.00024944439720978 -0.000219980291582329 -5.23889986618213e-05 -0.000491647807891721 -0.000348826083100871 2.1007808856285e-05
"233" 5.67246600227335e-05 0.000324479779992409 0.000144752732220416 0.000390649782788746 -0.00018660858789325 -0.00014355266486776 8.69866941481558e-05 5.77500358347294e-05 -0.000378026083403471 -0.000151036552696546 -0.000251441956367604 -0.000224338732439813 -6.2278302439225e-05 -0.000493161839721959 -0.000357736463941666 -1.71563631399741e-06
"234" 4.90282153191784e-05 0.000316848464102279 0.000139348275866222 0.000376879795690748 -0.000191588202412144 -0.000147715541901125 8.29079898420298e-05 5.25744943156192e-05 -0.000379998979138088 -0.000160099766769731 -0.000253365138225504 -0.000228539061957128 -7.23440590296371e-05 -0.000494479551808479 -0.000366873202583654 -2.48455754262255e-05
"235" 4.12885900349431e-05 0.000309066209438867 0.000134097988791525 0.000362878733872079 -0.000196165947973422 -0.000151581143087792 7.8854520690074e-05 4.7427349043627e-05 -0.000381763966245163 -0.000168629106597069 -0.000255199927527404 -0.000232522105403959 -8.25284379861268e-05 -0.000495599895041521 -0.000376204328532508 -4.82385814910472e-05
"236" 3.35485342790014e-05 0.000301185293893061 0.00012903263489083 0.000348710843879733 -0.000200318854404355 -0.000155139557621873 7.48515488138229e-05 4.23354475414303e-05 -0.000383304272069657 -0.000176574146981839 -0.00025693149837907 -0.000236219262873758 -9.27770733086951e-05 -0.000496515832460092 -0.000385691321478748 -7.17438746299909e-05
"237" 2.58482132244707e-05 0.000293256133935778 0.00012419410768224 0.000334449186472064 -0.000204027963543616 -0.000158380503669597 7.09237438509492e-05 3.73241482645006e-05 -0.000384604610418326 -0.000183898228818633 -0.00025853956744352 -0.000239571705796639 -0.000103032195032696 -0.000497220509992007 -0.000395289623903034 -9.52045573885663e-05
"238" 1.82326350804458e-05 0.00028532919100697 0.000119611870547608 0.000320165741108396 -0.00020727924370079 -0.000161299442318047 6.70983472432751e-05 3.2419786093477e-05 -0.00038564167323167 -0.000190565699321028 -0.000260012287414124 -0.00024252113729734 -0.000113238989931591 -0.000497705513247716 -0.000404954771837085 -0.000118467396256348
"239" 1.07420758692419e-05 0.000277461223009578 0.00011532170998651 0.000305932896548135 -0.000210056763116346 -0.000163888265413295 6.33952781891898e-05 2.76522647864375e-05 -0.000386393361466711 -0.000196560948793908 -0.000261327620491095 -0.00024500667517769 -0.000123338167464472 -0.000497952874379991 -0.000414632546509924 -0.000141370178383504
"240" 3.41675181172109e-06 0.000269696184705704 0.00011134869757937 0.000291809605457811 -0.000212351838124233 -0.000166144386709489 5.98350751886808e-05 2.30390492330397e-05 -0.000386847467171218 -0.000201854658766263 -0.000262472461621143 -0.000246986354575248 -0.000133284954172578 -0.000497954861428318 -0.000424277648075963 -0.000163756249926843
"241" -3.70595835103307e-06 0.000262084559903151 0.000107727881889832 0.000277863839468577 -0.00021415432820328 -0.000168066857342706 5.64428438345484e-05 1.86064882905337e-05 -0.000386974877884273 -0.000206444487792429 -0.000263430988345349 -0.000248407641774715 -0.000143020358434045 -0.000497690820150013 -0.000433830432349701 -0.000185466878054739
"242" -1.05904799226508e-05 0.000254668441582165 0.000104479116027328 0.000264157170245977 -0.000215460021935831 -0.00016965381150846 5.32374088533093e-05 1.43735626495077e-05 -0.000386761563121069 -0.000210325431641543 -0.000264185443852165 -0.000249234301095512 -0.000152499496421772 -0.000497146647085938 -0.000443239054996905 -0.000206350871870595
"243" -1.71975282803276e-05 0.000247500778224214 0.000101632451091198 0.000250752178491413 -0.000216269961206879 -0.000170906673035387 5.0236682966705e-05 1.03633435339879e-05 -0.000386179494817422 -0.00021350738482624 -0.00026471905698132 -0.000249427630017043 -0.000161670391572606 -0.000496307040081508 -0.000452445578593963 -0.00022625597460311
"244" -2.35002380972001e-05 0.000240617770637598 9.92020931024946e-05 0.000237695768512097 -0.000216582150353402 -0.000171831036219194 4.74541835224001e-05 6.59061266803167e-06 -0.000385208873644817 -0.000215994910927558 -0.000265021414446371 -0.00024895973092472 -0.000170490902788342 -0.000495145388747847 -0.000461396338977591 -0.000245043354717943
"245" -2.94701535754398e-05 0.000234059061015863 9.72095872293424e-05 0.000225043942858283 -0.000216404294550244 -0.000172431448391725 4.49089752169956e-05 3.07233995431793e-06 -0.000383827667333066 -0.000217797485398706 -0.000265078598533287 -0.000247811803370396 -0.000178922029766529 -0.000493651576645643 -0.000470033812982621 -0.000262577083055406
"246" -3.50774542099479e-05 0.00022785756750962 9.56736766939473e-05 0.00021283920203241 -0.000215742970824642 -0.000172711515593632 4.26140635015915e-05 -1.78271526896908e-07 -0.000382019123430175 -0.000218943496398504 -0.000264876882820839 -0.000245963597931359 -0.000186929021781044 -0.000491804243801439 -0.000478305295770148 -0.000278728513066254
"247" -4.02989270648548e-05 0.000222052246413477 9.46000547905907e-05 0.000201125475266272 -0.00021460326279902 -0.000172682648338612 4.058217021101e-05 -3.14455635507228e-06 -0.000379755613933981 -0.000219461908628543 -0.000264402933431146 -0.000243405185969814 -0.000194467655626098 -0.000489583892913701 -0.000486150312941467 -0.000293379497480824
"248" -4.51205528153622e-05 0.000216664878440898 9.40028276061233e-05 0.000189937498148483 -0.000213006213114142 -0.000172355988838857 3.8815737580101e-05 -5.82221433053858e-06 -0.000377024789792199 -0.000219362634451769 -0.000263650264246275 -0.000240138757309107 -0.000201525850185906 -0.000486975768072056 -0.000493524555428664 -0.000306432330590568
"249" -4.95131831478727e-05 0.000211727400393474 9.3887313401484e-05 0.000179313288896433 -0.000210961593488357 -0.000171736760967625 3.73360214728148e-05 -8.19442886218039e-06 -0.000373803468921726 -0.000218705509895248 -0.000262608654072546 -0.000236160083936942 -0.000208060237259788 -0.00048396046976693 -0.000500368644230702 -0.000317784667487311
"250" -5.34777304751972e-05 0.000207255387353586 9.42527085851682e-05 0.000169271188836931 -0.000208489270323633 -0.000170841748104164 3.61348770750283e-05 -1.02656138855883e-05 -0.000370079546496697 -0.000217498468625128 -0.000261274537412894 -0.000231490174594105 -0.000214063460660202 -0.000480531458477416 -0.000506648248613754 -0.000327370207437901
"251" -5.69907858904453e-05 0.000203272261520585 9.51075574688528e-05 0.000159841235500862 -0.000205609621800661 -0.000169681572275329 3.52270028306034e-05 -1.20218799427031e-05 -0.000365833070153378 -0.00021580152342965 -0.000259635036928944 -0.000226134968615333 -0.000219511919507015 -0.00047666303206254 -0.000512304571805385 -0.000335115038665738
"252" -6.00531496344617e-05 0.000199788140142128 9.64440784344251e-05 0.000151035145341251 -0.000202340789007395 -0.000168272811525498 3.46090256239651e-05 -1.34660266733759e-05 -0.000361055500881191 -0.000213645127552148 -0.000257693445964943 -0.000220123056382243 -0.00022439546857703 -0.000472358320942358 -0.000517306063270872 -0.000340973075921117
"253" -6.26569184467859e-05 0.000196812507587478 9.82524922810525e-05 0.000142867523317046 -0.000198713320994057 -0.000166630108214039 3.42834788103397e-05 -1.45953473798958e-05 -0.000355728935400727 -0.000211070270593814 -0.000255443614917154 -0.000213481310491524 -0.000228705961952295 -0.000467597865705282 -0.000521608876980015 -0.000344910250379318
"254" -6.47999985971991e-05 0.000194353383251607 0.000100532521495067 0.000135349315280214 -0.000194743913570962 -0.000164766959580539 3.42510332486067e-05 -1.54100043303896e-05 -0.000349847031417899 -0.000208126031132526 -0.000252886123738063 -0.00020624402385294 -0.000232439965684803 -0.000462381107978132 -0.000525180381188471 -0.000346907734647177
"255" -6.64897581368767e-05 0.000192408228716402 0.000103265256653198 0.00012847496351686 -0.000190467798274305 -0.000162704331615327 3.45038399803669e-05 -1.5918157613647e-05 -0.000343405798232086 -0.000204845309125279 -0.000250024385241963 -0.000198450812181809 -0.000235600385116772 -0.000456705377143342 -0.000527995755918979 -0.000346968568350803
"256" -6.77253280756674e-05 0.000190978861803197 0.00010644234998986 0.000122253907616465 -0.000185904882610202 -0.000160452838696734 3.5045181288961e-05 -1.61186227099939e-05 -0.000336397099710594 -0.000201283423751861 -0.000246858108409106 -0.000190140575417484 -0.000238186329450203 -0.000450565042546213 -0.000530024459130133 -0.000345107053325137
"257" -6.85182365384632e-05 0.000190059721021565 0.000110042070792417 0.000116670568884264 -0.000181090334465223 -0.000158033391264744 3.58650963438762e-05 -1.6020875730745e-05 -0.000328821413820209 -0.000197477272654853 -0.00024339266170437 -0.000181366063055193 -0.000240214719183312 -0.000443964913960136 -0.000531248233320219 -0.000341355543067602
"258" -6.88765161598476e-05 0.000189639423435381 0.000114049530190802 0.00011172511295143 -0.0001760448233482 -0.000155461719114201 3.69574503926515e-05 -1.5629220195845e-05 -0.00032067534788621 -0.000193473233626761 -0.000239632809278341 -0.000172172992833617 -0.000241687140921333 -0.000436907816797443 -0.000531647786662206 -0.000335761513853123
"259" -6.88140969665585e-05 0.000189706677561971 0.000118443395571987 0.000107397902476358 -0.000170800618190532 -0.000152752639729079 3.83122771115195e-05 -1.49570073094533e-05 -0.000311963552026389 -0.000189312600690837 -0.00023558858764891 -0.000162616263066362 -0.000242631558561411 -0.000429407489696074 -0.000531212832680505 -0.00032839118430963
"260" -6.83447162163079e-05 0.000190243437584735 0.000123195564797689 0.000103674617896004 -0.000165393046253213 -0.00014992328101295 3.99214275917656e-05 -1.40141755842703e-05 -0.0003026966836087 -0.000185032587236569 -0.000231267690922403 -0.000152753432154175 -0.000243059787656352 -0.000421471348523506 -0.000529938937643462 -0.000319325405849472
"261" -6.74892972412435e-05 0.000191230045160261 0.000128286611779645 0.000100536602700512 -0.000159841968669745 -0.000146993253689858 4.17694652880544e-05 -1.28143602268268e-05 -0.000292877181951201 -0.000180671212555873 -0.00022668150404011 -0.000142640934000063 -0.000243002417647928 -0.000413113283898932 -0.000527823665857252 -0.000308660395511183
"262" -6.62649678881142e-05 0.000192644296193167 0.00013368794140476 9.7959211784866e-05 -0.000154178722635213 -0.000143971855966268 4.3852243259498e-05 -1.13676816784337e-05 -0.000282522740705242 -0.000176268562006736 -0.000221845087688423 -0.000132339627836974 -0.000242477259257716 -0.00040435129492123 -0.000524868179648106 -0.000296505110591884
"263" -6.46916889470433e-05 0.000194462899016719 0.000139370125610662 9.59253042399488e-05 -0.000148430583773129 -0.000140876767830508 4.61491016239436e-05 -9.68858084899785e-06 -0.000271644245929217 -0.000171860464541581 -0.000216766713876647 -0.000121904146504555 -0.000241515674986156 -0.000395203395960306 -0.000521076536040276 -0.000282978470931582
"264" -6.27944050884522e-05 0.000196653747561119 0.0001453061625971 9.43981644879335e-05 -0.000142623173195829 -0.000137724907594013 4.86529485901862e-05 -7.79527157276817e-06 -0.000260263812535888 -0.000167473532094982 -0.0002114669319438 -0.00011140058151462 -0.000240155400957106 -0.00038569499910723 -0.000516469844443669 -0.000268218890179053
"265" -6.05949671099761e-05 0.000199192131865498 0.000151465100480443 9.33570320454178e-05 -0.000136787287845283 -0.000134526739179272 5.1339605918489e-05 -5.70351073527438e-06 -0.000248399611761194 -0.000163141071242945 -0.000205957335380999 -0.000100883572408038 -0.00023842117119941 -0.000375853580416553 -0.000511059105725301 -0.000252368184387834
"266" -5.81220740006183e-05 0.000202044724816145 0.000157812145755929 9.27681946527696e-05 -0.000130944370056111 -0.000131295678381552 5.42001128683369e-05 -3.42787487292081e-06 -0.000236074364410917 -0.000158891013283305 -0.000200258328969177 -9.04143560858506e-05 -0.000236352854922134 -0.00036570149823342 -0.00050486757020169 -0.000235582428201729
"267" -5.53986722116109e-05 0.000205175062272619 0.000164315668784326 9.26023886348563e-05 -0.00012511666603006 -0.0001280439456482 5.72152787039005e-05 -9.93047022097624e-07 -0.000223319335030387 -0.000154739867367289 -0.000194387658213127 -8.00493228933665e-05 -0.000233986257709505 -0.000355272098463022 -0.000497919624264599 -0.000218021071299672
"268" -5.24510380619928e-05 0.000208552541314875 0.000170945683604226 9.28296416925335e-05 -0.000119330728108331 -0.000124784497365823 6.03696095875765e-05 1.58906271515998e-06 -0.000210161056428956 -0.000150716201716594 -0.000188362393965683 -6.9844465108685e-05 -0.000231358363085667 -0.000344599112576513 -0.000490246153329492 -0.000199848068590683
"269" -4.93093061916734e-05 0.000212137116701339 0.000177672612784288 9.34159458912764e-05 -0.000113601783881661 -0.000121523540445783 6.36453359964019e-05 4.29637564433021e-06 -0.000196629569491627 -0.000146839766255974 -0.000182204969759357 -5.98477769646488e-05 -0.000228508279744412 -0.000333711803058821 -0.000481879994461184 -0.000181235520811217
"270" -4.60007455106126e-05 0.000215896050826455 0.000184452129045786 9.43302844460324e-05 -0.000107955620201691 -0.000118273711156202 6.70188277269853e-05 7.10638932000149e-06 -0.000182762507596479 -0.000143122835651523 -0.000175932572050863 -5.01161422957238e-05 -0.000225476874190262 -0.00032264970215464 -0.000472857305603727 -0.000162356492950055
"271" -4.25479808501566e-05 0.000219791328113396 0.000191264016920785 9.55415329947929e-05 -0.00010240404133513 -0.000115044827323909 7.0477878298188e-05 1.00025591441655e-05 -0.000168596127799735 -0.000139582176268447 -0.000169570623278072 -4.06943471123328e-05 -0.000222303321972448 -0.000311445303078206 -0.00046321914450584 -0.000143379878934075
"272" -3.89863962759698e-05 0.000223784722203653 0.000198065852360469 9.70181246593524e-05 -9.69673382937266e-05 -0.000111839678068858 7.39979160808727e-05 1.29629577466015e-05 -0.000154167401273613 -0.000136227561203497 -0.000163136023816416 -3.16244558543533e-05 -0.000219024720341626 -0.000300138973554279 -0.000453007818861145 -0.000124478133255923
"273" -3.53383065746068e-05 0.000227836172406826 0.000204830420789276 9.87235125895422e-05 -9.16617353482629e-05 -0.000108669465577909 7.75621253940734e-05 1.59625387919351e-05 -0.000139519918026819 -0.000133065943603699 -0.000156655295288085 -2.2951719867223e-05 -0.00021568528393087 -0.00028876897665397 -0.000442272120265392 -0.000105822193271437
"274" -3.16318100402912e-05 0.000231914334086194 0.000211521362061808 0.000100632338255024 -8.64993600289095e-05 -0.000105540084213562 8.11513562494767e-05 1.89829033298367e-05 -0.000124692232347724 -0.000130103825712506 -0.000150148143818975 -1.47107632467525e-05 -0.00021232219914732 -0.000277370369373664 -0.000431059010171435 -8.75718538396631e-05
"275" -2.78953826278626e-05 0.000235977711422025 0.000218110084950763 0.000102715119997205 -8.14927286208828e-05 -0.000102455811567217 8.47432042358587e-05 2.20023434359716e-05 -0.000109731990416522 -0.000127344643549838 -0.000143635232934374 -6.93376999350701e-06 -0.000208970565469997 -0.000265982821023768 -0.000419418000190879 -6.98847090172345e-05
"276" -2.41551428211147e-05 0.000239990429497189 0.000224565814119726 0.000104942151394989 -7.66533220293711e-05 -9.94228826630317e-05 8.83187096600276e-05 2.49980362597242e-05 -9.46846941913528e-05 -0.000124792329933679 -0.000137138722007499 3.47994175939763e-07 -0.000205669148811293 -0.000254642925376399 -0.000407403383597523 -5.29069635927747e-05
"277" -2.0430955979161e-05 0.000243921825426835 0.000230855882665018 0.000107286193998801 -7.19886435940064e-05 -9.64469436872806e-05 9.18563128970217e-05 2.79487129876812e-05 -7.95935162543866e-05 -0.000122449169438145 -0.000130683852557757 7.10894291724632e-06 -0.000202456306271299 -0.000243387769101681 -0.000395068358684782 -3.677732949965e-05
"278" -1.67546737465943e-05 0.000247734977267776 0.000236957364000295 0.000109717233236596 -6.75129615974479e-05 -9.35309200387665e-05 9.53342008593743e-05 3.08304655925187e-05 -6.45075962419695e-05 -0.00012030448257187 -0.000124287374038437 1.3327636582989e-05 -0.00019936440385456 -0.000232251403205099 -0.000382469312966124 -2.16229935533465e-05
"279" -1.31460345541507e-05 0.000251398708099109 0.000242835304575442 0.000112212809626201 -6.32304221679979e-05 -9.0680930004551e-05 9.87346206025641e-05 3.36208315653872e-05 -4.94777379418155e-05 -0.000118358683620804 -0.000117976204340965 1.89832902682586e-05 -0.00019642849689182 -0.000221272837889457 -0.000369661572909605 -7.56129218073493e-06
"280" -9.62682969167545e-06 0.000254884016451246 0.00024846874825981 0.000114752594279531 -5.91445168107383e-05 -8.78976961851214e-05 0.000102035262549208 3.63049137089556e-05 -3.45463419235678e-05 -0.000116615905959564 -0.000111765365259162 2.406508564275e-05 -0.00019367447915641 -0.000210477757816023 -0.000356698848700379 5.31197519227271e-06
"281" -6.21803485544647e-06 0.000258160150139941 0.00025383372619217 0.000117311807533118 -5.52680697980504e-05 -8.51856329081123e-05 0.000105220253993662 3.88562105566015e-05 -1.97647364316479e-05 -0.000115065653567086 -0.000105677330940395 2.85625396955285e-05 -0.000191133144079041 -0.000199901803673644 -0.000343639205964583 1.69093447234318e-05
"282" -2.94304725904791e-06 0.000261201379530394 0.000258897457820613 0.000119863555079933 -5.16033924408976e-05 -8.25509874246386e-05 0.000108262124883269 4.12508588955218e-05 -5.18387979222284e-06 -0.000113691851717532 -9.97351789530929e-05 3.2464006265574e-05 -0.000188836411983592 -0.000189573580695405 -0.000330542457627062 2.71546732787508e-05
"283" 1.88868212351811e-07 0.000263986613469592 0.000263650747752376 0.000122398173662698 -4.8150728741166e-05 -7.99928940904476e-05 0.000111149453326814 4.34765834779176e-05 9.15900556171727e-06 -0.000112500878844557 -9.3950955002003e-05 3.57721122160988e-05 -0.000186796071550371 -0.000179514629323792 -0.000317456533565532 3.59980819071908e-05
"284" 3.14838332253803e-06 0.000266486835566734 0.000268062080048952 0.0001248884795781 -4.49187037166096e-05 -7.75183308231962e-05 0.000113855342884972 4.55075246167474e-05 2.32056532561696e-05 -0.000111476005572564 -8.83498395361667e-05 3.84776791671968e-05 -0.000185042931841357 -0.000169752994222302 -0.000304441315682423 4.33951414664693e-05
"285" 5.92807380834141e-06 0.000268688613730335 0.000272118372202966 0.000127322864623273 -4.19088989848729e-05 -7.51294605885869e-05 0.000116367107387888 4.7327189728508e-05 3.6918997171953e-05 -0.000110614470221464 -8.29428639715645e-05 4.05898759901064e-05 -0.000183594064686826 -0.000160306963362438 -0.000291546954486448 4.93281617311021e-05
"286" 8.51112107613135e-06 0.000270573466977576 0.000275802400882599 0.00012968372685512 -3.91243084473546e-05 -7.28318064882698e-05 0.00011866656813905 4.89183062686449e-05 5.02491286489885e-05 -0.000109899397461483 -7.77492844454655e-05 4.21081238042105e-05 -0.000182463157991373 -0.000151197763753802 -0.000278828608971286 5.37826594682135e-05
"287" 1.08829602348309e-05 0.000272126318850758 0.000279094684340558 0.000131954717015284 -3.65650494762748e-05 -7.06245150757124e-05 0.000120736863220266 5.026453665765e-05 6.3157712270789e-05 -0.000109332459774476 -7.2783475735611e-05 4.30448653139427e-05 -0.000181665151212652 -0.000142434797001689 -0.00026632782935013 5.67739630486375e-05
"288" 1.30375684768414e-05 0.000273333082823425 0.000281985899853636 0.000134124051366426 -3.42329331793919e-05 -6.85142113871912e-05 0.000122559669168709 5.13475485813003e-05 7.56014979903785e-05 -0.00010889635889889 -6.80599429764087e-05 4.34066927225919e-05 -0.000181208297670339 -0.000134033428144976 -0.000254097828569972 5.8324525123092e-05
"289" 1.49590176791844e-05 0.000274187108284087 0.000284463585799264 0.000136178831123873 -3.21340147651606e-05 -6.65070979549355e-05 0.000124123829527197 5.21551782424279e-05 8.75418391521207e-05 -0.000108577958829438 -6.35902393197695e-05 4.31998562433795e-05 -0.000181103877446717 -0.00012600078820803 -0.000242183437775374 5.84736829887128e-05
"290" 1.66425095832433e-05 0.000274677826493527 0.00028651532934081 0.000138102191757524 -3.02663868835683e-05 -6.46046573510173e-05 0.000125409966055138 5.26715370431661e-05 9.89411347450515e-05 -0.000108372282820713 -5.93895274503424e-05 4.24403721669254e-05 -0.000181352495879356 -0.000118345093294413 -0.000230623748092576 5.72706623777176e-05
"291" 1.80805636405669e-05 0.000274805098619456 0.000288138381095136 0.000139891963887624 -2.86259886763754e-05 -6.28107731642372e-05 0.000126414633083032 5.28908620043197e-05 0.000109768479739273 -0.000108272326065345 -5.54632953360409e-05 4.11438045157457e-05 -0.000181958728751505 -0.000111066317685212 -0.000219457296395192 5.4790807224288e-05
"292" 1.92703485538219e-05 0.000274567348740308 0.000289325364086298 0.000141533112029048 -2.72210909825752e-05 -6.11289711355643e-05 0.000127119904472814 5.27986102186741e-05 0.000119989087627294 -0.000108264651104259 -5.18236338791815e-05 3.93238332606755e-05 -0.000182920627409433 -0.000104164646767694 -0.000208719359505703 5.11089889472158e-05
"293" 2.02066086599131e-05 0.000273959467293789 0.000290067527544047 0.00014301584093065 -2.60465030530594e-05 -5.95678699006386e-05 0.000127519254994896 5.23859964967965e-05 0.000129571276951897 -0.000108334723293243 -4.84795133524166e-05 3.6993432194582e-05 -0.000184233037623611 -9.76368650876828e-05 -0.000198444279046594 4.6317514814672e-05
"294" 2.08880307146437e-05 0.000272992393169057 0.000290371371408255 0.000144331840343869 -2.51006011546077e-05 -5.81253958066932e-05 0.000127607970182835 5.16521036262072e-05 0.000138496064286075 -0.000108481564795263 -4.54339728364628e-05 3.41725097178993e-05 -0.000185887768575225 -9.14734150493658e-05 -0.000188657782422074 4.05162959432466e-05
"295" 2.1312880714306e-05 0.000271665731231819 0.000290232349343048 0.000145476661949023 -2.43888846573837e-05 -5.68111712254938e-05 0.000127375144101927 5.05860709644642e-05 0.000146734999216012 -0.000108688190987866 -4.26924346559756e-05 3.08763737284945e-05 -0.000187878397209231 -8.56673772806273e-05 -0.000179385411711477 3.38127018497757e-05
"296" 2.14867682115439e-05 0.000269990594444433 0.000289654305816098 0.000146442356511622 -2.39011333186555e-05 -5.56246601613087e-05 0.00012682125176289 4.91914256855158e-05 0.000154270346771643 -0.000108949711825029 -4.02630208878459e-05 2.71253341145026e-05 -0.000190188425823864 -8.02094842132799e-05 -0.00017064557275113 2.63304625629702e-05
"297" 2.14087547381193e-05 0.000267975763687572 0.000288644363859677 0.000147218986064383 -2.3642165716684e-05 -5.45714266628425e-05 0.000125944767810703 4.74664446906786e-05 0.000161083796951375 -0.000109248555532806 -3.81449049030785e-05 2.29341797747498e-05 -0.000192809322641505 -7.50804239636651e-05 -0.000162457505808091 1.81839313474156e-05
"298" 2.10847818294825e-05 0.000265638722596804 0.00028720657929264 0.000147804861414094 -2.36044761748338e-05 -5.3653976490459e-05 0.000124743062586167 4.54125106229269e-05 0.000167165094493303 -0.000109583174876513 -3.63357134292444e-05 1.8322822519813e-05 -0.000195716783547208 -7.02642415317799e-05 -0.000154829805538021 9.50137025320125e-06
"299" 2.05223527912031e-05 0.000262985667173466 0.00028535080073329 0.000148193586466321 -2.3783891770326e-05 -5.28734536231533e-05 0.000123220480426253 4.30342492657757e-05 0.00017250197862321 -0.000109938102402046 -3.48405430426217e-05 1.33111492648033e-05 -0.000198892016360832 -6.57447788567574e-05 -0.000147774361618544 4.13126041288687e-07
"300" 1.9728904295792e-05 0.0002600375894199 0.000283088410668689 0.000148382161930071 -2.4182358789437e-05 -5.22362884089147e-05 0.000121382638123667 4.03402145635021e-05 0.000177086321800664 -0.000110303643253764 -3.36567135325197e-05 7.91448688220067e-06 -0.000202313349300253 -6.14992704299467e-05 -0.000141292188739784 -8.95573155252324e-06
"301" 1.87111064004887e-05 0.000256813385013979 0.000280435222181175 0.000148366679995899 -2.47872909118174e-05 -5.17381159089674e-05 0.000119236116064835 3.73387352717516e-05 0.000180922306571716 -0.000110669556852259 -3.27765016891657e-05 2.15623303679644e-06 -0.000205957742071207 -5.75073662845958e-05 -0.000135383304386924 -1.84719204371598e-05
"302" 1.74877761913972e-05 0.000253333055780299 0.000277405354055407 0.000148148610151361 -2.55908426457738e-05 -5.1382719315488e-05 0.000116792455643103 3.40430194692145e-05 0.000184007785628072 -0.000111034416857325 -3.2195255956399e-05 -3.94791776827406e-06 -0.000209794751001207 -5.37402067302115e-05 -0.000130043030155593 -2.80117395053304e-05
"303" 1.60612076319206e-05 0.000249613042563335 0.000274017059179429 0.000147722135432728 -2.65924363866115e-05 -5.11674058972296e-05 0.000114059794083515 3.04657764659029e-05 0.000186341012908034 -0.000111374963439493 -3.19131353958767e-05 -1.03767575209369e-05 -0.000213796669929824 -5.01812756048644e-05 -0.000125264790326406 -3.74533846712582e-05
"304" 1.44554743239854e-05 0.00024568449257704 0.000270292329508592 0.000147091228678464 -2.77773963117783e-05 -5.10920741536983e-05 0.000111058232730849 2.66265259445308e-05 0.000187939434316576 -0.000111690286539781 -3.19150784794937e-05 -1.71118178303378e-05 -0.000217931923118764 -4.67944634599154e-05 -0.000121030463860476 -4.66759692690191e-05
"305" 1.26773868787457e-05 0.000241561221974724 0.000266244421493274 0.000146253097120202 -2.91399783473815e-05 -5.11536813546143e-05 0.000107795750175189 2.25395706992519e-05 0.000188805376959684 -0.000111960238647226 -3.21969026559927e-05 -2.41347135655591e-05 -0.000222172494758032 -4.35663842487254e-05 -0.000117332427992668 -5.55765405408751e-05
"306" 1.07534106613608e-05 0.000237272157213104 0.000261907688156276 0.00014521113058472 -3.06587359780704e-05 -5.13485630695312e-05 0.0001043040497876 1.82312640070057e-05 0.000188960793794439 -0.000112190483728324 -3.27473313507122e-05 -3.14193633456486e-05 -0.000226476513324034 -4.045915516599e-05 -0.000114142392726143 -6.40451032794674e-05
"307" 8.6922271370322e-06 0.000232845047294504 0.000257301057645779 0.000143969661560651 -3.23316739841531e-05 -5.16697735467651e-05 0.00010059272530075 1.37204082206187e-05 0.00018841952681265 -0.000112355527218463 -3.35530668552825e-05 -3.8949918746581e-05 -0.000230814457956513 -3.74533119149384e-05 -0.000111439152757909 -7.19875406771955e-05
"308" 6.52043529077626e-06 0.000228303556696396 0.000252452387452966 0.000142533669259704 -3.41394021596379e-05 -5.21128202786996e-05 9.66892106703101e-05 9.03501417502641e-06 0.000187204128746337 -0.000112451932328076 -3.46032786903736e-05 -4.67040677099987e-05 -0.000235147725344695 -3.45174576259677e-05 -0.000109197902083843 -7.93245679886622e-05
"309" 4.25720913092184e-06 0.000223676561753158 0.000247391774280571 0.000140910093609151 -3.60646230252673e-05 -5.26698898768183e-05 9.2619188257825e-05 4.20255027891959e-06 0.00018533565557905 -0.000112473744083773 -3.58806850034216e-05 -5.46579768215332e-05 -0.00023944111291074 -3.16295409806714e-05 -0.000107381396034988 -8.59793183440957e-05
"310" 1.92411440759124e-06 0.000218989158616738 0.000242147064212706 0.00013910347556473 -3.80954038625649e-05 -5.33308195837699e-05 8.84101952474983e-05 -7.48096718944144e-07 0.00018284554107844 -0.000112401444843216 -3.73742821065027e-05 -6.27897120477433e-05 -0.000243653016599497 -2.87593876624839e-05 -0.000105964680408857 -9.1889848572739e-05
"311" -4.57349241129006e-07 0.000214266001339852 0.000236749630228438 0.000137122471011061 -4.02067602552261e-05 -5.40855466943993e-05 8.40885324211078e-05 -5.78840113839239e-06 0.000179757818208737 -0.000112226315906402 -3.90668913914383e-05 -7.10776585351128e-05 -0.000247750966848638 -2.5888420306212e-05 -0.000104909190566205 -9.70045446426983e-05
"312" -2.86106162732147e-06 0.000209541275967684 0.000231238864819973 0.000134986237291623 -4.2379340162788e-05 -5.49231114238272e-05 7.96895483182905e-05 -1.0880934577692e-05 0.000176108423121591 -0.000111951774983255 -4.09375255466528e-05 -7.94887323014642e-05 -0.000251684519020429 -2.29846734700193e-05 -0.000104169707941809 -0.000101283985891495
"313" -5.26146047077407e-06 0.000204835105951654 0.00022563721312605 0.000132696370087645 -4.45951843952376e-05 -5.58279709003155e-05 7.52341871219859e-05 -1.60004605580079e-05 0.000171929269013599 -0.000111552692255797 -4.29763311491435e-05 -8.80039953766968e-05 -0.000255425572470972 -2.00324046794417e-05 -0.000103718206266103 -0.000104704526387856
"314" -7.63732263421115e-06 0.00020017513200044 0.000219984310821927 0.000130269554947347 -4.6833527628565e-05 -5.67898322032274e-05 7.07639148849694e-05 -2.11093843370217e-05 0.000167256107225118 -0.000111024136827468 -4.51580363022201e-05 -9.65978303900004e-05 -0.000258932511332715 -1.70095789571238e-05 -0.000103503738929225 -0.00010724923933895
"315" -9.95515300868563e-06 0.000195592202522227 0.000214318731769364 0.000127725574060814 -4.90652478741992e-05 -5.77882391102073e-05 6.63093190934392e-05 -2.61694092571059e-05 0.000162127741347274 -0.000110362431580273 -4.74663520836712e-05 -0.000105236030471784 -0.000262163714114469 -1.38958761704873e-05 -0.00010348702072763 -0.00010891373694339
"316" -1.21969925333456e-05 0.000191105876082316 0.000208667099911408 0.00012507670636229 -5.1268875896053e-05 -5.88116052758396e-05 6.19005909576938e-05 -3.11540323451854e-05 0.000156581494783348 -0.000109553509876343 -4.98821500934604e-05 -0.000113894574302776 -0.000265085340755526 -1.06727539450273e-05 -0.000103622296288723 -0.000109713238415093
"317" -1.43310021829462e-05 0.000186742919082617 0.00020306956803697 0.000122343985609553 -5.34179987322e-05 -5.98383968382572e-05 5.75724213749076e-05 -3.60210608276168e-05 0.000150663568162125 -0.000108594500455298 -5.23826050186005e-05 -0.000122538962313789 -0.000267659074279848 -7.32115620649114e-06 -0.000103863748186688 -0.000109660606638866
"318" -1.63295076344886e-05 0.000182528932931067 0.000197561705162264 0.000119548441031408 -5.54908483538851e-05 -6.08494347064235e-05 5.33650979469268e-05 -4.07371881257281e-05 0.000144412213266944 -0.000107478666421958 -5.4947495581813e-05 -0.000131139458072453 -0.000269846466607567 -3.82643946249956e-06 -0.000104164705464802 -0.000108790281003425
"319" -1.8171506776142e-05 0.000178484887561163 0.000192177016995895 0.000116710419246581 -5.74549052241534e-05 -6.1830736799885e-05 4.93016531483572e-05 -4.52695582880204e-05 0.000137870904872247 -0.00010619557938608 -5.75571176885191e-05 -0.000139664197414193 -0.000271615871359919 -1.82120754544205e-07 -0.000104483229291055 -0.000107142641198194
"320" -1.98251825415195e-05 0.00017462848084724 0.000186947135290475 0.000113852483135302 -5.92915533903052e-05 -6.27578094207774e-05 4.54202758277005e-05 -4.95874065634038e-05 0.000131085205563094 -0.000104741854061003 -6.01897922009181e-05 -0.000148082967577349 -0.000272933357076068 3.62964055793607e-06 -0.000104771969991191 -0.000104769559949621
"321" -2.12661654314672e-05 0.000170986390581627 0.000181909619938027 0.000110997898619974 -6.09697535110857e-05 -6.36134065138487e-05 4.17525147184635e-05 -5.36546185938861e-05 0.00012409641295787 -0.000103114168410178 -6.28250389177835e-05 -0.000156357847487516 -0.000273768190720857 7.61499309372649e-06 -0.000104987260520492 -0.000101726757628957
"322" -2.24700250078969e-05 0.000167569226667883 0.000177091474016304 0.000108170532592141 -6.2466017664785e-05 -6.43767424589654e-05 3.83227457450112e-05 -5.74426823339064e-05 0.000116949976942017 -0.000101304677287568 -6.54421936163227e-05 -0.000164459136923627 -0.000274093197303846 1.17810140717608e-05 -0.000105085519341067 -9.80841884900848e-05
"323" -2.34155992484884e-05 0.000164397014001086 0.000172525513279865 0.00010539642156382 -6.37583998972538e-05 -6.50280420549816e-05 3.51635670442864e-05 -6.09245416002642e-05 0.000109688819836179 -9.93095836508868e-05 -6.80241599019976e-05 -0.000172354485027929 -0.000273881901766314 1.61333366480076e-05 -0.000105027841005152 -9.39132591857164e-05
"324" -2.40774500243366e-05 0.000161485945329015 0.000168242005754179 0.000102703324665603 -6.48175981910202e-05 -6.55465118506625e-05 3.2300613128091e-05 -6.40703397633381e-05 0.000102357998651204 -9.71331889145764e-05 -7.05456720032264e-05 -0.000180005023700182 -0.000273105442637046 2.06775939581965e-05 -0.000104768986381637 -8.92912530648945e-05
"325" -2.44339273410082e-05 0.00015884788178209 0.000164268892513557 0.000100119379956746 -6.56240952536753e-05 -6.59144600688638e-05 2.97552082275925e-05 -6.68568612806808e-05 9.4999112413524e-05 -9.47753678923291e-05 -7.2989442548066e-05 -0.000187379833216625 -0.000271747616722658 2.54141207572533e-05 -0.000104275796680037 -8.42960088328364e-05
"326" -2.4462564607109e-05 0.000156494020829506 0.000160629458771861 9.76691031843573e-05 -6.61572241708528e-05 -6.6110725248891e-05 2.75519207045053e-05 -6.92609936920197e-05 8.76571035978136e-05 -9.22330981634014e-05 -7.53350803721712e-05 -0.00019444743481549 -0.000269789550402103 3.03415839762899e-05 -0.000103508694967505 -7.90189753300612e-05
"327" -2.41512124766642e-05 0.000154430466869213 0.000157346083969066 9.5375909967613e-05 -6.6396602906474e-05 -6.61210447361351e-05 2.57044447258566e-05 -7.12682525163829e-05 8.0370539854159e-05 -8.9503251652683e-05 -7.75688172359117e-05 -0.000201178050180849 -0.000267215716091957 3.54582727701619e-05 -0.000102438939696121 -7.3542868189271e-05
"328" -2.3477469911096e-05 0.000152668888419618 0.000154439889029878 9.32740389761209e-05 -6.63247788542298e-05 -6.59261669751322e-05 2.42339582733762e-05 -7.28582845857163e-05 7.31788760392119e-05 -8.6595554091397e-05 -7.96693060054469e-05 -0.000207539440989478 -0.000264013913482826 4.07625499386996e-05 -0.000101035506266941 -6.79573911770329e-05
"329" -2.24327276161444e-05 0.000151210088440657 0.000151924041686625 9.13809079281594e-05 -6.59293143757958e-05 -6.55130949153508e-05 2.31485504694853e-05 -7.40192523745297e-05 6.61206897425442e-05 -8.35071462625781e-05 -8.16249022424752e-05 -0.000213503034013407 -0.000260178881111827 4.624742848888e-05 -9.92737983189197e-05 -6.23514016796213e-05
"330" -2.10006898863008e-05 0.000150058866552737 0.000149821436352471 8.97310152154898e-05 -6.51921813784008e-05 -6.48647749395428e-05 2.24567913480305e-05 -7.47428451028242e-05 5.92339564003666e-05 -8.02496004448051e-05 -8.34180099881887e-05 -0.000219043413672101 -0.000255702337246409 5.19103443999681e-05 -9.7127108410612e-05 -5.68086495301175e-05
"331" -1.91741850452321e-05 0.000149216794626533 0.00014813902202819 8.83436633176509e-05 -6.41086392044596e-05 -6.39737221043888e-05 2.21674285066015e-05 -7.50210479962567e-05 5.2553181139164e-05 -7.68238593214904e-05 -8.50348658567058e-05 -0.000224135848927363 -0.000250581585369222 5.77404118761451e-05 -9.45772446947672e-05 -5.14133349659553e-05
"332" -1.69481216687025e-05 0.000148677981147556 0.000146881684327744 8.72398825563612e-05 -6.26723321748315e-05 -6.28257889444376e-05 2.22799197818912e-05 -7.48546095350399e-05 4.6107610893723e-05 -7.32365791142471e-05 -8.6462806385944e-05 -0.000228760165807915 -0.000244826333350173 6.37288685150748e-05 -9.16130313614481e-05 -4.62449243663252e-05
"333" -1.43125194331481e-05 0.000148447269785019 0.000146062295909131 8.64429202040599e-05 -6.0874151189973e-05 -6.1414044079002e-05 2.27894203454137e-05 -7.42405169141929e-05 3.99318496108779e-05 -6.95036716500479e-05 -8.76936633429303e-05 -0.000232894688644393 -0.000238438062225256 6.98700580209037e-05 -8.82179648896744e-05 -4.1379094593212e-05
"334" -1.12706858649309e-05 0.000148512602320107 0.000145675768332837 8.59741247357231e-05 -5.87184104365287e-05 -5.97354220354547e-05 2.36912269642099e-05 -7.31886404139799e-05 3.4051526321829e-05 -6.56214194555136e-05 -8.87147577366256e-05 -0.000236525223943328 -0.000231426279647902 7.6151186592872e-05 -8.43863257233937e-05 -3.68876219027569e-05
"335" -7.82742559212105e-06 0.000148865322484009 0.000145722814725594 8.58466994635107e-05 -5.62045779697604e-05 -5.77821937830211e-05 2.49757237498572e-05 -7.17050327589963e-05 2.84929245900666e-05 -6.1607209765446e-05 -8.95187566652541e-05 -0.000239640445839613 -0.000223807179428686 8.25604675392037e-05 -8.01156922459223e-05 -3.28327319597461e-05
"336" -3.98046520817088e-06 0.000149499394639309 0.000146196259209212 8.60769319576416e-05 -5.33419544165171e-05 -5.55567677798207e-05 2.66292903643888e-05 -6.98024139358874e-05 2.32772707013773e-05 -5.74737561069846e-05 -9.01009006774083e-05 -0.00024223234844197 -0.000215598165394011 8.90881702703759e-05 -7.54038303461748e-05 -2.92724722493763e-05
"337" 2.60285601397771e-07 0.000150403396866837 0.000147091195765801 8.66768257645647e-05 -5.01359271603609e-05 -5.3056431216783e-05 2.86361427726473e-05 -6.74963190876465e-05 1.84278082342525e-05 -5.32240585922382e-05 -9.04569871956758e-05 -0.000244294574471199 -0.000206823819491915 9.57188941068341e-05 -7.0261154203925e-05 -2.62580037071881e-05
"338" 4.88110299221646e-06 0.000151562415937141 0.000148392054003668 8.76575150644068e-05 -4.66028444683012e-05 -5.02891145824081e-05 3.09673199075992e-05 -6.4806620492717e-05 1.39566315559089e-05 -4.88743335007528e-05 -9.05817368119982e-05 -0.000245827368343261 -0.000197503532178492 0.0001024421845498 -6.4692329656268e-05 -2.38273215685902e-05
"339" 9.86872053090628e-06 0.000152961940175567 0.000150083967749483 8.90250162424166e-05 -4.27594319424469e-05 -4.72575377158753e-05 3.36062165704325e-05 -6.17566246561839e-05 9.88454009073396e-06 -4.4441867715263e-05 -9.04733168336785e-05 -0.000246832133652751 -0.000187666848396591 0.000109247065153187 -5.87072036780557e-05 -2.20185670070304e-05
"340" 1.52098010589542e-05 0.000154585304629702 0.000152144941957005 9.0781314909595e-05 -3.86209505268738e-05 -4.39722371046357e-05 3.65230567863442e-05 -5.83705262570798e-05 6.22159335004089e-06 -3.99372732044911e-05 -9.01340870370847e-05 -0.00024731711373634 -0.000177347918028991 0.000116118948338778 -5.23289914159031e-05 -2.08520394365916e-05
"341" 2.08802153397447e-05 0.000156416807448499 0.000154555884532109 9.29277638411774e-05 -3.42141274593465e-05 -4.04424314248193e-05 3.96852859655654e-05 -5.46772914961585e-05 2.97363473768469e-06 -3.53747659507552e-05 -8.95646852242491e-05 -0.000247292394290057 -0.000166579895380365 0.000123041736177369 -4.55722020672621e-05 -2.03439677094996e-05
"342" 2.6861802533544e-05 0.00015843562491602 0.000157292059169587 9.54628151897199e-05 -2.95671979994713e-05 -3.66851148430791e-05 4.30584732572182e-05 -5.07089303837788e-05 1.48137399698509e-07 -3.07718309605794e-05 -8.87670764242407e-05 -0.000246774157946864 -0.000155398343131841 0.000130009535519536 -3.84604985328763e-05 -2.05027677932343e-05
