"V1" "V2" "V4" "V5" "V7" "V8" "V10" "V11" "V13" "V14" "V15" "V17" "V18" "V20" "V21" "V23"
"1" 0.000167944188900545 -9.22163693303557e-05 -8.41644183285089e-06 -0.000138540237586278 0.000372385094935481 0.000214022468113861 0.000266625959036047 0.000135370577557747 -2.95903102146013e-05 -0.00116433467482505 5.01998854940927e-05 6.3263491874365e-05 -2.29821188102113e-05 7.01574237110795e-05 5.86341341798177e-05 -0.000100673336012878
"2" 0.000150547998869552 -0.000101515526263721 -2.68695712979677e-05 -0.00015751197564421 0.000340761072921118 0.000199194968383563 0.000243494163016254 0.000114292480457193 -4.40226873046088e-05 -0.00116106379020245 4.04392184553894e-05 5.05042667610338e-05 -2.80902914099519e-05 5.95571877016888e-05 4.65275726652552e-05 -0.000121985324119662
"3" 0.000133833876697505 -0.000110242702345213 -4.42130382205064e-05 -0.000175527919608397 0.000309626537945869 0.000184985196724015 0.000221131567466874 9.37573430947258e-05 -5.6839882466619e-05 -0.00115251511698888 3.16510335053683e-05 3.882241824179e-05 -3.20614164374959e-05 4.97288120714976e-05 3.47455154584573e-05 -0.000141701663273682
"4" 0.00011785447610255 -0.000118360858475609 -6.04229429289052e-05 -0.000192506622086421 0.000279119620170421 0.000171436669973018 0.000199640424966858 7.38966314903694e-05 -6.7994975797883e-05 -0.00113892931050929 2.38958182117729e-05 2.83201295759847e-05 -3.47936883392775e-05 4.06703975007947e-05 2.33391399583967e-05 -0.000159683966572041
"5" 0.000102661425687188 -0.000125841658079695 -7.54798555384429e-05 -0.000208385978585967 0.000249372560142593 0.000158592156666337 0.00017912300150953 5.48311801996583e-05 -7.74732148599943e-05 -0.00112057472095715 1.7216350341342e-05 1.90904775344118e-05 -3.62177030751174e-05 3.23645634348471e-05 1.23511850202535e-05 -0.00017581229260548
"6" 8.82908733382918e-05 -0.000132657526262936 -8.93840114109304e-05 -0.000223110837145797 0.000220517880896593 0.000146491143611702 0.000159664698653569 3.66715033506665e-05 -8.52739227655739e-05 -0.00109774427924122 1.16468921774348e-05 1.12211833351374e-05 -3.62638555114927e-05 2.47834203895724e-05 1.8206222542611e-06 -0.000189990241171865
"7" 7.47741870760524e-05 -0.000138792141822976 -0.000102140347217722 -0.000236644383994089 0.000192676517629409 0.00013516122049748 0.00014133886964032 1.95175880349852e-05 -9.14201066249786e-05 -0.00107074260862396 7.19915448342942e-06 4.78366993266618e-06 -3.49035995739622e-05 1.78794922363906e-05 -8.22962726181512e-06 -0.000202139994655116
"8" 6.21458110646856e-05 -0.000144228395646603 -0.000113765287647625 -0.000248959584021448 0.000165957027682649 0.000124628059382828 0.000124220160522024 3.45680452017007e-06 -9.59446984083927e-05 -0.00103990640384366 3.88332863547676e-06 -1.54540248713411e-07 -3.21055788033094e-05 1.16045055193504e-05 -1.77824851901305e-05 -0.000212209967007593
"9" 5.04226748463625e-05 -0.000148958401005092 -0.000124291022013544 -0.000260042882466405 0.000140463488400933 0.000114907419021022 0.000108355288897156 -1.14386881762297e-05 -9.89123074900072e-05 -0.00100555510058489 1.68179734480244e-06 -3.55013706835313e-06 -2.78700874150282e-05 5.88729722651799e-06 -2.68295389043105e-05 -0.000220172632318171
"10" 3.96160913505119e-05 -0.00015298006392021 -0.000133757086715911 -0.000269893327343941 0.000116285439551657 0.000106010716723618 9.37836091809853e-05 -2.511069643265e-05 -0.000100397235583146 -0.000968029676304503 5.7182739625859e-07 -5.37369567525077e-06 -2.22233553625977e-05 6.5255124116956e-07 -3.53771665073531e-05 -0.000226026902092146
"11" 2.97347451795358e-05 -0.000156297751719359 -0.000142214043465712 -0.000278528094943691 9.34964755458828e-05 9.79339808310803e-05 8.05329225050485e-05 -3.75192717937937e-05 -0.00010049332036634 -0.000927653071930048 5.10627092494215e-07 -5.61683275888525e-06 -1.52077567182745e-05 -4.18295603031217e-06 -4.34416680624615e-05 -0.000229796924073171
"12" 2.07771725719806e-05 -0.0001589209183442 -0.000149717529814334 -0.000285964428029876 7.21594073885033e-05 9.06717231364588e-05 6.86140909536939e-05 -4.8636704095043e-05 -9.93009010124056e-05 -0.000884765022231674 1.44872026822553e-06 -4.28641431579198e-06 -6.88826990002175e-06 -8.70782090387076e-06 -5.10434485173068e-05 -0.000231528841296178
"13" 1.27336008427569e-05 -0.000160857757937664 -0.000156330051618948 -0.000292236471544796 5.23239113369311e-05 8.4205773228831e-05 5.80325361947576e-05 -5.84500775386743e-05 -9.69392979164673e-05 -0.000839692915462815 3.32572433226601e-06 -1.40833749147109e-06 2.65955873940036e-06 -1.30143232781377e-05 -5.82152794187653e-05 -0.000231289262525566
"14" 5.5932696496682e-06 -0.00016213088313079 -0.000162122094703566 -0.000297384812959285 3.40213293069585e-05 7.8512649146553e-05 4.8770841614766e-05 -6.69636737373904e-05 -9.35294268352274e-05 -0.000792754271041985 6.06151245743846e-06 2.96959607405556e-06 1.33327928886553e-05 -1.71996743756303e-05 -6.49913170481266e-05 -0.000229169478870121
"15" -6.63776483896746e-07 -0.000162761886701005 -0.000167167605738103 -0.000301453052928839 1.72790892081641e-05 7.35593877815867e-05 4.08082091935201e-05 -7.41905324038508e-05 -8.92076891776888e-05 -0.000744273749473482 9.58053091756449e-06 8.78887899825074e-06 2.50243271002364e-05 -2.13481232403055e-05 -7.14050444925403e-05 -0.00022528125995442
"16" -6.06158111037961e-06 -0.0001627729264457 -0.000171544858734857 -0.00030449415162221 2.09589197719016e-06 6.93081900401204e-05 3.41140458101576e-05 -8.01584705497952e-05 -8.41087032621937e-05 -0.000694561058643209 1.37926189989965e-05 1.59687807464541e-05 3.76108194074268e-05 -2.55564247179311e-05 -7.75039934307732e-05 -0.000219744354962678
"17" -1.06329155945211e-05 -0.000162190335301298 -0.000175336721283828 -0.000306562122115862 -1.15340629180145e-05 6.57080222329579e-05 2.86431370911815e-05 -8.49068015494702e-05 -7.83719290250092e-05 -0.000643936605087367 1.86077031623361e-05 2.44182374597715e-05 5.09636108501207e-05 -2.99017719129208e-05 -8.33210260655665e-05 -0.000212704865924786
"18" -1.44139311620685e-05 -0.000161045665446086 -0.000178620670087442 -0.000307714060824298 -2.36339107501437e-05 6.27112058302263e-05 2.43455464330931e-05 -8.84807729981183e-05 -7.21386635072228e-05 -0.000592707270476248 2.39264919905503e-05 3.40323220534898e-05 6.49510836443478e-05 -3.44618628433582e-05 -8.88930686805874e-05 -0.00020431334713058
"19" -1.74429038058843e-05 -0.000159367563735403 -0.000181483166679898 -0.000308007914970269 -3.42302039664539e-05 6.02609440158876e-05 2.11723954703028e-05 -9.093184998516e-05 -6.55436910682594e-05 -0.000541199788524454 2.96549440881964e-05 4.47021105093948e-05 7.94350637790398e-05 -3.92996892958452e-05 -9.42481932396036e-05 -0.000194731058796849
"20" -1.97642129157988e-05 -0.000157182642938596 -0.000184006026930054 -0.000307505343913302 -4.3367879291177e-05 5.82929490919759e-05 1.90564112972087e-05 -9.23224359059413e-05 -5.87299345140602e-05 -0.00048973362218525 3.56950575080206e-05 5.63091653787855e-05 9.4284635299457e-05 -4.44680836151817e-05 -9.94090206472851e-05 -0.000184129875238799
"21" -2.14238155186886e-05 -0.000154526711398991 -0.000186268596112772 -0.00030626672740352 -5.11016225615346e-05 5.67470177027665e-05 1.79384893884303e-05 -9.27161188932908e-05 -5.18327194344163e-05 -0.000438641308799775 4.19516914352207e-05 6.87336014396523e-05 0.000109362477280921 -5.00141488023143e-05 -0.000104389234826811 -0.000172679115185431
"22" -2.24738764785066e-05 -0.000151420424645741 -0.000188350317654249 -0.00030434961080119 -5.7487315588699e-05 5.55593186070684e-05 1.77503221366341e-05 -9.21781268289299e-05 -4.4982247047749e-05 -0.000388268522651619 4.83320543699196e-05 8.18569633208495e-05 0.00012454702611949 -5.59634322172353e-05 -0.00010918987345536 -0.000160560531397287
"23" -2.29634945324297e-05 -0.000147897909768659 -0.000190333192700607 -0.000301816434020222 -6.2590571501589e-05 5.46634841649068e-05 1.84313657824229e-05 -9.07764167983153e-05 -3.83008515559478e-05 -0.000338967942242123 5.47518514974691e-05 9.55613057669396e-05 0.000139726343140002 -6.23304936026864e-05 -0.000113800202934825 -0.000147946042901253
"24" -2.29490720373259e-05 -0.000143982046413592 -0.00019228705148289 -0.000298726931098862 -6.64848340530883e-05 5.39962529707086e-05 1.99164440721424e-05 -8.85827155831117e-05 -3.19136582777777e-05 -0.00029109640396635 6.11229998149365e-05 0.000109733463568922 0.000154781512580157 -6.911575812076e-05 -0.000118198144591627 -0.000135012749772333
"25" -2.24819902994797e-05 -0.000139695828948547 -0.000194287712205297 -0.000295143679053719 -6.92382637476725e-05 5.34983277424456e-05 2.21357059779498e-05 -8.5666906334846e-05 -2.5935722272978e-05 -0.000245033679031081 6.73678860301844e-05 0.000124268919746885 0.000169615023118574 -7.63140805558327e-05 -0.000122351382115009 -0.000121933463499594
"26" -2.1621452286694e-05 -0.000135058317323217 -0.000196402371449032 -0.000291127302664658 -7.09274301826166e-05 5.31095399636042e-05 2.5030621601037e-05 -8.20981241468669e-05 -2.04798691721398e-05 -0.000201153251550647 7.34121008168047e-05 0.000139070944036952 0.000184135720752496 -8.38974121379362e-05 -0.000126213546171869 -0.000108876646690704
"27" -2.04164517541033e-05 -0.000130095196089882 -0.000198699383808377 -0.000286743625147775 -7.16299549542099e-05 5.27712236940878e-05 2.85422664001653e-05 -7.79456791097362e-05 -1.56514842444141e-05 -0.000159840298056472 7.91908444178716e-05 0.000154052637888374 0.000198261744796384 -9.18299898695473e-05 -0.000129723391510782 -9.6006376412311e-05
"28" -1.89192639348336e-05 -0.000124813290795654 -0.000201234824231238 -0.000282055277061395 -7.14138771123386e-05 5.24372569029217e-05 3.26095224844874e-05 -7.32766443369025e-05 -1.15484131376475e-05 -0.000121494152337525 8.46420508582122e-05 0.000169138871417372 0.000211918418371355 -0.000100069406508632 -0.000132814853967164 -8.3474870870272e-05
"29" -1.71830153469891e-05 -0.000119228933445601 -0.000204069552452041 -0.000277131850031374 -7.03591705676023e-05 5.20590411310565e-05 3.7182096139134e-05 -6.81625345072892e-05 -8.26794883804193e-06 -8.64863566345246e-05 8.97039348130832e-05 0.000184266280878043 0.000225041434817589 -0.00010855440040387 -0.000135411856607046 -7.14367090624726e-05
"30" -1.52481779420172e-05 -0.000113354566929545 -0.000207249778445903 -0.000272039932933912 -6.85304640007354e-05 5.15984216534364e-05 4.22047320930297e-05 -6.26671511743801e-05 -5.8998558929891e-06 -5.52028008569377e-05 9.4331703403027e-05 0.000199379508290607 0.000237568911551988 -0.000117223062567287 -0.00013742892380527 -6.00300744090572e-05
"31" -1.31625608272373e-05 -0.000107196031079621 -0.000210827904822175 -0.000266860066260021 -6.5992776960869e-05 5.1017181892391e-05 4.76328269552789e-05 -5.68610424442431e-05 -4.53318342937738e-06 -2.79959931478575e-05 9.84685361961398e-05 0.000214433606378587 0.000249445498564815 -0.000126007341062817 -0.000138779283328268 -4.93929911505007e-05
"32" -1.09590519503402e-05 -0.00010076151109734 -0.000214842380629818 -0.000261668013685179 -6.2815244964503e-05 5.02861601137918e-05 5.34124243701315e-05 -5.08180306922444e-05 -4.24994484843782e-06 -5.20983311418879e-06 0.000102073706980109 0.000229391479908711 0.000260614943458095 -0.00013483594412542 -0.000139374554199712 -3.96547568979023e-05
"33" -8.67567545095936e-06 -9.40562435744956e-05 -0.000219333056088513 -0.000256546243901749 -5.90497583911999e-05 4.93795959126905e-05 5.9497906117305e-05 -4.46045627575819e-05 -5.13493187047561e-06 1.28464334652049e-05 0.000105095952861558 0.000244224631318323 0.00027101937805163 -0.000143634369560217 -0.000139125370951244 -3.09312972821688e-05
"34" -6.33481557517884e-06 -8.70826306103042e-05 -0.000224329496378876 -0.000251586752748458 -5.47509487390371e-05 4.82792171896552e-05 6.58454971745192e-05 -3.83026414146758e-05 -7.26361073389297e-06 2.59035882613443e-05 0.000107495814999937 0.000258909522306618 0.000280599933323213 -0.000152331303616634 -0.000137950307020678 -2.33404609842349e-05
"35" -3.96284930941301e-06 -7.98495588213312e-05 -0.000229860652569494 -0.000246884131775195 -4.99742518838917e-05 4.69681827259502e-05 7.24033060212001e-05 -3.19911313902295e-05 -1.07163513159656e-05 3.37388424674602e-05 0.000109219368331271 0.000273416792921126 0.000289282344722234 -0.000160863077425689 -0.000135779467303304 -1.69919376356178e-05
"36" -1.57338299586899e-06 -7.23610621761632e-05 -0.000235949136382483 -0.000242543174567302 -4.47626512525695e-05 4.54346930748015e-05 7.91187814655502e-05 -2.57624262059558e-05 -1.55756372342631e-05 3.61928701754686e-05 0.000110220226457063 0.000287720601172999 0.000296988539806779 -0.000169174170092763 -0.000132556291708363 -1.19904069434293e-05
"37" 8.17916232198159e-07 -6.46316447737494e-05 -0.000242612043800072 -0.000238673508585171 -3.91673247023771e-05 4.36681178673525e-05 8.59335271136229e-05 -1.97127661601618e-05 -2.19246450049719e-05 3.31689300015016e-05 0.00011043611740275 0.000301785512050112 0.000303611928290462 -0.000177223221422363 -0.000128243669805276 -8.43859507530625e-06
"38" 3.20569100183914e-06 -5.66707130496505e-05 -0.000249870291815782 -0.000235393930844311 -3.32307339522211e-05 4.16601534414937e-05 9.27840357360067e-05 -1.39522383606109e-05 -2.98416045010878e-05 2.46434577172045e-05 0.000109804046807867 0.000315569674822764 0.000309045248085199 -0.000184977999070849 -0.000122822158342814 -6.43904908713399e-06
"39" 5.58179380794854e-06 -4.85016874032407e-05 -0.000257731908052327 -0.0002328355865666 -2.70055535809243e-05 3.94022664055639e-05 9.95976714447778e-05 -8.59879091803305e-06 -3.94183386563142e-05 1.06945889797284e-05 0.000108250764605165 0.000329009083980217 0.00031314615583555 -0.000192436079970314 -0.00011630538352439 -6.08924818929681e-06
"40" 7.94869941562414e-06 -4.01512251083823e-05 -0.000266209530605079 -0.000231130802120356 -2.05367476552288e-05 3.68852171920199e-05 0.000106291168790467 -3.78966719431205e-06 -5.07416659298896e-05 -8.50828584919567e-06 0.000105689973238793 0.000342026175944945 0.000315748914901298 -0.000199609371973669 -0.000108734988804656 -7.49341527606387e-06
"41" 1.03025960657797e-05 -3.1657468603374e-05 -0.000275314554886635 -0.000230424315409424 -1.3884640256891e-05 3.40946726177365e-05 0.000112764214570406 3.31176142015783e-07 -6.3910343267575e-05 -3.26931524752897e-05 0.000102027226587532 0.000354511531462284 0.000316663121855179 -0.000206538090151491 -0.000100192820261442 -1.0749295162922e-05
"42" 1.26384062670501e-05 -2.30661534326921e-05 -0.000285054424854072 -0.000230861437367345 -7.11337371242995e-06 3.10087923445386e-05 0.000118908833368328 3.59730478279128e-06 -7.90155900084751e-05 -6.14636344855794e-05 9.71547057634623e-05 0.000366333939319954 0.000315670482330558 -0.000213283690102753 -9.07932888050418e-05 -1.59623035472095e-05
"43" 1.49521464279257e-05 -1.4435147570978e-05 -0.000295435552834593 -0.000232595393833401 -2.9873045011029e-07 2.76076944197557e-05 0.000124591985221837 5.83500753006495e-06 -9.61538197592232e-05 -9.43073924499558e-05 9.09554134899383e-05 0.000377327485840165 0.000312531388862941 -0.000219934794508212 -8.06887445228955e-05 -2.32403559945061e-05
"44" 1.72398673225311e-05 -5.83359301588209e-06 -0.000306458818514347 -0.000235771298102518 6.47166100906832e-06 2.38570540850402e-05 0.000129681831197348 6.85356129673215e-06 -0.000115409425336437 -0.000130588014143315 8.33018128605237e-05 0.000387288323306697 0.000306979449510194 -0.000226604477209921 -7.00729679409574e-05 -3.26812839678926e-05
"45" 1.94845359816425e-05 2.65740113501165e-06 -0.000318129097496682 -0.00024053291278938 1.30928795673854e-05 1.97122259042427e-05 0.00013401269760238 6.45411915392585e-06 -0.000136862022956284 -0.000169543606551591 7.40659960539965e-05 0.00039597709076511 0.000298733790067762 -0.000233418631902729 -5.91728681567523e-05 -4.43927668081346e-05
"46" 2.1670379959346e-05 1.09529998516295e-05 -0.000330436312551536 -0.000246997861793166 1.94450120183242e-05 1.51265101623444e-05 0.000137426285074914 4.43997494669675e-06 -0.000160563277904921 -0.000210301573849185 6.31170420652586e-05 0.000403120961695906 0.00028751611532809 -0.000240512786367871 -4.82392261080641e-05 -5.84625140258861e-05
"47" 2.37781158530039e-05 1.89590848370819e-05 -0.0003433540312592 -0.000255263927595712 2.53867001840633e-05 1.00337803051053e-05 0.000139749595734191 6.11863010010026e-07 -0.000186534978896068 -0.000251874511710414 5.03344095985711e-05 0.000408412023804506 0.000273051832732907 -0.000248021345065935 -3.75476333444399e-05 -7.49694172963071e-05
"48" 2.57777269888969e-05 2.6579561049265e-05 -0.000356849410415537 -0.000265383472498148 3.07538667090302e-05 4.36626254771419e-06 0.000140802812969826 -5.21517400206233e-06 -0.000214760611053149 -0.000293183260769585 3.5619241988262e-05 0.00041151110191587 0.000255093043164371 -0.000256060461346514 -2.73815861231912e-05 -9.39667715939623e-05
"49" 2.76440374564052e-05 3.37251069650466e-05 -0.000370854219547189 -0.000277350364254186 3.53795750674184e-05 -1.95575817386408e-06 0.000140428887374721 -1.31918275787885e-05 -0.000245151413603093 -0.000333098606811623 1.88982286678012e-05 0.000412064901944663 0.000233449810097347 -0.00026470934118577 -1.80095201067698e-05 -0.000115476663270194
"50" 2.93532935709898e-05 4.03153900022658e-05 -0.000385267405995561 -0.000291093695339151 3.90611995820358e-05 -9.00965520597176e-06 0.000138484064937869 -2.34341361100648e-05 -0.000277544015199518 -0.000370444488222809 1.51704781827761e-07 0.000409707232641013 0.000208004574525783 -0.000273991242349401 -9.67036936644778e-06 -0.000139469288224861
"51" 3.08887741184856e-05 4.62967877622486e-05 -0.000399937062270406 -0.000306431050118383 4.15989353094324e-05 -1.68836954217259e-05 0.000134861521612874 -3.59927362350612e-05 -0.000311671758921683 -0.00040407007780698 -2.05828628915719e-05 0.00040408685375086 0.000178756237838124 -0.000283842516783045 -2.54793153053041e-06 -0.000165851775222367
"52" 3.22417522694231e-05 5.16431151748981e-05 -0.000414662845408251 -0.000323079703085857 4.27839672503648e-05 -2.5650470675113e-05 0.000129504265233551 -5.08441595394534e-05 -0.00034715026995757 -0.000432875751806624 -4.31878552039325e-05 0.000394874647886476 0.000145841022880985 -0.000294094903267442 3.25223366918492e-06 -0.000194452013822632
"53" 3.3428466550793e-05 5.63785508841846e-05 -0.000429167283720535 -0.000340613884127986 4.24096092195176e-05 -3.53764815593022e-05 0.000122428360269607 -6.78569646272072e-05 -0.00038346092315006 -0.000455898631632415 -6.74498865210433e-05 0.000381801043971815 0.000109570634581328 -0.000304448581609046 7.73654953154799e-06 -0.000225002173529226
"54" 3.44890072670795e-05 6.05738626089599e-05 -0.000443091843308413 -0.00035846565157408 4.02863329846452e-05 -4.610560961563e-05 0.000113728282644002 -8.6792916797729e-05 -0.000419933855881224 -0.00047234729419942 -9.30448323535805e-05 0.000364665521718186 7.04576413810519e-05 -0.000314452105350084 1.10398625734872e-05 -0.0002571188511624
"55" 3.54875121399508e-05 6.43547151395342e-05 -0.000456012840902673 -0.000375920989487989 3.62483271027924e-05 -5.78529799712965e-05 0.000103591647888063 -0.000107280680575768 -0.000455749151216137 -0.000481658880620084 -0.00011953806909201 0.000343366315771293 2.9232382626403e-05 -0.000323496988638726 1.34468589739494e-05 -0.000290304436711391
"56" 3.65224377802598e-05 6.79165251601571e-05 -0.000467419306044691 -0.000392119584079316 3.01664008652225e-05 -7.06012612402321e-05 9.23156936766294e-05 -0.0001288200408204 -0.000489946102351131 -0.000483575785843797 -0.000146370958407081 0.000317928971406137 -1.31508198961314e-05 -0.00033081232447089 1.5395439490186e-05 -0.000323941976426364
"57" 3.77207160914771e-05 7.15073621834018e-05 -0.000476741327604181 -0.000406084678582732 2.19606289237362e-05 -8.42879555043698e-05 8.02899791930912e-05 -0.000150779000485606 -0.000521444643268476 -0.000478162307433401 -0.000172877245974277 0.000288512796652922 -5.55298664848503e-05 -0.000335495940061693 1.74820833502694e-05 -0.000357290547691952
"58" 3.9229096434947e-05 7.54196543141447e-05 -0.000483365431182513 -0.000416771653604499 1.16142029497345e-05 -9.87997652309494e-05 6.80015539564053e-05 -0.000172424267357094 -0.000549094111272406 -0.000465822034798019 -0.000198307007264343 0.000255426361154224 -9.65659008572148e-05 -0.000336541963840231 2.04235127873195e-05 -0.000389524007191514
"59" 4.11951386178085e-05 7.99655295781395e-05 -0.000486688245962681 -0.000423119506428472 -8.20614543302627e-07 -0.000113980221910167 5.59935500045865e-05 -0.000192949391267209 -0.000571720108665485 -0.000447306337630018 -0.000221855322453173 0.000219130893555539 -0.000134815389832461 -0.000332906901880807 2.50253807961105e-05 -0.000419756199235237
"60" 4.37701097478022e-05 8.5460615195198e-05 -0.000486134421419069 -0.000424126394023564 -1.52253459782994e-05 -0.000129618982555955 4.4851780251479e-05 -0.000211520718194618 -0.000588209951238813 -0.000423662567826047 -0.000242714837460717 0.000180220584624855 -0.0001688026769566 -0.000323581006545044 3.2127802644293e-05 -0.000447077329705831
"61" 4.70535469113391e-05 9.21699967399971e-05 -0.000481238499147778 -0.000418952781325013 -3.14060925630065e-05 -0.000145458974843621 3.51373645784049e-05 -0.00022733455646993 -0.000597587857076662 -0.000396185180867567 -0.0002601183304822 0.00013940770548678 -0.000197122755903955 -0.000307674979235388 4.25200857055912e-05 -0.000470626348890908
"62" 5.11037799817061e-05 0.0001002915691549 -0.000471675738119232 -0.000406997400222402 -4.91019311299905e-05 -0.00016121514361706 2.73590894913757e-05 -0.000239687085880524 -0.000599105473122076 -0.000366321629206246 -0.000273409420307429 9.7485229302455e-05 -0.000218545785121919 -0.000284519888898156 5.68792322748591e-05 -0.000489637721577669
"63" 5.58983689897641e-05 0.000109916423635361 -0.000457312492641481 -0.000387964025899539 -6.79827137717358e-05 -0.000176567023583081 2.19306115005365e-05 -0.000248012667288044 -0.00059230059319567 -0.000335595626672168 -0.000282076369274783 5.53045595520108e-05 -0.000232105717273096 -0.000253725561593679 7.57017838107554e-05 -0.000503488537947822
"64" 6.13310893611494e-05 0.000121009318337056 -0.000438241600812533 -0.000361928052457308 -8.76868715032884e-05 -0.000191183172901734 1.91137322489183e-05 -0.000251948507166865 -0.000577060311902578 -0.000305498253578119 -0.00028581267570348 1.37143212869155e-05 -0.000237192181702031 -0.000215260256189475 9.92292939749509e-05 -0.000511759572344213
"65" 6.72014696675933e-05 0.000133397815256608 -0.00041478205678371 -0.000329350261149631 -0.000107806081781156 -0.000204737477220643 1.90181810392347e-05 -0.00025135219522683 -0.000553643113119252 -0.000277397813680258 -0.000284529117077153 -2.64620965715243e-05 -0.000233593710078974 -0.000169466327386672 0.000127430090121537 -0.000514249272047087
"66" 7.32414737308873e-05 0.000146785693485328 -0.000387470763451689 -0.000291042813593169 -0.000127918885254429 -0.0002169053840657 2.15871825812899e-05 -0.000246309953406955 -0.000522654826119704 -0.000252487158649318 -0.000278352913640894 -6.44667833533888e-05 -0.000221496144650836 -0.000117047315880691 0.000159998890457263 -0.000510976713631498
"67" 7.91167778194507e-05 0.000160767117787359 -0.000357016956333482 -0.000248121704279956 -0.000147594802245365 -0.000227393804266669 2.66215964073644e-05 -0.00023711235642487 -0.000485015656830182 -0.000231718137719598 -0.000267629471345731 -9.96324660442694e-05 -0.000201467071861225 -5.90398809786066e-05 0.00019636255161471 -0.000502172346193558
"68" 8.44637199028231e-05 0.000174873878888219 -0.000324261460177771 -0.000201923335787266 -0.00016641482351982 -0.000235933570601558 3.37927292348073e-05 -0.000224222858868403 -0.000441889847889808 -0.00021581506004997 -0.000252867495000687 -0.000131396746378383 -0.000174385269573343 3.27592019796649e-06 0.000235757228259886 -0.000488243892903295
"69" 8.8925539215644e-05 0.000188603385807411 -0.000290091175072997 -0.000153894419111407 -0.000183977823962727 -0.000242300273420944 4.26965661206242e-05 -0.000208231172200767 -0.000394585269961733 -0.000205224598743677 -0.000234700676401565 -0.000159319478755678 -0.00014135689465034 6.84559691244521e-05 0.000277260616571049 -0.000469731191114446
"70" 9.2175410855253e-05 0.000201470568973539 -0.000255395335286998 -0.000105485526728552 -0.000199920969183804 -0.000246310474765175 5.28834355523034e-05 -0.000189787112415332 -0.000344474062364614 -0.000200171210650142 -0.000213833859546826 -0.000183074075100862 -0.000103628120637375 0.00013499865549886 0.000319892764480446 -0.000447251406916127
"71" 9.39441118941453e-05 0.000213039685989996 -0.00022099157184461 -5.80633671881878e-05 -0.000213920585746696 -0.000247829257829477 6.39053713141424e-05 -0.000169559487156555 -0.000292900947111669 -0.0002006483675818 -0.000190999191811974 -0.000202463607088796 -6.2494914018193e-05 0.000201428890436869 0.000362659907439264 -0.00042146213886318
"72" 9.40484082682173e-05 0.000222954566361003 -0.000187588266703786 -1.28234439953152e-05 -0.000225704037310166 -0.000246770704087312 7.53425932881296e-05 -0.0001481900790248 -0.000241105494556444 -0.000206462467531944 -0.000166906597625525 -0.00021740122149459 -1.92186126502386e-05 0.000266380333934747 0.000404626685561111 -0.000393001148568316
"73" 9.23846243926558e-05 0.000230961941040302 -0.000155746554488195 2.92549873841093e-05 -0.000235055806488945 -0.000243100552317687 8.68297447682885e-05 -0.000126256628443725 -0.000190178593993104 -0.000217250737500659 -0.000142211328101292 -0.000227912030768644 2.50311306823415e-05 0.000328653256756966 0.000444954468666806 -0.000362477974907444
"74" 8.89444961089298e-05 0.00023690516178252 -0.000125880720494163 6.74387084976695e-05 -0.000241821148409598 -0.000236832462805824 9.80640069149719e-05 -0.000104254920892913 -0.00014101541329745 -0.000232509550141123 -0.000117481899127646 -0.000234119053360637 6.92167494354087e-05 0.000387252479364834 0.000482929464410137 -0.000330441276438547
"75" 8.38027240204546e-05 0.000240742966723823 -9.82417892945966e-05 0.000101257035851918 -0.000245898139677006 -0.000228022963559947 0.000108822067710992 -8.25854409204741e-05 -9.43024994087064e-05 -0.000251627096380686 -9.32009068953704e-05 -0.000236230214750275 0.00011246065187537 0.000441404216903209 0.000517984305164297 -0.000297359781616108
"76" 7.71022841682435e-05 0.000242519978832003 -7.29405715940615e-05 0.000130461431825158 -0.000247254362185683 -0.000216780019981664 0.000118943409958014 -6.15660668542548e-05 -5.05379526356664e-05 -0.000273886393420798 -6.97569007267849e-05 -0.000234533324536023 0.000154037661848999 0.000490542593434541 0.00054967543430156 -0.000263643142758351
"77" 6.90440770007746e-05 0.000242356868078989 -4.99708981094504e-05 0.00015502168920768 -0.000245907362276625 -0.000203239945898214 0.000128319550946642 -4.14252671876401e-05 -1.00212791353464e-05 -0.00029851676463495 -4.7441533469462e-05 -0.000229383003291692 0.000193381687500102 0.000534319133564486 0.000577699392117697 -0.000229627889966744
"78" 5.98694552881901e-05 0.000240447207414055 -2.9216349366031e-05 0.00017508921263308 -0.000241925506478798 -0.000187578213532644 0.000136916100113618 -2.23119336854399e-05 2.71057951013647e-05 -0.000324704312059469 -2.64608037553681e-05 -0.000221172099745079 0.000230081747224226 0.000572559982596233 0.000601873723215588 -0.000195587562328035
"79" 4.98422908207825e-05 0.000237015217788637 -1.05017873400297e-05 0.000190937406973313 -0.000235421882750957 -0.000169994957039548 0.000144712434188136 -4.32284309712548e-06 6.08401493468964e-05 -0.000351606242096383 -6.94918620891053e-06 -0.000210340941044278 0.000263834851358898 0.000605244516455165 0.000622107892498897 -0.000161757083575645
"80" 3.92336907725266e-05 0.000232321682023693 6.40462212612349e-06 0.000202945768480611 -0.000226546418968548 -0.00015070939349413 0.000151730471264714 1.24979555405334e-05 9.12882164939575e-05 -0.00037839650375774 1.10238150779967e-05 -0.000197342389855505 0.000294452420348705 0.000632477564550619 0.000638397709255055 -0.00012831970840653
"81" 2.83123330965361e-05 0.00022662698154472 2.1758315713341e-05 0.000211558834905211 -0.000215481569080267 -0.000129960545473251 0.000158010040993786 2.8140902658274e-05 0.000118637693431802 -0.000404259567382831 2.74375053780718e-05 -0.000182646281820115 0.000321823290730707 0.000654466647320232 0.000650805315940414 -9.5433704364987e-05
"82" 1.73293765993298e-05 0.000220199458112963 3.58197562876539e-05 0.000217243857163503 -0.000202431311112272 -0.000107988884557727 0.000163594127063748 4.26205068678195e-05 0.000143123486751884 -0.000428430162531305 4.23100553200641e-05 -0.000166718603808014 0.000345907435890658 0.000671476304448901 0.000659439772139593 -6.32388457164992e-05
"83" 6.51506731255082e-06 0.000213287527641375 4.88433525701297e-05 0.000220484167861188 -0.000187618264660385 -8.50448420908302e-05 0.000168538360082896 5.597052264163e-05 0.000165018624834868 -0.00045019829079471 5.56903950904902e-05 -0.000150012223155305 0.000366726202494223 0.00068383223961849 0.000664450385614841 -3.18499980407121e-05
"84" -3.92811009279924e-06 0.000206122100553723 6.10630172577808e-05 0.000221739628902336 -0.000171268997250935 -6.13758157035753e-05 0.000172894592470704 6.82288428367441e-05 0.000184616281960166 -0.000468913688054656 6.76442137324884e-05 -0.000132963099860281 0.000384321519253008 0.00069188546249767 0.000666013442269116 -1.38056749020941e-06
"85" -1.38283006005205e-05 0.000198903389859868 7.26869713010288e-05 0.000221445768876883 -0.000153621268755687 -3.72258146100532e-05 0.000176713574794198 7.94382978869763e-05 0.000202197797809452 -0.000484023482910557 7.82548339789264e-05 -0.000115979636011492 0.000398780859797215 0.000695996473514348 0.000664323743336243 2.80697717499019e-05
"86" -2.30424773333741e-05 0.000191810179157045 8.38902048088537e-05 0.000220001294819269 -0.0001349057016058 -1.28254071422475e-05 0.000180036150548 8.96487800384175e-05 0.000218042675671807 -0.000495066089890824 8.76134661239557e-05 -9.94304737840556e-05 0.000410206988965515 0.000696536853591832 0.000659590541433522 5.64093661871081e-05
"87" -3.14609522602825e-05 0.000184981066869784 9.48184535792694e-05 0.00021775038478707 -0.000115351406629224 1.15982055125508e-05 0.000182904988624892 9.89023936046375e-05 0.00023241302215114 -0.000501658165556926 9.58139590560992e-05 -8.3654603578404e-05 0.000418719352759624 0.000693870176418572 0.000652032026277346 8.35513544042465e-05
"88" -3.90007432459543e-05 0.000178536745002486 0.000105579815854593 0.000214995553019722 -9.51785397959129e-05 3.58396342209806e-05 0.000185354543979593 0.000107242955253608 0.000245541519536047 -0.000503531481170261 0.000102953367291823 -6.89449388095397e-05 0.000424453577991967 0.000688345007203177 0.000641873525921312 0.000109411532756202
"89" -4.56111759682198e-05 0.00017255743234386 0.000116250310090826 0.000211982849366305 -7.45969137001565e-05 5.96985614971392e-05 0.000187411838904742 0.00011470757207231 0.000257640584779663 -0.000500504601026406 0.000109126917417721 -5.55587851179089e-05 0.000427549622467696 0.000680302446639677 0.000629340287368624 0.000133916680880211
"90" -5.12589100427541e-05 0.000167100382269167 0.0001268800910297 0.000208914549565052 -5.37983062074586e-05 8.30009482997655e-05 0.000189109985028343 0.00012133494348527 0.000268886569730217 -0.000492502669674014 0.000114423476060738 -4.36997909905994e-05 0.000428160535292145 0.00067005798693368 0.000614664266776205 0.000157002679412197
"91" -5.59373140906101e-05 0.000162205286926894 0.000137484451912269 0.000205948583649334 -3.29690502440381e-05 0.000105583900332564 0.00019047207793948 0.000127159795497496 0.000279440305818571 -0.000479554394200978 0.000118940363450112 -3.35358736814686e-05 0.000426448925424427 0.000657917227261617 0.00059808072491792 0.00017861076844382
"92" -5.9654007767162e-05 0.000157875846730628 0.000148066053336903 0.000203187737631947 -1.22714163293792e-05 0.000127299873234093 0.000191519381788122 0.000132214592408786 0.000289426019658007 -0.00046174516158732 0.000122759394290249 -2.51903492149433e-05 0.000422573691241416 0.000644165324326706 0.000579822069901868 0.00019868829661046
"93" -6.24301879714201e-05 0.000154115310429893 0.000158595714967484 0.000200713875861067 8.14222988589265e-06 0.000148023186445055 0.00019227806869641 0.000136538317741144 0.000298952986199875 -0.000439283354511175 0.000125966687646527 -1.87427774867044e-05 0.000416714897651794 0.000629069978057236 0.000560126264528856 0.00021720584789404
"94" -6.43018978472918e-05 0.000150895050939508 0.000169038665226247 0.000198557730283143 2.81334825750124e-05 0.000167641291619315 0.000192768546718122 0.000140160253007995 0.000308098664106997 -0.000412419234422636 0.000128642458445219 -1.42361643590504e-05 0.000409038008172486 0.000612885114538659 0.000539225537678103 0.000234129689370953
"95" -6.53148570345047e-05 0.000148182942529167 0.000179340329043552 0.000196731621461456 4.75920018884611e-05 0.000186061064716818 0.000193018305857046 0.000143113437920183 0.000316927988124241 -0.000381484536334531 0.000130863728639714 -1.1678685555596e-05 0.000399725675466157 0.00059584423751813 0.000517357565228719 0.000249448769664088
"96" -6.55164617165512e-05 0.000145935841679415 0.000189436837876515 0.000195220264626126 6.64010766263313e-05 0.000203200053933062 0.000193050652537001 0.000145433429365537 0.000325488382786086 -0.000346868827473448 0.000132704957797491 -1.10418110502404e-05 0.000388968455193845 0.000578175339995599 0.000494755100618193 0.000263155223956847
"97" -6.49622766405406e-05 0.000144100706900198 0.000199261072117219 0.000193981776799757 8.44814898706791e-05 0.000218998968310879 0.000192896269854914 0.00014715906278654 0.000333813523491945 -0.00030900309626332 0.000134235210394686 -1.22662355932731e-05 0.000376945863383774 0.000560089077055367 0.000471652078445273 0.000275260214190221
"98" -6.37088301801448e-05 0.000142623907062192 0.000208737065417349 0.000192967580583256 0.000101747303116704 0.000233403617513646 0.00019257736283697 0.000148324400142926 0.00034192544408673 -0.000268363418536058 0.000135528418015222 -1.52635007639912e-05 0.000363853314237919 0.000541787627478194 0.000448272986470398 0.000285780992021778
"99" -6.18098318923104e-05 0.00014144494816829 0.000217794496270547 0.000192109008309563 0.000118141224855996 0.000246380517495867 0.000192129522615647 0.000148968340756752 0.000349835098185801 -0.000225444465427341 0.000136645762186327 -1.99282038385587e-05 0.000349873482860901 0.000523458406667959 0.000424844642154058 0.000294749530947564
"100" -5.93254678634824e-05 0.000140501941070035 0.000226354474834346 0.000191324147391726 0.000133604684205561 0.000257903885518005 0.000191576462661949 0.000149127085218972 0.000357548617689888 -0.000180760552011883 0.000137650602500094 -2.6127111099534e-05 0.000335193130580432 0.00050528060625874 0.000401575026752208 0.000302202735052828
"101" -5.6307927639409e-05 0.00013973838780176 0.000234344714791431 0.000190532847586924 0.000148093328004591 0.000267960353479164 0.000190947381909984 0.000148840658391762 0.000365066502814396 -0.000134833189898825 0.000138605359294576 -3.3715349967307e-05 0.0003199933008044 0.00048742531666799 0.000378672756516044 0.000308187833034833
"102" -5.28056468322925e-05 0.000139093825371828 0.000241698003643828 0.000189644404090783 0.000161581544627616 0.000276548493519671 0.000190278178103143 0.000148146996031088 0.000372383980409814 -8.81916406208147e-05 0.000139562474144875 -4.25306250793652e-05 0.000304459306156108 0.000470046815937285 0.000356335579832389 0.000312763632219823
"103" -4.8875502130046e-05 0.000138510086438627 0.000248346447959442 0.000188565600416864 0.000174031708365855 0.000283674691898386 0.00018958546540263 0.000147079970692756 0.000379491246436031 -4.13385547528277e-05 0.000140572872392408 -5.24054181269629e-05 0.000288755091227373 0.000453293851659974 0.00033474296192714 0.000315992543813841
"104" -4.45578905433588e-05 0.000137933000923381 0.000254228777768444 0.000187209598631768 0.000185438275386448 0.000289356445125201 0.000188905274869633 0.000145681737948431 0.000386382692127116 5.22026964889628e-06 0.000141686517465111 -6.31595599985713e-05 0.000273048582587058 0.000437303244194035 0.000314069458857147 0.00031794499080254
"105" -3.98959875011275e-05 0.000137316058255043 0.000259290622046123 0.000185485219771568 0.000195778450687529 0.000293614522880381 0.000188256230651202 0.0001439793757162 0.000393051021395135 5.10255305877684e-05 0.00014294412992464 -7.46145806781218e-05 0.000257492636671572 0.000422198227768515 0.000294462080322317 0.000318691015444244
"106" -3.49350679717935e-05 0.000136608087969847 0.000263486249037522 0.000183306633823166 0.000205052653468679 0.000296482316190189 0.00018765316481371 0.000142005109696416 0.00039948263201776 9.56269872456794e-05 0.000144384150669677 -8.65886782370842e-05 0.000242230371401341 0.000408088629084356 0.000276058351126056 0.000318312816263344
"107" -2.97086810892307e-05 0.000135768464841785 0.000266769133963595 0.000180586636261071 0.000213254735732851 0.000297993348423815 0.000187116044345685 0.000139787601703493 0.00040566294971 0.000138622281730766 0.00014603676468694 -9.89016611686461e-05 0.000227387305721189 0.000395066145147825 0.000258972635451048 0.000316886698131233
"108" -2.42572094891262e-05 0.000134753558328077 0.00026910029792708 0.000177249260343497 0.000220386499160888 0.000298190171544398 0.000186651547533972 0.000137348456989188 0.000411580641842505 0.000179648789613302 0.000147923674489861 -0.000111381244597767 0.00021307707673545 0.000383211770640378 0.000243299539695151 0.000314489992878029
"109" -1.86154800853661e-05 0.000133528126540778 0.000270452224133655 0.000173221068961325 0.000226450314588848 0.000297117013189334 0.000186263539002535 0.000134705701891425 0.000417218094819764 0.000218385305457612 0.000150062801358068 -0.000123859749979762 0.000199402994986103 0.000372587759682178 0.000229112104277904 0.000311207945257803
"110" -1.28184062073064e-05 0.000132056907169652 0.000270799920180955 0.000168436683090811 0.000231455425880634 0.000294828606119009 0.000185948332813363 0.000131873799691657 0.00042256725908089 0.000254566307988238 0.000152462607896694 -0.000136178873235487 0.000186438451039692 0.000363240596841775 0.000216460326208449 0.000307113848773258
"111" -6.90148630990682e-06 0.000130310715124498 0.000270116496066937 0.000162833324494347 0.000235406386946935 0.000291373394622424 0.000185696693243738 0.000128862536047654 0.000427604101362217 0.000287957536636281 0.000155125671318334 -0.000148191774243245 0.000174254966601508 0.00035519100334983 0.000205368972716555 0.000302287017783513
"112" -9.0180981557813e-07 0.000128257523630288 0.000268390250872438 0.000156356184505458 0.000238308593713772 0.000286808950815213 0.000185492551106165 0.000125670051083134 0.000432314641452923 0.000318400113210481 0.000158045534011612 -0.000159766474256967 0.000162891050516775 0.000348445020710134 0.000195835692403006 0.000296792945683336
"113" 5.14015272466329e-06 0.00012586839279518 0.000265608793371486 0.000148961174176071 0.000240179227571724 0.000281194424872684 0.000185311436210396 0.00012230077680599 0.000436675967323794 0.000345758708483898 0.000161208627582268 -0.000170776816516104 0.000152383103901553 0.000342992419083559 0.00018784322618271 0.000290709784767509
"114" 1.11873413428513e-05 0.000123120732087279 0.000261764449542211 0.000140609715612615 0.000241022236940954 0.000274588698757424 0.000185122941780952 0.000118745640750798 0.000440669087326419 0.000369960070958101 0.000164592939296493 -0.000181117757036368 0.000142736882136172 0.000338796392815525 0.000181346836278517 0.000284098473033601
"115" 1.71900807153926e-05 0.000119985602275035 0.000256852745133526 0.000131264804610543 0.00024084693619773 0.000267054392018408 0.000184893514396283 0.000114988974231584 0.00044426448625809 0.000390980238832299 0.000168165945254837 -0.000190698130496943 0.000133950849918167 0.000335797991873721 0.000176272921785869 0.000277017059309791
"116" 2.31078982145449e-05 0.000116444074499456 0.000250875164763363 0.000120906369509013 0.000239669268506994 0.000258653987282888 0.000184577950863649 0.000111021985881678 0.000447441615980628 0.000408825233772179 0.000171898004840199 -0.000199433932439722 0.000126001572645879 0.000333931970981565 0.000172539086884952 0.000269519041451366
"117" 2.88867319374921e-05 0.000112471000573467 0.000243832360030139 0.000109516018994705 0.000237497643244018 0.000249453402660354 0.000184128262641669 0.000106820547055692 0.000450170913127548 0.000423553831166125 0.000175744350290727 -0.000207265064957691 0.00011886240748775 0.000333101468491611 0.000170032500568851 0.000261657969361433
"118" 3.44709618207771e-05 0.000108046258558581 0.000235735276511008 9.7087847451661e-05 0.000234345877337985 0.000239516492298826 0.000183493487284196 0.000102366715311077 0.00045242726557858 0.000435257103463832 0.000179659746778989 -0.000214136799689703 0.000112479187826104 0.000333199356176838 0.000168628277729939 0.000253473270549611
"119" 3.98120454805155e-05 0.000103152563360679 0.000226592635684605 8.3622515799451e-05 0.000230225513829405 0.000228912009371179 0.000182617833243895 9.76375370145563e-05 0.000454180446963598 0.000444051278216598 0.000183595152506568 -0.000220009113110673 0.000106803475090082 0.000334104835939975 0.000168188905990247 0.000245011826031298
"120" 4.48429834641253e-05 9.77681411718267e-05 0.000216416368953805 6.91317689923834e-05 0.00022515282176313 0.000217705050731013 0.000181448319974356 9.2608153907924e-05 0.000455404456959956 0.000450085480653847 0.000187498380548733 -0.000224857577961466 0.000101766514378566 0.000335680793006892 0.000168560652376062 0.000236301329578793
"121" 4.95053589718446e-05 9.1882887110335e-05 0.000205227703814806 5.36332034114836e-05 0.000219143547269039 0.000205966300968145 0.000179918717444385 8.7255029058338e-05 0.000456073210490031 0.000453533080139464 0.000191313294973169 -0.000228663504384142 9.7299999390904e-05 0.000337779855650946 0.00016957880860705 0.000227378107120651
"122" 5.3735645841837e-05 8.54820278882607e-05 0.000193048929204632 3.71554785041002e-05 0.000212219494888323 0.000193766218262287 0.000177976958809571 8.15608301455647e-05 0.000456164465256475 0.000454569451456613 0.000194988310363294 -0.000231418339018454 9.33294160754222e-05 0.000340252160901648 0.000171081449092614 0.000218269223624411
"123" 5.74690398409684e-05 7.85584082436349e-05 0.000179905343994557 1.97398510227427e-05 0.000204405160292397 0.000181173532842942 0.000175566207322733 7.55049441634288e-05 0.000455653748019917 0.000453396635487305 0.000198466444069391 -0.000233118312822473 8.97840514788922e-05 0.000342931423061311 0.000172891109937748 0.000209002382458843
"124" 6.06410493116761e-05 7.11057208777854e-05 0.000165831176813601 1.43495495417993e-06 0.000195727472632321 0.000168261798857109 0.000172631384583105 6.90725006617768e-05 0.000454522775599387 0.000450203421934495 0.000201700436868496 -0.000233773538262969 8.65878698087522e-05 0.000345664065281024 0.00017484038615721 0.000199597919031332
"125" 6.31919543424716e-05 6.31281722534097e-05 0.000150861189812828 -1.77023782175885e-05 0.000186213818923155 0.00015510261518655 0.000169125977824109 6.22554098788478e-05 0.000452760412992995 0.000445196762640891 0.000204640229690628 -0.000233391407807137 8.36653673621902e-05 0.00034828356888681 0.000176759011316909 0.000190078560913156
"126" 6.50578124493957e-05 5.46228425493307e-05 0.000135036129945266 -3.76082289673534e-05 0.00017590117305442 0.000141767827229757 0.000165002764313556 5.50410064738084e-05 0.000450350068159228 0.000438585897782871 0.000207238066291648 -0.000231989426169858 8.09489398508508e-05 0.000350627972313107 0.000178479412599874 0.000180464628182455
"127" 6.61837197373343e-05 4.5606608783594e-05 0.000118408200012427 -5.81995544764886e-05 0.000164831835347314 0.000128334547926887 0.000160230548611662 4.74358698032925e-05 0.00044729595261972 0.000430547738347065 0.000209457547620755 -0.000229585322341233 7.83743715828209e-05 0.000352548665696494 0.000179849832990026 0.000170772583278744
"128" 6.65149525091735e-05 3.60932648892326e-05 0.000101029546685658 -7.9395456348925e-05 0.000153050800499562 0.000114872532680637 0.000154773916485934 3.94432001000814e-05 0.000443593511046967 0.000421270561671577 0.00021126376662097 -0.000226198662852873 7.58882063177758e-05 0.000353897689309816 0.000180720757662027 0.000161023610681812
"129" 6.60048917537495e-05 2.61028866212422e-05 8.29584173659714e-05 -0.00010110347341808 0.000140605468267525 0.000101455307888812 0.000148607483226833 3.107376781509e-05 0.000439248487127441 0.000410940365988882 0.00021262218881192 -0.000221857056858743 7.34301004049707e-05 0.00035453322403765 0.000180955258527415 0.000151231924880144
"130" 6.46128245280454e-05 1.56646637757492e-05 6.42666923913486e-05 -0.000123219100110988 0.000127551044944104 8.81577157407243e-05 0.000141719616045613 2.23408921406134e-05 0.000434267809741266 0.000399712269863312 0.000213509974098532 -0.000216585742514594 7.09624538681869e-05 0.000354332435438618 0.000180429922343211 0.000141416718553866
"131" 6.23052030377138e-05 4.8121578634116e-06 4.50226963936766e-05 -0.000145640573623273 0.000113948604027558 7.50498148969388e-05 0.000134099463003766 1.32665403410692e-05 0.00042867254524639 0.00038774953477011 0.000213904994897309 -0.000210418774374603 6.84337300698735e-05 0.000353174530164913 0.000179033905998273 0.000131586137259526
"132" 5.90561187212294e-05 -6.41762840728011e-06 2.53009337219724e-05 -0.000168256501065291 9.98557619069455e-05 6.21978711412344e-05 0.000125746774168033 3.87524800047161e-06 0.000422474254752899 0.000375200631758847 0.000213794327538899 -0.000203388082685125 6.58171882944464e-05 0.000350959567998541 0.000176671458549438 0.000121759015013658
"133" 5.48498902034212e-05 -1.79756643704542e-05 5.1941572133483e-06 -0.000190947214282063 8.53471101629031e-05 4.96724016034629e-05 0.00011667054971268 -5.80094487007492e-06 0.000415703551523608 0.000362187585155448 0.000213168227411039 -0.000195529433618148 6.30823521923837e-05 0.000347599469681193 0.000173264839493107 0.000111948918422775
"134" 4.96801841142146e-05 -2.981198584784e-05 -1.52137114184731e-05 -0.000213594850430079 7.0488860238467e-05 3.75353550003634e-05 0.000106885774675611 -1.57298866913148e-05 0.000408379728315161 0.000348846058730544 0.000212019433152931 -0.000186882902398805 6.02058909772377e-05 0.00034301851189751 0.000168748273299672 0.000102167447882663
"135" 4.35456618065035e-05 -4.18704198394916e-05 -3.58238255352294e-05 -0.000236077314001186 5.53542167922279e-05 2.58457477142615e-05 9.64107269793116e-05 -2.58755896065367e-05 0.000400541618347489 0.000335294433964054 0.000210345256337127 -0.000177497088726734 5.71631036698121e-05 0.000337157889867645 0.000163066560026521 9.24213773752803e-05
"136" 3.64664815496964e-05 -5.40870481237667e-05 -5.65405110719439e-05 -0.000258269946106234 4.00160433228035e-05 1.46606194668764e-05 8.52808843612957e-05 -3.62008785905552e-05 0.000392213666865346 0.000321640603001089 0.000208148582306656 -0.00016742118997676 5.39438972130544e-05 0.00032996947409353 0.000156187058777111 8.27183481153866e-05
"137" 2.84588592765835e-05 -6.64007513196067e-05 -7.72570541581903e-05 -0.000280047124069916 2.45537471131313e-05 4.02900530273589e-06 7.35265242043008e-05 -4.66622645010931e-05 0.000383439791638535 0.000307988819942521 0.000205436304903796 -0.000156708046431137 5.05380809159008e-05 0.000321433227858792 0.000148093194326263 7.30721532982743e-05
"138" 1.95582018282438e-05 -7.87390905603876e-05 -9.78673388142776e-05 -0.000301288435684713 9.04255745938067e-06 -5.99792483138977e-06 6.11947254218812e-05 -5.72173228389476e-05 0.00037425280846617 0.000294434216663652 0.000202217349520718 -0.000145416363328711 4.69331152932014e-05 0.000311528539591939 0.000138775877867023 6.34851874996341e-05
"139" 9.81035293394675e-06 -9.10290349527619e-05 -0.00011826211736157 -0.000321863921843023 -6.439484497621e-06 -1.53813224610475e-05 4.83319521827534e-05 -6.78182975364957e-05 0.000364698811294346 0.000281064777665259 0.000198505250593805 -0.000133609503967559 4.31338958123683e-05 0.000300264231220894 0.000128252346776616 5.396734972024e-05
"140" -7.3216444479641e-07 -0.000103193518865247 -0.000138321928425426 -0.000341654243130211 -2.18134640735864e-05 -2.40824701103319e-05 3.49941732394244e-05 -7.84197985063052e-05 0.000354816326980199 0.000267962731404623 0.000194313696427635 -0.000121354026770344 3.91350637030767e-05 0.000287652050398079 0.000116541604646401 4.45240069586097e-05
"141" -1.20085466017826e-05 -0.000115159194366797 -0.000157936437460995 -0.000360539009401093 -3.70035278131561e-05 -3.20696117882506e-05 2.12381756421665e-05 -8.89725310298312e-05 0.00034465065975048 0.000255209608895739 0.000189665625335197 -0.000108720877086879 3.49430679009103e-05 0.000273724983493171 0.00010368171954036 3.51610510687596e-05
"142" -2.39443079458855e-05 -0.000126840896954102 -0.000176984850218703 -0.000378404905376397 -5.19297718884097e-05 -3.93154340797484e-05 7.13552097178123e-06 -9.94255424658894e-05 0.000334248728320028 0.000242862703436342 0.000184578912619308 -9.57780479081809e-05 3.05711868118262e-05 0.000258532904920522 8.97293774582872e-05 2.58875371731894e-05
"143" -3.6461440473904e-05 -0.00013815934557676 -0.000195351550140085 -0.000395134620064979 -6.65203985384988e-05 -4.57972945595201e-05 -7.24227588094368e-06 -0.000109728184425407 0.000323656695757518 0.00023097950693836 0.000179084830667116 -8.26013843882352e-05 2.60339074139628e-05 0.000242133375444869 7.47504008984684e-05 1.67136744127832e-05
"144" -4.94670815360941e-05 -0.000149036018358562 -0.000212914328293202 -0.000410619970400465 -8.06924733310553e-05 -5.1496785935788e-05 -2.18219452904593e-05 -0.000119820820979012 0.00031292710425136 0.00021961047284149 0.000173210095975512 -6.92601094758864e-05 2.13479667863574e-05 0.000224602834696194 5.88199717160775e-05 7.65456270901854e-06
"145" -6.2867788452031e-05 -0.000159386339015924 -0.000229560555485473 -0.00042476081939115 -9.43749105127657e-05 -5.63984583075216e-05 -3.65229015267388e-05 -0.000129650850821321 0.000302104853942821 0.000208787328067094 0.000166985536526115 -5.58271650080499e-05 1.65444336353678e-05 0.000206023711456036 4.20311915141013e-05 -1.28131042861627e-06
"146" -7.65623267653819e-05 -0.00016913146865222 -0.000245171608613397 -0.000437456449930606 -0.000107492784381218 -6.04931585521047e-05 -5.12525851800852e-05 -0.000139157744779122 0.00029124319685003 0.000198531092062327 0.000160449848271377 -4.23713263829568e-05 1.16522540225337e-05 0.000186495731497817 2.44853562996398e-05 -1.00726437125988e-05
"147" -9.04391201027344e-05 -0.000178191638702132 -0.000259632160683057 -0.000448611964308715 -0.000119973290076224 -6.37699142645312e-05 -6.59256408238621e-05 -0.000148280634022793 0.000280394701516099 0.000188848303148704 0.000153645604394859 -2.89541860657747e-05 6.71653472613511e-06 0.000166131445337139 6.2952860483623e-06 -1.86967868763442e-05
"148" -0.000104387684364584 -0.000186493143855604 -0.000272837986711718 -0.000458151820965124 -0.000131744256268739 -6.62279182518068e-05 -8.04464539503527e-05 -0.000156961754966433 0.000269611649147368 0.000179746100201259 0.000146606723483358 -1.56429869143696e-05 1.77030869354215e-06 0.000145040517783667 -1.24233820981727e-05 -2.71319824435079e-05
"149" -0.000118294076634258 -0.000193963380097658 -0.000284680132345433 -0.00046599544162652 -0.000142733375828836 -6.78628199852809e-05 -9.47194020788117e-05 -0.000165132073067037 0.000258944149254997 0.000171200882409772 0.000139384405933173 -2.49118371802515e-06 -3.13001160997415e-06 0.000123352778908288 -3.15407666576504e-05 -3.53467418045092e-05
"150" -0.000132034312140391 -0.000200529758704113 -0.000295053599093238 -0.00047207613889026 -0.000152877367048956 -6.86782896997883e-05 -0.000108643954491386 -0.000172733501502456 0.000248443757625872 0.00016319701648894 0.000132023239318852 1.04480679173873e-05 -7.93620351719396e-06 0.000101195263120826 -5.09269671253793e-05 -4.33134345660887e-05
"151" -0.000145489048268493 -0.000206127199207637 -0.000303863920104159 -0.00047633310238285 -0.000162101385124949 -6.86714440463725e-05 -0.000122116919647972 -0.000179694909691121 0.000238168256978239 0.000155680822547941 0.000124572195088869 2.31331583632215e-05 -1.25823846743846e-05 7.87139301966775e-05 -7.04335309970168e-05 -5.09896023632305e-05
"152" -0.000158537581507876 -0.000210698035517612 -0.000311024900067967 -0.000478720917448688 -0.000170348387999456 -6.78523060177586e-05 -0.000135040981068877 -0.00018595762942325 0.000228158146817006 0.000148616908846922 0.00011708343870174 3.55223109162013e-05 -1.70144806248378e-05 5.60412066433e-05 -8.99304419980564e-05 -5.83412838038904e-05
"153" -0.000171054258122672 -0.000214184095719734 -0.000316449760011337 -0.000479200915522313 -0.000177547436456558 -6.62247871761785e-05 -0.00014731134927372 -0.000191453426760379 0.000218467716255942 0.000141951917562247 0.000109606184169354 4.7582676834476e-05 -2.11685303434819e-05 3.3320565371974e-05 -0.000109273971756281 -6.53245207480583e-05
"154" -0.000182918322893926 -0.000216535636251215 -0.000320066655806533 -0.000477741172061162 -0.000183644864598771 -6.37961445184323e-05 -0.00015882533421196 -0.000196120234465187 0.000209144953782725 0.000135616358976243 0.00010219385011502 5.92879441365346e-05 -2.49720269748827e-05 1.06983598262221e-05 -0.000128313987721367 -7.18918125811528e-05
"155" -0.000194013938651733 -0.000217713327967766 -0.000321806860819356 -0.00047433062939058 -0.000188579522077432 -6.05801081080214e-05 -0.000169485108391547 -0.000199900001741257 0.000200227571806833 0.000129553098453309 9.48957078472706e-05 7.06158241143584e-05 -2.83706648444104e-05 -1.16883629879266e-05 -0.000146920200959856 -7.80000281382734e-05
"156" -0.000204223508648973 -0.000217679598914586 -0.000321620945505625 -0.000468963809658649 -0.000192302973839148 -5.65849963611031e-05 -0.000179192110246874 -0.000202734528536526 0.000191758819077333 0.000123690051743026 8.77648945476981e-05 8.1553028709409e-05 -3.12948724889358e-05 -3.36983819852484e-05 -0.000164953343946971 -8.36004873265934e-05
"157" -0.00021343241234131 -0.000216405784632402 -0.000319454686728408 -0.000461644349602687 -0.00019476586481633 -5.18265071737401e-05 -0.000187854626298417 -0.000204569923274702 0.00018377769326195 0.000117964416914144 8.08467121047307e-05 9.20840346787114e-05 -3.36834229837277e-05 -5.51978410787424e-05 -0.000182284780602213 -8.86429654215279e-05
"158" -0.000221533929189259 -0.000213869070009887 -0.00031527723411424 -0.000452392173821739 -0.000195919954030331 -4.63174959644653e-05 -0.000195381494219325 -0.000205357076774621 0.000176318238545214 0.000112299134315996 7.4193301736537e-05 0.000102207677122755 -3.54714496028639e-05 -7.60556236745515e-05 -0.000198783729929852 -9.30783401202481e-05
"159" -0.000228427118435811 -0.000210057557928632 -0.000309061010783996 -0.000441236885903369 -0.000195730329343934 -4.0079333195224e-05 -0.000201694708416745 -0.000205051842416137 0.000169406960519796 0.000106642911151422 6.78430757140883e-05 0.000111915699346585 -3.66159709699219e-05 -9.6155469242498e-05 -0.000214344585326483 -9.68588884776209e-05
"160" -0.000234018942584967 -0.000204968438016546 -0.0003007974530341 -0.000428220932457192 -0.000194165721425511 -3.31306661363525e-05 -0.000206713340158767 -0.000203618695669117 0.000163064672173114 0.000100941598147546 6.18372660786698e-05 0.000121208999461684 -3.70617764028654e-05 -0.000115383328149107 -0.000228859769442129 -9.99397331711039e-05
"161" -0.00023821968980933 -0.00019860305940053 -0.000290484072612308 -0.000413401236429345 -0.000191199021355899 -2.54966788708653e-05 -0.000210374128682393 -0.000201025279432227 0.000157314952084821 9.51384733686302e-05 5.62127108923034e-05 0.000130089016970216 -3.67657678632241e-05 -0.000133636807378605 -0.00024223375985073 -0.000102279127870963
"162" -0.000240957151015464 -0.000190975371091556 -0.000278134061795003 -0.000396843706542891 -0.000186814157138658 -1.72020548006253e-05 -0.000212614965330262 -0.000197254337792098 0.000152165135549049 8.92163758797022e-05 5.09968431199987e-05 0.000138553985933295 -3.57053391819212e-05 -0.00015082927403247 -0.000254395914893918 -0.000103837131014525
"163" -0.000242156219856002 -0.00018210275146251 -0.000263772083629292 -0.000378621299172825 -0.000180993838254301 -8.27354689108158e-06 -0.000213384343685446 -0.000192282106784294 0.000147626363798277 8.31220310844342e-05 4.62208878930286e-05 0.000146613923377759 -3.38416290601562e-05 -0.000166876638790426 -0.000265264387455238 -0.00010457598297121
"164" -0.000241759003535999 -0.000172014986028381 -0.000247438067651762 -0.000358829119380353 -0.000173742391270485 1.25303546166687e-06 -0.000212639758448541 -0.000186106605936471 0.000143694732907557 7.68523936416989e-05 4.19044069087028e-05 0.000154264731211234 -3.11679209853416e-05 -0.000181714615793595 -0.000274793757910599 -0.000104465408395658
"165" -0.000239718049103228 -0.000160750997936156 -0.00022918565526775 -0.000337560667842752 -0.000165062511014629 1.13458347124029e-05 -0.000210353378981865 -0.000178730814428812 0.000140366346718548 7.03976645945407e-05 3.80612740552715e-05 0.000161512509104402 -2.76719998879432e-05 -0.000195295995127396 -0.000282946059126904 -0.000103477689339453
"166" -0.000235996438998034 -0.000148352738600292 -0.000209077346970158 -0.000314926591034816 -0.000154971101837729 2.19633200871957e-05 -0.00020650837150593 -0.00017016677270078 0.000137630577205389 6.37686718559829e-05 3.46988245251625e-05 0.000168353637223413 -2.33586614052297e-05 -0.000207579246219005 -0.000289695584387029 -0.000101600902655017
"167" -0.000230571428709521 -0.000134875230918685 -0.000187192613513328 -0.000291046461480767 -0.000143489478851913 3.30639675022337e-05 -0.00020108987159183 -0.000160433217568069 0.000135461583484158 5.69818087269056e-05 3.18220163647928e-05 0.000174789230362453 -1.82425213843672e-05 -0.000218541796793728 -0.000295032336560431 -9.88163926462445e-05
"168" -0.000223427435912649 -0.000120380795650146 -0.000163627066268012 -0.000266049799166667 -0.000130653718848915 4.4601718855158e-05 -0.000194109076253492 -0.000149562167599194 0.000133836300426331 5.00706000398616e-05 2.942383379865e-05 0.000180813379443107 -1.23494198121544e-05 -0.000228179094005213 -0.000298965468440887 -9.51226176691493e-05
"169" -0.000214565131038889 -0.000104933120248437 -0.000138483313110907 -0.00024006632960218 -0.000116504222847586 5.6526236072182e-05 -0.000185574618123488 -0.000137594589738524 0.000132724404964966 4.30627666966553e-05 2.75005986411916e-05 0.000186423953668532 -5.70560935754464e-06 -0.000236494753319386 -0.000301514574779428 -9.0518064001709e-05
"170" -0.000204000660691258 -8.86134921396013e-05 -0.00011188394155871 -0.000213249062509699 -0.000101098952682718 6.87833673918329e-05 -0.000175520071552824 -0.000124580045251554 0.000132077874674496 3.60230470324358e-05 2.60325452888191e-05 0.000191609268851681 1.63478927446119e-06 -0.000243518553159107 -0.000302717672957698 -8.50188484152608e-05
"171" -0.00019175365843104 -7.14934186051987e-05 -8.39551033446427e-05 -0.000185738277521788 -8.44969399258517e-05 8.13177814486618e-05 -0.000163978865503684 -0.00011057528713677 0.00013186086441235 2.89985085294387e-05 2.49998204485023e-05 0.000196360618043371 9.63185993118682e-06 -0.00024927872288549 -0.000302619287875814 -7.86338472579684e-05
"172" -0.000177865655568502 -5.36664336782244e-05 -5.48407213565687e-05 -0.000157691880463892 -6.67712030075475e-05 9.40678542093365e-05 -0.000151002816565863 -9.56467891798602e-05 0.000132017080507398 2.20484411162249e-05 2.43766731650854e-05 0.000200664069146247 1.82138832826867e-05 -0.000253829732869073 -0.000301284053164058 -7.13949298765996e-05
"173" -0.000162390010095572 -3.52250046305234e-05 -2.46990838490041e-05 -0.000129273616546142 -4.80043783838861e-05 0.000106970541854258 -0.000136652505926291 -7.98709270157121e-05 0.000132492849795462 1.52473856957454e-05 2.41293810475121e-05 0.000204503396530261 2.73155948986043e-05 -0.000257234240404592 -0.000298789287922846 -6.33335716121552e-05
"174" -0.000145390516433987 -1.62648022408565e-05 6.31003713992747e-06 -0.00010064343634459 -2.8284606410416e-05 0.000119954310378352 -0.000121003303083494 -6.33305248364355e-05 0.000133219817371765 8.66268627269569e-06 2.42212728243742e-05 0.000207862131125939 3.68632902148017e-05 -0.000259568845995162 -0.000295215114348696 -5.44924394788098e-05
"175" -0.000126940884269922 3.11655305655969e-06 3.80125156283733e-05 -7.19696779601985e-05 -7.712699747509e-06 0.000132956530580927 -0.00010413733334502 -4.61157393070648e-05 0.000134138499681577 2.35990058454606e-06 2.46125555563342e-05 0.000210723381752568 4.67700227184687e-05 -0.000260919648999372 -0.00029065762406243 -4.49137551057664e-05
"176" -0.000107128158415681 2.28108371440749e-05 7.02249202248419e-05 -4.34209324896931e-05 1.36085576945342e-05 0.000145899153804993 -8.61423239055871e-05 -2.83189080699364e-05 0.00013517587459839 -3.59289887026701e-06 2.52582562366948e-05 0.000213065679999709 5.6954722840478e-05 -0.000261384760581488 -0.000285218826852493 -3.46562681313243e-05
"177" -8.6056635479275e-05 4.27121727696505e-05 0.000102758586963337 -1.51632646503863e-05 3.55618271608676e-05 0.000158709590490608 -6.71256076212163e-05 -1.00480753248315e-05 0.000136256705712645 -9.12605198224133e-06 2.61106425543459e-05 0.00021486640683585 6.73222216818544e-05 -0.000261072717672534 -0.000279011389877003 -2.3778771229934e-05
"178" -6.38331918976683e-05 6.27181448848378e-05 0.00013541799581702 1.26321164650464e-05 5.80294107862129e-05 0.000171314345225104 -4.71909345371001e-05 8.59910442901291e-06 0.000137308925596164 -1.41950654596909e-05 2.71226862101021e-05 0.000216107688111427 7.77826712767774e-05 -0.000260091437616707 -0.00027214271347112 -1.23486412450385e-05
"179" -4.05775672034472e-05 8.27084053412409e-05 0.000168004142263954 3.97966429049585e-05 8.08799040962963e-05 0.000183633122932675 -2.64576066831217e-05 2.75037857333275e-05 0.000138253929538465 -1.87375480336078e-05 2.82399339132275e-05 0.00021676678303071 8.8233396513244e-05 -0.000258561700073646 -0.000264739176586028 -4.38708166963758e-07
"180" -1.64178559760362e-05 0.000102579678419467 0.000200311842428056 6.61680933604947e-05 0.000103987745844596 0.000195586984739248 -5.047825092947e-06 4.65573567519918e-05 0.000139011034776246 -2.27110715930378e-05 2.94071562300572e-05 0.000216821829151477 9.85844429187644e-05 -0.000256612846458498 -0.000256918759358062 1.18751123137166e-05
"181" 8.5042728129907e-06 0.00012221942681438 0.00023213628679861 9.15816660189321e-05 0.000127210201839092 0.000207098784301125 1.69049590031955e-05 6.56412308711935e-05 0.000139500377820382 -2.60876544091072e-05 3.05709676249632e-05 0.000216253299348408 0.000108733001865724 -0.000254370613758136 -0.000248805214502002 2.45114896626809e-05
"182" 3.40512275665287e-05 0.000141519403285867 0.000263274302419279 0.000115881087730457 0.000150416298391818 0.000218089626927606 3.92747752874075e-05 8.46385859803706e-05 0.000139646085630931 -2.88448442482531e-05 3.16761359015151e-05 0.00021504168555071 0.000118588808141561 -0.00025196200071972 -0.000240517404895663 3.73892066500403e-05
"183" 6.00720842154068e-05 0.000160372410020466 0.000293521501609795 0.000138918133255817 0.000173460766432827 0.00022848479399283 6.19196769712083e-05 0.000103434345121634 0.000139368912334887 -3.09806544245601e-05 3.2673457816579e-05 0.000213176461360174 0.000128063235934876 -0.000249516433019694 -0.000232176431070174 5.04219512070164e-05
"184" 8.64095440515637e-05 0.000178670464128411 0.000322675021135025 0.00016054263233878 0.000196198589897272 0.000238203928127617 8.46986630050359e-05 0.000121908269591711 0.000138596181670432 -3.24919809481272e-05 3.35037823353814e-05 0.000210634432414603 0.000137054994582304 -0.000247164875960167 -0.00022389992741413 6.35199596380574e-05
"185" 0.000112907517503279 0.000196311707889576 0.000350533299677721 0.000180616411873616 0.000218484787915621 0.000247170878644485 0.000107471634288437 0.000139943028849356 0.000137248387299017 -3.33875225417532e-05 3.41164318902577e-05 0.000207404744676034 0.000145485402653347 -0.000245032267502464 -0.000215803175519896 7.65920783331258e-05
"186" 0.000139401765062192 0.000213196975243717 0.000376912463116694 0.000199008606045105 0.0002401789375429 0.00025531487424603 0.000130095088322662 0.000157425496313623 0.000135262779617388 -3.37051041966424e-05 3.44619442132759e-05 0.000203476423058477 0.000153268871474582 -0.00024323965173529 -0.000207989151199138 8.95539978911587e-05
"187" 0.000165736282971732 0.000229235810512119 0.000401626658787346 0.00021560342753985 0.00026114173503193 0.000262565706317625 0.000152427761795743 0.000174245024949714 0.000132572830522889 -3.34893325766466e-05 3.44929279399065e-05 0.000198845362093904 0.000160341048893512 -0.000241899685609317 -0.000200559123642046 0.000102315830415878
"188" 0.000191745362848632 0.000244328309401187 0.000424497862590621 0.000230281320692714 0.000281226116624994 0.00026885339797378 0.000174327846853405 0.0001902907099207 0.000129120529924175 -3.27835720884708e-05 3.41655930012177e-05 0.000193502067734864 0.000166622253156602 -0.000241121637712593 -0.000193603903296172 0.000114792995606396
"189" 0.000217268489912769 0.000258394797714594 0.000445367640008526 0.000242948474010914 0.000300299955685297 0.000274117913161776 0.000195652550637444 0.000205461027531483 0.000124846249385888 -3.16610160672334e-05 3.3435231271498e-05 0.000187444913072305 0.000172055449258918 -0.000241010226866541 -0.000187212246424048 0.000126894820084321
"190" 0.000242144148791238 0.000271352121125951 0.00046407949832316 0.000253504673024538 0.000318224459471999 0.000278296405727223 0.000216265739471295 0.000219653672167903 0.000119708983841167 -3.01819962577486e-05 3.22652822634122e-05 0.000180672257366379 0.000176581770024756 -0.00024165521355384 -0.000181459235695385 0.000138542990498568
"191" 0.000266219370456067 0.000283123712281091 0.000480490518099313 0.000261877646218447 0.000334873899479151 0.000281331985737345 0.000236032264942274 0.000232775193251807 0.000113660730791964 -2.8429764786311e-05 3.06206968598552e-05 0.000173187837876081 0.000180152881654909 -0.000243141461245312 -0.000176413985457203 0.000149654322128332
"192" 0.000289344905030675 0.000293647116939583 0.000494482812652773 0.000268003659010881 0.000350130480255125 0.000283179924626138 0.000254827733084821 0.00024474246857592 0.000106671038667096 -2.65052217526284e-05 2.84739883486431e-05 0.000164999214399116 0.000182736210187805 -0.000245537727011178 -0.000172124675820862 0.000160159686189026
"193" 0.000311371741116816 0.000302853584878888 0.000505938668961138 0.00027182286238807 0.000363873697445948 0.000283786693376314 0.000272526086240479 0.000255468618077931 9.87152394378302e-05 -2.44846912054473e-05 2.57995279734322e-05 0.000156111605110503 0.000184291942608837 -0.000248903060943366 -0.000168644734742553 0.000169981620196077
"194" 0.000332166936025834 0.000310692616431956 0.00051477182219157 0.000273298675270821 0.000375993460889884 0.000283118597598708 0.000289009175187342 0.000264887372153374 8.97751309024253e-05 -2.24900413545276e-05 2.25748778712565e-05 0.000146541376766564 0.000184809100757198 -0.000253286542196895 -0.000166003407435166 0.000179060085493506
"195" 0.00035159177047621 0.000317110993085161 0.000520892089756208 0.00027239934554323 0.000386389430066202 0.000281140328003021 0.00030416478403722 0.000272925143422142 7.98399875853194e-05 -2.05992263339687e-05 1.87834992464389e-05 0.00013629819340026 0.000184259841467474 -0.000258728251696574 -0.000164231446543434 0.000187335159378393
"196" 0.000369531602362409 0.000322076178129822 0.000524253501436219 0.000269116562280868 0.00039497695959208 0.000277823269886363 0.000317896763093477 0.000279534383658525 6.89119315225647e-05 -1.894326638685e-05 1.44171050120004e-05 0.00012540788980046 0.000182655570224374 -0.000265245098896315 -0.000163335596207064 0.000194751128909281
"197" 0.000385870865880339 0.000325549425368842 0.000524805990776642 0.000263446633842422 0.000401667211700305 0.00027314975936108 0.000330103800509729 0.000284661351765826 5.69988124039131e-05 -1.76120445417568e-05 9.4746407279677e-06 0.000113888040430017 0.000179989916339435 -0.000272847221829264 -0.000163319020556813 0.000201262856266469
"198" 0.000400502764459703 0.000327505356116325 0.000522523424569405 0.000255401470477444 0.000406390616666812 0.000267105166622825 0.000340699351624193 0.000288269111415179 4.41167486681693e-05 -1.67058950227886e-05 3.95004336980131e-06 0.000101760271484896 0.000176279337596888 -0.000281536050637783 -0.00016418036792534 0.000206829551365188
"199" 0.000413342039075678 0.000327929351347583 0.000517405335689973 0.00024501408747267 0.000409089370734966 0.000259683434718771 0.000349611237492667 0.000290330307214977 3.02950279922149e-05 -1.6346255739389e-05 -2.14916421729823e-06 8.90607915855031e-05 0.000171548860958498 -0.000291293625801071 -0.000165893735019979 0.000211420339219232
"200" 0.000424302660565037 0.000326809520211614 0.000509459645262082 0.000232320068884948 0.000409709952771924 0.000250885668028687 0.000356769450814472 0.000290822511583742 1.55678347830465e-05 -1.66145385175049e-05 -8.80707848166444e-06 7.58161094766989e-05 0.000165824894508203 -0.000302088437455639 -0.000168434016567065 0.000215008352399842
"201" 0.000433320689140487 0.000324147827619431 0.000498719620384002 0.000217374034006966 0.000408214493416061 0.000240723294643502 0.000362122563490877 0.000289738176514635 -1.71226449098314e-08 -1.76101919402195e-05 -1.60095595802882e-05 6.20660596970252e-05 0.000159149013846701 -0.000313884702599645 -0.000171761487586396 0.000217576684416034
"202" 0.000440332549209609 0.000319947282246544 0.000485226221929935 0.000200238168474859 0.000404583508451188 0.000229211179566308 0.000365613531193546 0.000287074587147865 -1.64122835302845e-05 -1.94153983776268e-05 -2.37346754442309e-05 4.78436172130369e-05 0.000151565057290213 -0.000326630179910242 -0.000175833978556241 0.000219112877842605
"203" 0.000445301531913165 0.00031422713598194 0.000469052819151622 0.000180996458198216 0.000398798555948354 0.000216375498241414 0.000367219942661219 0.00028284392934534 -3.35500458435932e-05 -2.21176691291706e-05 -3.19519709797781e-05 3.31976502900805e-05 0.000143127874475283 -0.000340255578431445 -0.000180593038443336 0.000219618883406641
"204" 0.000448188074821999 0.000307002272839669 0.00045026957515674 0.000159732871923585 0.00039085960365436 0.000202248651585414 0.000366907559350682 0.000277061043258177 -5.13638863219301e-05 -2.5776445214662e-05 -4.06327349539296e-05 1.8169490768346e-05 0.000133899068372993 -0.000354691010573625 -0.000185979010997165 0.000219092018782603
"205" 0.000448980820390321 0.000298308917031153 0.000428983326290156 0.000136550390397439 0.000380783109835248 0.00018687128904958 0.000364671076593626 0.000269762764939628 -6.97792822654478e-05 -3.04664884836814e-05 -4.97332135005251e-05 2.81263374141416e-06 0.000123946391968183 -0.000369854826614044 -0.000191923167722822 0.000217549889040654
"206" 0.000447671160787585 0.00028817950222197 0.00040529798838223 0.000111559231733764 0.000368590056392732 0.000170293390797968 0.000360498852829319 0.000260978128430853 -8.87121708506658e-05 -3.62274229941655e-05 -5.92154864972102e-05 -1.28257715115482e-05 0.000113339474862992 -0.000385653406224071 -0.000198351697596864 0.000215007585742532
"207" 0.000444262613453001 0.000276662946196234 0.000379341223096266 8.48818879250394e-05 0.000354323765915635 0.000152572250192486 0.000354411361132039 0.000250760273391337 -0.000108072837868301 -4.31042705812452e-05 -6.90326386039241e-05 -2.86829788598475e-05 0.00010215519026186 -0.000401984561769209 -0.000205185697731616 0.000211495450227927
"208" 0.000438777767097227 0.000263808313474168 0.000351246404774438 5.66390567866162e-05 0.000338028240038881 0.000133765537574182 0.0003464150800179 0.000239156234856335 -0.000127770658017082 -5.11131692342814e-05 -7.91340873874663e-05 -4.47114267114797e-05 9.04698323055664e-05 -0.000418746900915187 -0.000212347064358811 0.000207034754920221
"209" 0.000431249932816308 0.000249676406063911 0.00032116890123089 2.69778030395136e-05 0.000319774380135759 0.00011395277326874 0.00033655073033517 0.000226237055395706 -0.000147701553253595 -6.02823552574724e-05 -8.946154435625e-05 -6.08394315223923e-05 7.83748151428576e-05 -0.000435822479680721 -0.000219743626454495 0.000201675130389476
"210" 0.000421718872331759 0.000234330207078101 0.000289262194498301 -3.96377161508868e-06 0.000299633590088737 9.32045931765102e-05 0.000324857361733162 0.00021207027297253 -0.000167771013844886 -7.06072415160697e-05 -9.99661631105093e-05 -7.70122982784762e-05 6.59509244865602e-05 -0.000453100964435201 -0.000227295013773674 0.000195453624528593
"211" 0.000410240852992546 0.000217838757918045 0.00025569798051402 -3.60375135319033e-05 0.000277689744205895 7.16089739930904e-05 0.00031138243998339 0.000196729089952529 -0.000187865416635487 -8.20678104099004e-05 -0.000110581381226781 -9.31633560550286e-05 5.32882923427349e-05 -0.000470459309189762 -0.000234912229917173 0.000188416819292149
"212" 0.000396883143323594 0.00020028563656613 0.000220652732065841 -6.90822364605435e-05 0.000254044978618566 4.92540251114545e-05 0.000296190114799638 0.000180303547901838 -0.00020788065869437 -9.46535024985756e-05 -0.0001212485014456 -0.000109224263546504 4.04713306459503e-05 -0.000487771959273 -0.000242505412866439 0.000180624250214494
"213" 0.00038172123502168 0.000181747987758736 0.000184306536300108 -0.000102939904411895 0.000228804398060289 2.62366598250441e-05 0.000279352991744213 0.000162877647309887 -0.000227708904801989 -0.000108312943488463 -0.000131903678619953 -0.0001251305545179 2.75956530416017e-05 -0.000504917138088025 -0.000249987439375725 0.00017212995041144
"214" 0.000364843941770943 0.000162315789612728 0.000146851111764004 -0.000137447310150789 0.000202088280927926 2.65385083721731e-06 0.000260947295972847 0.000144547308465354 -0.000247241449688727 -0.000122994404793616 -0.000142483764864566 -0.000140816952041191 1.47363534178568e-05 -0.000521775365671885 -0.000257279047695208 0.000162996949387847
"215" 0.000346349103620679 0.000142083239203259 0.000108477587888841 -0.000172437992971718 0.000174021421235311 -2.13865544279764e-05 0.000241065451541824 0.0001254131516376 -0.000266362088827813 -0.00013864194736207 -0.000152918866883586 -0.000156210456330891 1.99270223468145e-06 -0.000538214317848871 -0.00026429194408 0.000153286624770249
"216" 0.000326335556701167 0.000121141713145277 6.93805769726774e-05 -0.000207742404025203 0.000144739002525401 -4.57759230172243e-05 0.000219798382261089 0.000105573886270535 -0.00028496831528981 -0.000155173453789471 -0.000163149771986231 -0.000171250966401103 -1.05579238823462e-05 -0.000554120109404405 -0.000270951462938566 0.000143068861629716
"217" 0.000304918815136341 9.95951739191826e-05 2.97586730219393e-05 -0.000243192766491951 0.000114385139707193 -7.04053230693112e-05 0.000197254525382243 8.51379250119961e-05 -0.000302952011924469 -0.000172491446148735 -0.000173106917686057 -0.000185867823749357 -2.28359854863524e-05 -0.000569367908910142 -0.000277178846097341 0.000132415472329821
"218" 0.000282219761395546 7.75484747970223e-05 -1.01876968850228e-05 -0.000278613661599932 8.31087857481506e-05 -9.51590102321471e-05 0.000173547298731081 6.4212590046915e-05 -0.000320209896286996 -0.000190509176820347 -0.000182726028410587 -0.000199995831478994 -3.47593352883149e-05 -0.000583844404043895 -0.000282904765911724 0.000121396057426979
"219" 0.000258361799032553 5.51037614759011e-05 -5.02686058657469e-05 -0.000313839660159861 5.10612273206099e-05 -0.000119923878789209 0.000148784682721282 4.29055631661124e-05 -0.000336640109165297 -0.000209112883701307 -0.000191943189365533 -0.000213574293429944 -4.62604399114768e-05 -0.000597437973229249 -0.000288063606224868 0.000110084447261657
"220" 0.000233477546590574 3.23756999408549e-05 -9.02839020549224e-05 -0.000348700840473088 1.84035516056396e-05 -0.00014458024153864 0.000123096026435618 2.13293256031649e-05 -0.000352147755415173 -0.000228178469401156 -0.000200699909849024 -0.000226540615432683 -5.72626697590254e-05 -0.000610046751873636 -0.000292595419348079 9.85575604148057e-05
"221" 0.00020770008248163 9.4679774143498e-06 -0.000130041819888227 -0.000383032778908213 -1.47028877986668e-05 -0.000169011907747334 9.66055225609208e-05 -4.05425968568693e-07 -0.000366639665696505 -0.000247587858814805 -0.000208932349497254 -0.000238834023299542 -6.77011044422061e-05 -0.000621568335346102 -0.000296445674143856 8.6886700378217e-05
"222" 0.000181170164370547 -1.35018316340924e-05 -0.000169357007251067 -0.000416669953397449 -4.80893715990158e-05 -0.000193101391225666 6.94489425105264e-05 -2.21879298795233e-05 -0.000380027613106802 -0.000267212802271621 -0.000216586568312454 -0.000250398438231608 -7.75204220784465e-05 -0.000631909531863452 -0.000299564807902759 7.51521630427974e-05
"223" 0.000154023946115817 -3.6425383403461e-05 -0.000208043467805608 -0.000449453412032677 -8.15904815243323e-05 -0.00021673831065824 4.17577394253344e-05 -4.39079085797861e-05 -0.00039223663521956 -0.000286903738129495 -0.000223606766183175 -0.00026118486050556 -8.66621382550589e-05 -0.000640987171160717 -0.00030191353163017 6.34258940911307e-05
"224" 0.000126409525077667 -5.91887543438144e-05 -0.000245926336927934 -0.000481226959953034 -0.000115039673799157 -0.000239801787423206 1.36702239223036e-05 -6.54556469564375e-05 -0.000403186897263167 -0.000306528452965864 -0.000229939244103249 -0.000271139493851821 -9.50774710777633e-05 -0.000648719743723253 -0.000303454219167497 5.17881363441382e-05
"225" 9.84641203574507e-05 -8.16813215644811e-05 -0.000282836380632134 -0.000511843099919222 -0.000148270223164359 -0.000262184176469839 -1.46751929790307e-05 -8.67254362202169e-05 -0.000412815070600057 -0.000325940095939996 -0.000235540405980685 -0.000280218553736291 -0.000102726219712734 -0.000655042904186074 -0.000304157068199313 4.03118065677317e-05
"226" 7.03355573341572e-05 -0.000103792834379517 -0.000318608217694793 -0.000541154267208604 -0.000181115419203396 -0.000283775535731652 -4.31382364226143e-05 -0.000107614505939604 -0.000421060946773856 -0.000344989555877391 -0.000240363797358036 -0.000288379234226501 -0.000109567302275356 -0.000659894241123729 -0.000304002790497196 2.90655672797507e-05
"227" 4.2159351522253e-05 -0.000125413829097373 -0.000353092154696049 -0.000569026313769762 -0.000213410638234627 -0.000304472184420546 -7.1579577796652e-05 -0.000128020009923432 -0.00042787446542038 -0.000363540787169311 -0.000244371456643288 -0.000295584725616856 -0.0001155668113376 -0.000663222405570366 -0.000302972154713932 1.81273352942567e-05
"228" 1.40777422870491e-05 -0.000146439660040223 -0.000386136456563073 -0.000595326301342834 -0.000244994495939362 -0.000324169859321637 -9.98525833810882e-05 -0.000147842313951996 -0.000433209889138833 -0.000381449210853119 -0.000247524535398604 -0.000301797983442147 -0.00012070092562472 -0.000664983219264416 -0.000301057154643506 7.56745384094661e-06
"229" -1.37739508980714e-05 -0.000166764187117149 -0.000417611412220647 -0.00061993349556227 -0.000275715040537029 -0.000342776278906873 -0.000127823801730786 -0.000166991431738706 -0.000437035696694955 -0.000398577229053138 -0.000249795058040198 -0.000306991529242247 -0.000124947948541709 -0.000665149188562502 -0.000298252677889682 -2.55000545866528e-06
"230" -4.12653989051144e-05 -0.0001862901106312 -0.00044738930711474 -0.00064273445585899 -0.000305416225772953 -0.000360201388198461 -0.000155355786615995 -0.000185379440650735 -0.00043932749062548 -0.000414781972054941 -0.000251156110505292 -0.000311144682016293 -0.000128298109596564 -0.000663697364167119 -0.000294563073894582 -1.21584943141382e-05
"231" -6.8266574136681e-05 -0.000204920148416727 -0.000475359053726488 -0.000663624245312191 -0.000333952865447903 -0.000376355926825387 -0.000182310748318476 -0.000202918725615715 -0.00044006453776392 -0.000429945060497744 -0.000251587862010668 -0.00031423171150563 -0.00013073295259624 -0.000660609016222994 -0.000289995729773337 -2.11945065532414e-05
"232" -9.46563552823505e-05 -0.000222565829643751 -0.000501415094516403 -0.000682507710235131 -0.000361185411606333 -0.000391166354396509 -0.000208561743787863 -0.000219530498550751 -0.000439244187703232 -0.00044393697224167 -0.000251074078872316 -0.00031624208546078 -0.000132255679391462 -0.000655890335385054 -0.00028456465296551 -2.95980101135979e-05
"233" -0.000120321233016291 -0.0002391361490495 -0.000525471414602014 -0.000699300037882743 -0.000386985638855108 -0.000404557711248053 -0.000233980417184556 -0.000235145981188982 -0.000436863250976498 -0.000456645729853851 -0.000249603459139764 -0.000317162445845721 -0.000132866687093854 -0.00064954081154829 -0.000278286995827706 -3.7313561491201e-05
"234" -0.000145148214827511 -0.000254557389056524 -0.000547441888483926 -0.000713927352470617 -0.000411223740313149 -0.000416465945034013 -0.00025844061999461 -0.000249690875111333 -0.000432939301761737 -0.000467969500092606 -0.000247170831576151 -0.000316988625945345 -0.000132569929614412 -0.00064158103008278 -0.000271186808687328 -4.42863109851344e-05
"235" -0.000169039691388666 -0.000268751699645488 -0.00056726335369942 -0.000726326046813783 -0.00043378618560037 -0.000426834035482116 -0.000281832371060523 -0.00026311146639832 -0.000427488467987801 -0.000477806583410527 -0.000243776982278338 -0.000315720055174199 -0.000131380345305317 -0.000632036488524079 -0.000263294130389121 -5.04718846759351e-05
"236" -0.00019189534082942 -0.000281649901057446 -0.000584880405025318 -0.000736444132468667 -0.000454564101938933 -0.000435612163064536 -0.000304039190026948 -0.000275345649451164 -0.000420543231977288 -0.000486085570384305 -0.000239423405222268 -0.000313358861030114 -0.000129308511045225 -0.000620941131606135 -0.000254635729440625 -5.58196179578402e-05
"237" -0.000213637946070774 -0.000293198407622263 -0.000600254099748257 -0.000744245983614244 -0.000473468624448441 -0.000442761297333377 -0.000324962275988798 -0.000286352533405956 -0.000412141007927367 -0.00049271501436312 -0.000234128088498552 -0.000309917013145712 -0.00012638621768463 -0.00060834189455154 -0.000245252834602155 -6.0296318606094e-05
"238" -0.000234181119095634 -0.000303336200269052 -0.000613345912832473 -0.000749694640255152 -0.000490399685471904 -0.000448245375255741 -0.000344501163556081 -0.000296083837020782 -0.000402321973820744 -0.000497656858192031 -0.000227896082353432 -0.000305402501692389 -0.000122621439423576 -0.000594287396271982 -0.000235176973384905 -6.38576710151843e-05
"239" -0.000253462224583166 -0.000312022293477747 -0.000624148627670675 -0.000752781744619619 -0.000505289500447855 -0.000452040541536414 -0.000362566577031533 -0.000304510271668509 -0.000391149205575791 -0.000500849154936707 -0.000220759459360847 -0.000299837976483177 -0.000118055162560202 -0.000578843108926809 -0.000224453486685219 -6.64763461940055e-05
"240" -0.000271418054535867 -0.000319216216127985 -0.000632649827756379 -0.000753497570809135 -0.000518069935911647 -0.000454131032346104 -0.000379077518257986 -0.000311601023434168 -0.00037868359178169 -0.000502272173156378 -0.000212736761262456 -0.000293240836807946 -0.000112714291762614 -0.000562075268989161 -0.000213125017559733 -6.81265216709611e-05
"241" -0.000287998976495137 -0.000324892162070972 -0.000638857538414996 -0.000751851298354759 -0.00052868261158983 -0.00045450959354646 -0.000393959909485016 -0.000317336585783937 -0.000364992841438785 -0.000501902956724943 -0.000203858598779936 -0.000285638940559905 -0.000106632352535981 -0.000544058244525733 -0.000201234250238282 -6.87857013671147e-05
"242" -0.000303166007856784 -0.000329026169055378 -0.000642789551536347 -0.000747863076138801 -0.000537088604632653 -0.000453174260683139 -0.000407152137860328 -0.000321701412796917 -0.000350152459814898 -0.000499732597009059 -0.000194162990124175 -0.000277060856937496 -9.98464803633049e-05 -0.000524877406553739 -0.000188828755558413 -6.84353557084354e-05
"243" -0.000316885453521579 -0.000331604782750229 -0.000644476510836008 -0.00074156397916603 -0.000543252821188207 -0.000450138127282143 -0.000418597399817495 -0.000324690493420004 -0.000334245971045176 -0.000495778985510842 -0.00018368566970546 -0.000267542240847033 -9.23981993336294e-05 -0.000504615048317802 -0.000175953498663395 -6.70675521837294e-05
"244" -0.000329138526629173 -0.000332626899775146 -0.000643957655524448 -0.000732995626375391 -0.000547151767008599 -0.000445418764661503 -0.000428252106558131 -0.000326302282172009 -0.000317362014392341 -0.000490064960585294 -0.000172474168410949 -0.000257119099545141 -8.43282454322052e-05 -0.000483371364026095 -0.000162659860144918 -6.46741815975444e-05
"245" -0.000339910892613763 -0.000332094391433581 -0.000641288949896497 -0.000722213490174978 -0.000548780323583669 -0.000439040761984267 -0.000436074550063613 -0.000326543582291344 -0.000299593051974542 -0.000482634498971483 -0.000160571531406666 -0.000245830542190124 -7.56752086263444e-05 -0.000461236831324899 -0.00014899085793475 -6.12569283542123e-05
"246" -0.000349198703161861 -0.000330023389147725 -0.000636528186850831 -0.000709285437578208 -0.000548138086151178 -0.000431043074266287 -0.000442043099962595 -0.000325427677699934 -0.000281034331959144 -0.0004735298667347 -0.000148033227247624 -0.000233725563070283 -6.64911668615167e-05 -0.000438321066860354 -0.000134999174151755 -5.68210010341269e-05
"247" -0.000357006721483442 -0.000326431102697758 -0.00062974754321578 -0.000694281186267855 -0.000545239915551575 -0.000421464818063694 -0.000446138986171506 -0.000322974955570366 -0.000261789271311414 -0.00046282917356626 -0.000134909361018843 -0.00022084719296676 -5.68171800699632e-05 -0.000414727381375723 -0.000120731558702468 -5.13800972043642e-05
"248" -0.000363352893234069 -0.000321352101804613 -0.000621028964193461 -0.000677291508649495 -0.000540109313968206 -0.000410359423962725 -0.000448354762395017 -0.000319209252917951 -0.000241959748710393 -0.000450610007680271 -0.000121258084619928 -0.0002072463704488 -4.67003535936643e-05 -0.000390560015620464 -0.0001062317426702 -4.49483001928968e-05
"249" -0.000368257077728283 -0.000314818811382663 -0.000610458388335216 -0.000658409649506909 -0.000532781701394182 -0.000397783242842794 -0.000448694300332113 -0.000314162160891356 -0.000221650046918343 -0.000436961041611355 -0.000107136752015118 -0.000192973633716846 -3.61896907957434e-05 -0.000365929743562061 -9.15469319747432e-05 -3.7549141128545e-05
"250" -0.00037175245161023 -0.000306878771444187 -0.000598134343810877 -0.000637737953997404 -0.000523305020002904 -0.000383801731771264 -0.000447163362036499 -0.000307870928720607 -0.000200963925633331 -0.000421994451516296 -9.26071929939646e-05 -0.00017808273858698 -2.53263616207808e-05 -0.000340947987640332 -7.67210291198414e-05 -2.92142663974685e-05
"251" -0.000373874704839101 -0.000297588277927102 -0.000584164204511437 -0.000615394230924385 -0.000511734497543874 -0.000368490061187046 -0.000443791753396273 -0.000300379816274754 -0.000180010042124097 -0.000405812270226808 -7.77344572773705e-05 -0.000162636753888771 -1.41657986539174e-05 -0.000315728133639054 -6.17997390974646e-05 -1.99788127292755e-05
"252" -0.000374671741308063 -0.000287003217990239 -0.000568654951333988 -0.000591495469996209 -0.000498138779283533 -0.000351924546637035 -0.000438603669242455 -0.000291733505633208 -0.000158894290534618 -0.000388546097350667 -6.25769280355608e-05 -0.000146684471473338 -2.75071375949936e-06 -0.00029037614826746 -4.68198021789248e-05 -9.88163050278335e-06
"253" -0.000374195785945541 -0.000275194778229613 -0.00055172845370496 -0.000566171154731068 -0.000482597346464274 -0.00033418989816515 -0.000431643067047545 -0.000281989688891924 -0.000137717406370889 -0.000370322578651736 -4.7203557562681e-05 -0.000130293682440215 8.87197715514848e-06 -0.000265003062463877 -3.18234284959473e-05 1.02949114907713e-06
"254" -0.000372506713364769 -0.000262236977153822 -0.000533504094714115 -0.00053955635459339 -0.000465195049719311 -0.000315377214785538 -0.000422957291689874 -0.000271203099519683 -0.000116586401204118 -0.000351270881827506 -3.16808126007444e-05 -0.000113523722575306 2.06529614633441e-05 -0.000239721273692619 -1.68529458089729e-05 1.2694819748348e-05
"255" -0.000369669604177109 -0.00024820661211727 -0.000514109191036572 -0.000511789787176266 -0.000446025493446084 -0.000295579824806812 -0.000412606002572409 -0.000259434799672234 -9.560103568477e-05 -0.000331541255883695 -1.60722418578063e-05 -9.64342415704701e-05 3.25503462979097e-05 -0.000214631786325375 -1.94186174428549e-06 2.50653456150104e-05
"256" -0.000365752163262495 -0.000233194161618389 -0.000493674995511478 -0.000483015301492504 -0.00042519747055276 -0.000274899808321479 -0.000400651507840651 -0.000246751471235314 -7.48560127107503e-05 -0.000311273816584604 -4.40164187105361e-07 -7.9091521774687e-05 4.45155905926549e-05 -0.000189840680344653 1.28761884901693e-05 3.80699906555509e-05
"257" -0.000360829116632588 -0.000217283299339448 -0.00047233578096226 -0.000453379787233993 -0.000402817272935964 -0.000253437128944518 -0.00038716776802179 -0.000233220508135113 -5.44427598902987e-05 -0.000290610934233098 1.5145697900697e-05 -6.1558908589908e-05 5.65068362437025e-05 -0.000165445470479657 2.75681530395285e-05 5.16431946162792e-05
"258" -0.000354983416882986 -0.000200576808311051 -0.000450227827459109 -0.000423039128916512 -0.000379005559487199 -0.000231298848693035 -0.000372240055518056 -0.000218916144524277 -3.4455273737478e-05 -0.000269701281921864 3.06248147902966e-05 -4.39002644873418e-05 6.847806790517e-05 -0.000141546148091831 4.20985529212375e-05 6.57048474175912e-05
"259" -0.000348287910152779 -0.000183166607564938 -0.000427487547603863 -0.00039214194163868 -0.00035388891422658 -0.000208594595734782 -0.000355952696305009 -0.000203912457160147 -1.49688780852289e-05 -0.000248680424847057 4.59361668462878e-05 -2.61801968020819e-05 8.03890851281586e-05 -0.000118226210326892 5.64462538902623e-05 8.01810383541181e-05
"260" -0.00034083234718473 -0.000165159151659184 -0.000404255750731883 -0.000360842244492206 -0.000327596739337127 -0.000185432597798125 -0.000338400063582678 -0.000188287006254756 3.93218130076422e-06 -0.000227689728719663 6.10163346401929e-05 -8.46237169023553e-06 9.21979892973914e-05 -9.55772727849236e-05 7.05769979809987e-05 9.49847078114153e-05
"261" -0.000332697929567629 -0.000146655431785894 -0.000380665309944254 -0.000329294626516934 -0.000300260180654446 -0.000161922981951001 -0.000319681349158413 -0.000172115285935119 2.21796537343321e-05 -0.00020686496797374 7.58124043411444e-05 9.1908510192697e-06 0.000103867251006174 -7.3676479942405e-05 8.44686294286153e-05 0.000110027689860952
"262" -0.000323975410836655 -0.000127764433358557 -0.000356861987459976 -0.000297654058229319 -0.000272026061857911 -0.00013818271681402 -0.000299908858747259 -0.000155484883397504 3.97102266950218e-05 -0.000186316459511872 9.02597416308942e-05 2.67110691011596e-05 0.000115350619870699 -5.26023239461218e-05 9.80941316775344e-05 0.000125215873440946
"263" -0.000314746187285442 -0.000108587165274954 -0.000332971776226587 -0.000266068662453892 -0.000243033821651872 -0.000114317441101152 -0.000279182354317369 -0.000138469155702365 5.64612665561718e-05 -0.000166179251109958 0.000104317093339672 4.40405235209747e-05 0.000126621782362503 -3.24195696793282e-05 0.000111434759910454 0.000140455386930225
"264" -0.000305098486945299 -8.92353593058726e-05 -0.0003091327450703 -0.000234685883100548 -0.00021342744338706 -9.04407637951617e-05 -0.000257622937384627 -0.000121154788215948 7.23875462818506e-05 -0.000146552037939347 0.000117927739677743 6.11184425463255e-05 0.000137640154325666 -1.31882325103565e-05 0.000124469279234243 0.000155651370744238
"265" -0.000295116139816919 -6.98144901242034e-05 -0.00028547485658267 -0.000203652004793681 -0.000183355256690675 -6.66598138765895e-05 -0.000235342334239662 -0.00010362283190217 8.7440819493788e-05 -0.000127528050094041 0.000131042888045236 7.7881517597099e-05 0.000148367273877172 5.03026909595846e-06 0.000137178034227845 0.000170696736976302
"266" -0.000284883208074031 -5.04284234573341e-05 -0.000262118750684883 -0.000173102447005463 -0.000152960897224404 -4.3081195386333e-05 -0.000212465340174112 -8.59560831452889e-05 0.000101586266990114 -0.000109194430004542 0.000143625641250622 9.42740002644945e-05 0.000158776519065505 2.21920033400869e-05 0.00014954396208998 0.000185492959747005
"267" -0.00027447599309985 -3.11767447099774e-05 -0.000239186939108327 -0.000143173017879575 -0.000122395751038926 -1.98076395764045e-05 -0.00018910776909453 -6.82325823833605e-05 0.000114796416775795 -9.16269152140219e-05 0.000155633641438262 0.000110241566845704 0.000168834726357759 3.82601888744241e-05 0.000161554816403786 0.000199943000424154
"268" -0.000263971008695193 -1.21606133357414e-05 -0.000216794334768845 -0.000113982680646234 -9.18000825569928e-05 3.06225561295687e-06 -0.000165389435437629 -5.0530274897982e-05 0.00012704701689312 -7.48866638366269e-05 0.00016703358648106 0.00012573062971238 0.000178515942181706 5.3200484817955e-05 0.000173196788315433 0.000213939113318374
"269" -0.000253445991100616 6.51919408619386e-06 -0.000195047462663817 -8.56584218137586e-05 -6.13190569171831e-05 2.54311226600048e-05 -0.000141440689740728 -3.29310898197102e-05 0.000138323168108985 -5.90008876417277e-05 0.000177789023774909 0.00014068448430574 0.000187786208537781 6.698157255087e-05 0.000184451607616972 0.00022737857486834
"270" -0.000242961122274814 2.47782468156894e-05 -0.000174049558295091 -5.83005637087315e-05 -3.10952720901977e-05 4.72109342743846e-05 -0.000117374027471439 -1.55084864794819e-05 0.000148622763837857 -4.40250876636302e-05 0.000187879783108373 0.000155061976393726 0.000196628548934498 7.9593106145119e-05 0.000195319918154242 0.000240169584081508
"271" -0.000232580851849814 4.2527508199262e-05 -0.000153891905080669 -3.20106679796011e-05 -1.26121567308136e-06 6.83163299147804e-05 -9.33136494859172e-05 1.66834835453427e-06 0.000157944853237543 -2.99598405033629e-05 0.000197279901662539 0.000168813556297752 0.000205018919333993 9.10214402721752e-05 0.000205785264832904 0.00025221017925197
"272" -0.000222362161894235 5.96903070925538e-05 -0.000134655660509861 -6.87698162603837e-06 2.8055701055236e-05 8.86721743376489e-05 -6.93686730589864e-05 1.85297481157189e-05 0.000166293495859694 -1.6832084330522e-05 0.000205974334647813 0.000181903431494019 0.000212937790360626 0.000101263949836915 0.000215847386581469 0.00026341477527284
"273" -0.000212358230306776 7.61870456843709e-05 -0.000116422961222616 1.70205154239502e-05 5.67203990344519e-05 0.000108201576217002 -4.56628447225144e-05 3.50068937809808e-05 0.00017368621772004 -4.61337259959195e-06 0.000213947490673759 0.000194285610058137 0.000220364787842455 0.000110328676741078 0.000225496257891902 0.000273687306201803
"274" -0.000202607069747969 9.195799157294e-05 -9.92573669241157e-05 3.96204759795622e-05 8.46221023161974e-05 0.000126840513566206 -2.22946443275126e-05 5.10437901286088e-05 0.000180140700314714 6.69992856012772e-06 0.000221191884628701 0.000205930152932595 0.000227289989850486 0.000118227297822587 0.000234736460548834 0.000282951635910478
"275" -0.000193149445455914 0.00010693635391197 -8.32179263863098e-05 6.08646629642402e-05 0.000111646054102298 0.000144531949293909 6.23055562113386e-07 6.65809874138553e-05 0.000185683363158687 1.71440495686354e-05 0.000227702547016798 0.000216806620444958 0.000233695037580072 0.000124975189809221 0.000243561851216273 0.000291129908609195
"276" -0.00018401297403216 0.000121075397055338 -6.83498421221742e-05 8.0712795136714e-05 0.000137687752234381 0.00016122623221928 2.29948242105223e-05 8.15678561924923e-05 0.000190345763609962 2.6745653648899e-05 0.000233479119058122 0.000226890795092335 0.000239577872062609 0.000130605066303344 0.000251978925639331 0.000298153258555659
"277" -0.000175222905538222 0.000134330617558543 -5.46929849958816e-05 9.91336749715405e-05 0.000162651116529278 0.000176875674144018 4.47258882951517e-05 9.59561487521891e-05 0.000194159593748957 3.55639344434133e-05 0.000238527459812312 0.000236156459249848 0.000244925641112478 0.000135142917694928 0.000259987320019917 0.000303959717073098
"278" -0.000166793038526159 0.000146665763465691 -4.22757552037552e-05 0.000116108645057929 0.000186449683397979 0.000191447803734486 6.57310690281332e-05 0.000109704408521814 0.000197170196941287 4.36470191825576e-05 0.00024285500270727 0.000244590507041359 0.000249737798788771 0.000138631011998024 0.000267594282182176 0.000308495955473991
"279" -0.000158727656159031 0.000158055592989298 -3.11124429346479e-05 0.000131637987760169 0.00020901050244994 0.000204916841105549 8.59336771687643e-05 0.000122779294782528 0.000199418804882697 5.10540166346228e-05 0.000246475589584794 0.000252182267825168 0.000254016861436902 0.000141115931953556 0.000274809010438873 0.000311726415501846
"280" -0.000151032316470199 0.00016848167967372 -2.12114858793046e-05 0.000145724053468647 0.000230260695406155 0.000217258878898149 0.000105257551008013 0.000135147354157324 0.000200948793870486 5.78478185778504e-05 0.000249407597295274 0.000258922487445281 0.000257760683478151 0.000142641975093401 0.000281640929626211 0.000313614114415378
"281" -0.000143703531432591 0.000177930883547371 -1.25724373364189e-05 0.000158381880598746 0.000250144504046743 0.000228459739438582 0.000123639662900951 0.000146783006754589 0.000201810896575943 6.41080938034179e-05 0.000251668226196326 0.000264808046562668 0.000260969001622569 0.00014326526294097 0.000288096356867603 0.000314136637104875
"282" -0.00013672546977062 0.000186408447641379 -5.18429343065924e-06 0.000169647122796479 0.000268611789723965 0.000238515618842791 0.0001410226174516 0.000157668139359806 0.00020205363313908 6.98961910623347e-05 0.000253281238030049 0.000269840845371807 0.000263659712533756 0.000143045378715365 0.000294195747203057 0.000313286377817351
"283" -0.000130080143753815 0.000193916538042458 9.73895543224716e-07 0.000179555600593257 0.000285623127468293 0.000247430549307554 0.000157363745344121 0.000167787607098514 0.000201728540855632 7.52857293204196e-05 0.000254274480741043 0.000274031007005472 0.000265834266725457 0.00014204147309798 0.000299950351701654 0.000311061971844433
"284" -0.000123743349178583 0.000200470585260424 5.93224003674928e-06 0.000188161238292748 0.000301154970778944 0.000255210546834161 0.000172620548150136 0.000177132708729975 0.000200889102665325 8.03521500727022e-05 0.000254677168364596 0.000277389978171811 0.000267510988108814 0.000140322441341914 0.000305377383373445 0.000307478194542887
"285" -0.000117687303248596 0.000206091512041756 9.72738020947014e-06 0.000195518314463511 0.000315187001748251 0.000261871408705083 0.00018676034079678 0.000185702667891693 0.000199583842524734 8.51621612740438e-05 0.000254521965961176 0.00027993228169932 0.000268703944216364 0.00013795090528045 0.000310495304825212 0.000302558300705703
"286" -0.000111880666508589 0.000210808700289419 1.24023911658445e-05 0.000201694989305758 0.000327709051260711 0.000267432269194239 0.000199763682502057 0.000193495005651665 0.000197861750987476 8.97909094947113e-05 0.000253837246398988 0.000281680118800088 0.000269421988121568 0.000134996924388293 0.00031532150353742 0.000296337820543644
"287" -0.000106282514617758 0.000214660772987849 1.40085532479351e-05 0.000206766063720455 0.00033872491720456 0.000271919768627481 0.00021162052106042 0.000200520320368271 0.000195776359821914 9.4293773564987e-05 0.000252664593180321 0.000282661156386925 0.000269696532916533 0.000131532544472608 0.000319881585417948 0.000288870192669702
"288" -0.000100857260397754 0.000217683878692666 1.46026768399056e-05 0.000210808636610728 0.00034823994647374 0.000275367122089418 0.000222317406487558 0.00020678790836342 0.000193370858775432 9.8739765840875e-05 0.000251034912935204 0.000282903179495844 0.00026953648752016 0.000127622536447805 0.000324192992928919 0.000280213019615104
"289" -9.55570508067218e-05 0.000219927533110246 1.42505252154735e-05 0.00021391477327343 0.00035627409382144 0.000277811476876298 0.000231863096140508 0.000212316309260769 0.000190691550839944 0.000103176526415142 0.000248990676437637 0.000282440671104566 0.000268971290207936 0.000123344809267981 0.000328280191817137 0.000270436467056
"290" -9.03409097626811e-05 0.000221441250149931 1.30155473485878e-05 0.00021616679297014 0.000362851644451368 0.000279288293805308 0.000240261020990754 0.00021712068403982 0.000187779524716684 0.00010766077238022 0.000246569443095935 0.000281310282606653 0.000268021381800218 0.000118768688814229 0.000332168563304922 0.000259626721966588
"291" -8.51626905378713e-05 0.000222279352186308 1.0970068573441e-05 0.000217656009198346 0.000368007496365987 0.000279845097203435 0.000247528252252475 0.000221225717268056 0.000184675408682145 0.000112235035273857 0.000243803772435583 0.000279553779202275 0.000266708069191747 0.000113953178853627 0.000335877216801557 0.000247872565928238
"292" -7.99779513235097e-05 0.000222499426616737 8.18557652274508e-06 0.000218482378356652 0.000371780478066852 0.000279524352949231 0.000253691878581068 0.000224661147907502 0.000181412386854715 0.000116934438628377 0.000240736727893175 0.000277212720880776 0.00026505875326449 0.00010897585421444 0.000339434773950368 0.000235278073864202
"293" -7.47450417432111e-05 0.000222159948376188 4.73519635035622e-06 0.000218731474134555 0.000374211949080064 0.000278376815063567 0.00025877330856589 0.000227447329758116 0.000178020877139395 0.000121796075534469 0.000237403229080275 0.00027433173104737 0.000263094244648299 0.000103893025688779 0.000342861064154538 0.000221950394168868
"294" -6.94201173089922e-05 0.000221324241344475 6.98231954328756e-07 0.000218498681389482 0.000375357431465362 0.000276453875074205 0.000262811165632618 0.000229624033793324 0.000174534539615598 0.000126833835540499 0.000233840562568233 0.000270962714738029 0.000260845565366035 9.87706812605717e-05 0.00034618492317487 0.000208015157089923
"295" -6.39627712770166e-05 0.00022005689908976 -3.84931071991901e-06 0.000217880985049432 0.000375269857415108 0.000273804327598784 0.000265842934702518 0.00023122014917264 0.000170975940101578 0.000132059153077339 0.000230088095419058 0.000267156399822504 0.000258337524385066 9.36701195290014e-05 0.00034943318134655 0.000193593855923542
"296" -5.83343023881215e-05 0.000218414593953958 -8.83479359154978e-06 0.000216957106588481 0.000374005165264606 0.000270480727118693 0.000267908566793282 0.000232267951903721 0.000167360323926616 0.00013749318802219 0.000226175441323544 0.000262958640425131 0.000255588469826764 8.86394342024111e-05 0.00035262041344679 0.000178814793802632
"297" -5.25031906498863e-05 0.000216464908836001 -1.41788062691567e-05 0.000215824073737187 0.000371631220422514 0.000266537861150725 0.000269056596374516 0.000232808171956786 0.000163714658840833 0.000143115172377357 0.000222137147379259 0.000258428202072213 0.00025263156759496 8.3739529371397e-05 0.000355779843423494 0.000163821810746475
"298" -4.64424074584926e-05 0.000214262775170903 -1.98130794951084e-05 0.000214551367695411 0.000368205401531087 0.000262022760212964 0.000269333007728637 0.000232872530245097 0.000160040561231254 0.000148931169876941 0.000218005549468461 0.000253613421022845 0.00024947971309112 7.90064870962405e-05 0.000358924601557391 0.000148743846263542
"299" -4.01239902908425e-05 0.000211867468214668 -2.56665007791462e-05 0.000213219869623618 0.000363794544904689 0.000256991285113472 0.000268785715181421 0.000232494465041411 0.000156355086804318 0.000154928849282851 0.000213806563137988 0.000248570252958981 0.000246159704222524 7.44933875105927e-05 0.000362080000757707 0.000133726900518745
"300" -3.353520964162e-05 0.000209337135632529 -3.167467184875e-05 0.000211894734550407 0.000358463829683494 0.000251490117196931 0.000267465298254695 0.000231710972975012 0.000152662193215305 0.000161077147978531 0.000209571492084126 0.000243348716496774 0.000242689789765329 7.02353599305382e-05 0.000365266142567312 0.000118906439676421
"301" -2.66578183332607e-05 0.000206720923200493 -3.77747552880503e-05 0.000210644909256036 0.000352283823748157 0.000245568048519841 0.00026543073171281 0.000230557934616844 0.00014896770418237 0.000167338293018975 0.000205323649161643 0.000238006152063751 0.000239094618532217 6.62678514113959e-05 0.000368504740918418 0.00010443254307865
"302" -1.94908840969076e-05 0.000204069541843409 -4.39098792321215e-05 0.000209518511796219 0.000345310686973682 0.000239269751544549 0.000262725762539742 0.000229065055734298 0.000145268298466335 0.000173698672902234 0.000201085509550074 0.000232588717721937 0.000235384167074894 6.2620077890955e-05 0.000371808553583603 9.0428957992582e-05
"303" -1.20291364286389e-05 0.000201428536269153 -5.00212197571135e-05 0.000208572512221191 0.000337618756744476 0.000232647200054494 0.000259407783217404 0.00022726891601159 0.0001415649955367 0.000180086693289204 0.000196880276871038 0.000227157321300759 0.000231586321995429 5.93235035499702e-05 0.000375199604496485 7.70424428764003e-05
"304" -4.28368192958161e-06 0.000198836955569451 -5.60693543714297e-05 0.000207841390952728 0.000329264334151721 0.000225733691961169 0.000255519867332855 0.000225192994777858 0.000137853701068277 0.000186482836923941 0.000192726287810953 0.000221747521927114 0.00022769940053866 5.6393309628768e-05 0.000378684981146393 6.43913835586867e-05
"305" 3.73119626914672e-06 0.000196332354385776 -6.20086539548415e-05 0.000207355893221533 0.000320311719798885 0.000218576461706713 0.000251113033252632 0.000222870060392522 0.000134128734466538 0.000192822350033621 0.000188636224232525 0.000216414523562512 0.000223746125038256 5.38501359807125e-05 0.000382284718058937 5.26046280033085e-05
"306" 1.19938846840824e-05 0.000193941397548854 -6.78042381900315e-05 0.000207146978574264 0.000310814933771981 0.000211206515352504 0.000246233149390987 0.000220322565626444 0.000130381618401336 0.000199056193169639 0.000184625350260538 0.000211200332275496 0.000219727402850767 5.17043098726402e-05 0.000386002554220432 4.17881215295899e-05
"307" 2.0480928688112e-05 0.000191693119256782 -7.34216264303977e-05 0.000207229430363459 0.000300833929459311 0.000203665484242437 0.000240925753583903 0.000217576742722133 0.000126612789682052 0.000205120740690335 0.000180712166599611 0.000206151812033549 0.000215666074496368 4.99725608438276e-05 0.00038985359791357 3.20552149515358e-05
"308" 2.9156492222335e-05 0.000189609742582156 -7.88382233882438e-05 0.000207608167924546 0.000290419104461084 0.000195979079527318 0.00023522942352958 0.000214648723967436 0.000122807462651278 0.000210967732756003 0.000176896613263072 0.000201301258966272 0.000211550261310698 4.86548440189663e-05 0.000393842473604004 2.3494676046403e-05
"309" 3.79729559413689e-05 0.000187700148639101 -8.40383549968566e-05 0.000208287426987498 0.000279614528227177 0.000188179939137968 0.000229178799870746 0.000211557266887698 0.000118962290455593 0.00021653572477281 0.000173193644569593 0.000196687090424152 0.000207392040749825 4.77539077753026e-05 0.000397970962770219 1.61868597472878e-05
"310" 4.68899974290283e-05 0.000185979109845024 -8.90056750039115e-05 0.000209262698911265 0.000268472630991386 0.000180295347617833 0.000222811537123104 0.000208318885394269 0.000115068045442481 0.000221763043162621 0.000169608001682328 0.000192342990557047 0.000203191460082157 4.72704060745528e-05 0.000402247551239546 1.02080385143897e-05
"311" 5.58508707956456e-05 0.000184449181642494 -9.3732956706541e-05 0.000210517214493279 0.000257032457118872 0.0001723484922919 0.000216152633680881 0.000204942138463359 0.000111121671728953 0.000226601622743456 0.000166142918721522 0.000188297615671172 0.000198946307778383 4.71999472022621e-05 0.000406665256921939 5.61023873868845e-06
"312" 6.47992192729245e-05 0.000183110934953608 -9.82174259705132e-05 0.000212035988106533 0.000245333531912479 0.000164365194011533 0.000209232070761331 0.000201438118407095 0.000107118390633874 0.000230993269783144 0.000162802921822705 0.000184575507297896 0.000194657780063841 4.754052080689e-05 0.000411231319873302 2.43457010060435e-06
"313" 7.36703946320687e-05 0.000181959991337108 -0.000102468788146297 0.000213786147024904 0.000233406460432731 0.000156359328768765 0.000202070121157647 0.000197812631686128 0.000103059727017784 0.000234894974776551 0.000159587431124885 0.000181199727428181 0.000190312552442704 4.82810817823727e-05 0.000415938395944077 7.12776037027482e-07
"314" 8.239639391803e-05 0.000180985511423302 -0.000106489148134049 0.000215745052810301 0.000221286234976135 0.000148355146433675 0.000194683382779162 0.000194069052381084 9.89389965831552e-05 0.000238259867145368 0.000156498920253337 0.000178184088272155 0.000185910516968472 4.94099050154583e-05 0.000420779948422141 4.51012211879072e-07
"315" 9.09057077883312e-05 0.000180174889251708 -0.00011029172803916 0.000217872363020241 0.000209001602650283 0.000140366479241259 0.00018709183126237 0.000190206466355605 9.47640811116498e-05 0.000241052154220318 0.0001535388783719 0.000175546498759319 0.000181443453228941 5.09193100040544e-05 0.000425748604589023 1.6500901107376e-06
"316" 9.91224983851946e-05 0.000179508324841098 -0.000113896380656811 0.000220129436704989 0.000196571926208789 0.00013240763465192 0.000179298639498353 0.000186225618940129 9.05340245986942e-05 0.000243242947836732 0.000150699918799184 0.000173294263215605 0.000176896704631242 5.27929046177212e-05 0.000430837800374858 4.28758314657407e-06
"317" 0.000106972057554518 0.000178963663434803 -0.000117323575273359 0.000222469667440468 0.000184023929417191 0.000124492648825893 0.000171317257147041 0.000182119809426999 8.62609054383088e-05 0.000244815487872749 0.000147980534800283 0.00017142868060651 0.000172259148499662 5.5017119785625e-05 0.000436032667897896 8.32710891705648e-06
"318" 0.000114377769698769 0.000178521499308848 -0.000120595086182787 0.000224851474913787 0.000171374045236907 0.000116635419450593 0.000163148653941287 0.000177884456421553 8.19499259030112e-05 0.000245749248253609 0.000145383416725609 0.000169954603093818 0.000167523942101212 5.75790241220818e-05 0.000441324856415508 1.37234952491706e-05
"319" 0.000121261281584915 0.0001781506060519 -0.000123735963128685 0.000227223205631116 0.000158641441906584 0.000108845132905458 0.000154795689541591 0.000173514585101579 7.76196478979536e-05 0.000246045573190152 0.000142901943424937 0.000168867855069544 0.000162677149580266 6.04632280606786e-05 0.000446693934558913 2.04052722059222e-05
"320" 0.000127540689075179 0.000177821165681084 -0.000126779476225146 0.00022953698232386 0.000145836191273269 0.000101134329842819 0.000146255198556574 0.000168993340623663 7.32794697970336e-05 0.000245719181649553 0.000140530058568346 0.000168158208111686 0.000157697444598947 6.36539399434614e-05 0.00045212642013745 2.82938716626535e-05
"321" 0.000133146101072662 0.000177506585750424 -0.000129750369750996 0.000231742672925757 0.00013297892010973 9.35143822792737e-05 0.000137527146540634 0.00016431899818461 6.89583841712341e-05 0.000244775557434882 0.000138268073156913 0.00016781588592846 0.000152578192791911 6.71388058294046e-05 0.000457606808840845 3.72997727256127e-05
"322" 0.000137999494112694 0.000177171651192796 -0.000132683533857233 0.00023379033617246 0.00012007320758301 8.59946231484888e-05 0.000128604678935268 0.000159475302320417 6.46673032593737e-05 0.00024325103449218 0.000136109296854306 0.000167825004246413 0.000147300403280626 7.08984375845205e-05 0.000463112167370092 4.73135728319154e-05
"323" 0.000142032362572042 0.000176782913590995 -0.0001356050268573 0.000235635062067946 0.00010713889598291 7.8584886604562e-05 0.000119483909974828 0.000154451858405611 6.04390267856318e-05 0.000241179490681166 0.000134052315611628 0.000168168586606706 0.000141855280765352 7.49265584774895e-05 0.000468627718795439 5.8223577655777e-05
"324" 0.000145176745652429 0.000176311182304906 -0.000138549527080634 0.000237227889122768 9.41787630381495e-05 7.12983510094285e-05 0.000110152919030973 0.000149240242706541 5.62988139043306e-05 0.000238605141203707 0.000132096571247274 0.000168822513075488 0.000136229956559084 7.92091618708747e-05 0.00047413158381103 6.98976674088632e-05
"325" 0.000147369904985436 0.000175722372832715 -0.000141543794655678 0.000238526298168387 8.1206119963928e-05 6.41466318055151e-05 0.000100609495623764 0.000143824198571757 5.22766276889566e-05 0.000235598307394057 0.000130233839840495 0.000169759927059465 0.000130408237810381 8.37314546795718e-05 0.000479600900484718 8.22038713992778e-05
"326" 0.000148558521020072 0.000174988052624619 -0.000144618538473482 0.000239489761177694 6.82348507214914e-05 5.7139030145353e-05 9.08429462271257e-05 0.00013819724337281 4.84066142775667e-05 0.000232215832262247 0.000128467760904376 0.000170953807068925 0.000124381012697725 8.84878984539425e-05 0.000485019863338445 9.49997175025279e-05
"327" 0.000148693060933835 0.00017407444564262 -0.000147798717390191 0.000240081414774643 5.52715052578311e-05 5.02900861945251e-05 8.08500011262726e-05 0.00013234735652634 4.47171777132914e-05 0.000228540092066518 0.000126793467772923 0.000172374910116861 0.000118138085057644 9.34652874882758e-05 0.000490359267349542 0.000108140253204794
"328" 0.000147729029461742 0.000172953377877786 -0.000151108217218307 0.000240268300636016 4.23292758537968e-05 4.36140791612894e-05 7.06195191123359e-05 0.000126266896725437 4.12513741548384e-05 0.000224658024850273 0.000125210570375743 0.000173986212484725 0.000111671903972574 9.86622446074925e-05 0.000495600415353557 0.000121475313481426
"329" 0.000145631254314191 0.000171601468429158 -0.000154568716619082 0.00024002408834107 2.9424206776935e-05 3.71244230929427e-05 6.0150446076333e-05 0.000119949035013467 3.80436222797361e-05 0.000220657933872717 0.000123719769214747 0.000175753793536911 0.000104975788870839 0.000104065765167683 0.00050072155393624 0.000134851799734039
"330" 0.000142379171860125 0.000169994674385685 -0.00015819813782948 0.000239326199180947 1.65675932409911e-05 3.08357642020699e-05 4.94385621528865e-05 0.000113387509425321 3.51302615796054e-05 0.000216642325470442 0.000122321271821544 0.000177640043362074 9.80430716768876e-05 0.000109674948829074 0.000505701317129828 0.000148114606696588
"331" 0.000137958082873609 0.00016811296039693 -0.000162007653720509 0.000238162627688928 3.77903082590676e-06 2.4769578913952e-05 3.84928181862746e-05 0.00010658312476962 3.25532222003427e-05 0.000212695822647245 0.00012102047770684 0.00017961083742371 9.08816300172321e-05 0.000115491705904037 0.00051052238175896 0.000161123055915652
"332" 0.00013234953511142 0.000165934822729648 -0.000166011044911443 0.000236513026960341 -8.92578631279112e-06 1.89356744732347e-05 2.73007953002218e-05 9.95285295711581e-05 3.03422190078614e-05 0.000208952130920399 0.000119810782259411 0.00018162033316626 8.34750105240516e-05 0.00012150526517689 0.000515153126196099 0.000173724353869152
"333" 0.000125565518482108 0.000163453966961838 -0.000170214105897112 0.000234380020078249 -2.15268868593144e-05 1.33599427815679e-05 1.58753987644943e-05 9.22328521071352e-05 2.85441619342512e-05 0.000205501160431992 0.000118699377107931 0.000183632734341114 7.58405478413326e-05 0.000127719177420158 0.000519583612199875 0.000185777210924557
"334" 0.000117614341408942 0.000160653615545726 -0.000174615064275665 0.00023176570144162 -3.3996756840367e-05 8.05586700555086e-06 4.22657092386073e-06 8.46956379832348e-05 2.71912987553628e-05 0.000202459576114082 0.000117692091823561 0.000185608414463055 6.79802422328932e-05 0.000134137449613536 0.000523791971121333 0.000197153070972436
"335" 0.000108523482297908 0.000157529754336252 -0.000179212491601048 0.000228677341148799 -4.63147566764303e-05 3.045871669721e-06 -7.63537944243898e-06 7.69285674765783e-05 2.63177974088277e-05 0.000199926701789165 0.000116787553474757 0.000187507634960685 5.98997315120437e-05 0.000140756990783496 0.000527760955491239 0.000207726058759514
"336" 9.83203835539609e-05 0.000154079658349772 -0.000184001594925873 0.000225125158660313 -5.84519961838573e-05 -1.64941288434378e-06 -1.96971452624853e-05 6.89402579405359e-05 2.59597623491467e-05 0.000198016547941562 0.00011599249418277 0.000189293891360428 5.16132549440718e-05 0.000147582095245749 0.000531473287720803 0.000217379195559778
"337" 8.70507234001508e-05 0.000150305876027295 -0.000188965425603736 0.000221134141311976 -7.03776136676884e-05 -6.01056030181561e-06 -3.19346627035325e-05 6.07464751195312e-05 2.61424762246164e-05 0.000196825929835243 0.000115309784665045 0.000190928001393032 4.31325936048058e-05 0.000154615422644179 0.000534911202645532 0.000226012134513986
"338" 7.47661103902047e-05 0.000146210163153108 -0.000194090523179105 0.000216730578946866 -8.2061625130443e-05 -1.00145464757978e-05 -4.43269455274831e-05 5.23630326639229e-05 2.68942795481509e-05 0.000196449035829237 0.000114745938018373 0.00019237541991756 3.44772218799199e-05 0.000161862688686905 0.000538067581289308 0.000233532954622473
"339" 6.15269278212418e-05 0.000141803362179386 -0.00019935607237845 0.000211941189892595 -9.34730491155818e-05 -1.36430804006684e-05 -5.68508802816148e-05 4.38079174827889e-05 2.8238119921225e-05 0.000196976224322447 0.00011430081722513 0.000193602800820913 2.56647425556514e-05 0.000169321332941871 0.000540922721209739 0.000239861413796852
"340" 4.74047738504969e-05 0.000137098929892714 -0.000204735645962193 0.000206804885413908 -0.00010457135837614 -1.68732829035646e-05 -6.94743096134294e-05 3.51032386043764e-05 3.01972011154382e-05 0.000198501974162456 0.000113982578183871 0.000194575516449349 1.67134303201511e-05 0.000176999188072988 0.000543468409419707 0.000244937797710514
"341" 3.24775428306698e-05 0.000132109489154142 -0.000210200220190938 0.000201365524645118 -0.000115324478934502 -1.96860450388802e-05 -8.2160976695496e-05 2.62789098608097e-05 3.2781128004749e-05 0.000201083975678286 0.000113792735557971 0.000195269207722042 7.65556397254042e-06 0.000184896660031392 0.000545695912591458 0.000248711360123646
"342" 1.68313952523502e-05 0.000126857580162552 -0.000215719637241832 0.000195661783623433 -0.000125691520504715 -2.20637346816663e-05 -9.48786648991643e-05 1.73590962323621e-05 3.6007440152526e-05 0.000204798121400311 0.000113734920911133 0.000195653184185262 -1.48692468573218e-06 0.000193016707572402 0.00054759605385581 0.000251149132928632
"343" 5.62688280148712e-07 0.000121360478484513 -0.000221255849301521 0.00018974918849299 -0.000135631107825803 -2.39856502674662e-05 -0.000107581801059829 8.37509204024433e-06 3.98732841572274e-05 0.000209696188044254 0.000113811280188224 0.000195706211134012 -1.0688489579323e-05 0.000201356324134285 0.000549158632903368 0.000252232861773303
"344" -1.62344321246143e-05 0.000115645865223144 -0.000226773691481346 0.000183675520206737 -0.000145110084492513 -2.54368815267877e-05 -0.000120234754638496 -6.41637950699012e-07 4.4384551702997e-05 0.000215817116356492 0.000114027087414124 0.000195406275870161 -1.99162205250557e-05 0.000209919681809556 0.00055038334225266 0.000251957885053171
"345" -3.34491010876175e-05 0.000109739116481266 -0.000232229170903854 0.000177497719207096 -0.000154079166182584 -2.64006297057062e-05 -0.000132782930069907 -9.65452473914294e-06 4.95370454050945e-05 0.000223190197088439 0.000114378435842501 0.000194739765890955 -2.91376360590538e-05 0.000218704071233335 0.00055126416402867 0.000250342651354632
