"V1" "V2" "V4" "V5" "V7" "V8" "V10" "V11" "V13" "V14" "V15" "V17" "V18" "V20" "V21" "V23"
"1" 0.000214065355180706 -0.000251908858719745 -0.000205174869324327 0.000139191467717708 4.43065836607298e-05 0.000237399082398684 -0.000191547380386563 0.000249555027197537 -0.00292055399569035 0.000492510861133872 0.000191525138602634 0.000307400828643658 0.000431356782923516 -0.000260995419990398 0.00047784879793537 7.62677054950495e-05
"2" 0.000226344006928961 -0.000252124084459372 -0.000199963712596605 0.000150428828859087 4.85412548308091e-05 0.000240016530300677 -0.000190600083612571 0.000242660913800028 -0.00293145185875626 0.000518125224917122 0.000206273714839303 0.000315302413119242 0.000450439143420683 -0.000277776538964336 0.000510221660144074 9.05667488923024e-05
"3" 0.000239234208709175 -0.000252430811319031 -0.000194384742417144 0.00016123876868246 5.26800778082663e-05 0.000242358380593731 -0.000189059278781333 0.000235681811421566 -0.00291436238760127 0.000545426203028372 0.000221443662839457 0.000324710680519353 0.000470028799114112 -0.000294557111857728 0.00054337939067259 0.000105131989527382
"4" 0.000252704818813701 -0.00025280104627313 -0.000188446993607042 0.000171568710497783 5.67182624495983e-05 0.000244430718608026 -0.000186903662283436 0.000228645203954129 -0.00286878789706942 0.000574217312842567 0.000236969835614034 0.00033546869925797 0.000489985264494808 -0.000311230132845052 0.000577148072730869 0.000119889337437316
"5" 0.000266725995095644 -0.000253190379479634 -0.000182163352966483 0.000181380770598275 6.06485494469589e-05 0.00024624072951077 -0.000184106513647354 0.000221575548124901 -0.00279476881967332 0.000604316861426177 0.000252795627628411 0.000347437657855404 0.000510171769018894 -0.000327681095973302 0.000611364701323161 0.000134771517096435
"6" 0.000281256425851133 -0.000253572078210944 -0.000175550199581845 0.000190632160557395 6.44669629337502e-05 0.000247796485439529 -0.000180648752467875 0.000214502513296436 -0.00269291989381425 0.000635502844707821 0.000268845492492249 0.000360450563079603 0.000530439972867841 -0.000343813847642644 0.000645854664548144 0.000149702599075274
"7" 0.000296255033155513 -0.000253912976957914 -0.000168625062859861 0.000199294461895762 6.81707109710458e-05 0.00024910996871845 -0.000176525704312504 0.000207446823763128 -0.00256437457376714 0.000667555427607905 0.000285054938247205 0.000374340181057021 0.000550644804335286 -0.000359521356638222 0.000680440380047696 0.000164608362404092
"8" 0.000311664182634076 -0.00025417940097744 -0.000161409122943888 0.000207340667611826 7.17610303455644e-05 0.000250190165170355 -0.00017173134980922 0.000200429553160902 -0.00241077439901486 0.000700243770840643 0.000301351129646158 0.000388932504503263 0.000570634873606076 -0.000374711907743326 0.000714947292743932 0.000179410365648818
"9" 0.000327429856103597 -0.000254343564774232 -0.000153927239698749 0.00021475552075541 7.52360622862745e-05 0.000251049075383444 -0.000166267204611278 0.000193468376636546 -0.00223419022374948 0.000733332202274866 0.000317661677719775 0.000404052643964026 0.000590267049309711 -0.000389296376241159 0.000749199510926264 0.000194034079085596
"10" 0.00034349187359483 -0.000254373262536881 -0.000146200292149463 0.000221529789546357 7.86003008345908e-05 0.000251701653296643 -0.000160142147075862 0.000186589106025623 -0.00203705168297614 0.000766568459696163 0.000333915356285817 0.000419525887485786 0.000609394629064168 -0.000403198481587737 0.000783026876202826 0.000208403126104035
"11" 0.000359780521529906 -0.000254244756886313 -0.000138261645409001 0.000227660560809416 8.18569000777701e-05 0.000252161761999952 -0.000153372132981535 0.000179802996321652 -0.00182206271056911 0.000799709193720061 0.000350036054233537 0.000435170681098093 0.000627877698725521 -0.000416346411576648 0.000816257685731642 0.000222439999965838
"12" 0.00037622612297511 -0.000253931967351365 -0.000130133770313405 0.000233152013575893 8.50127558367456e-05 0.000252441619562702 -0.000145975634550581 0.000173121532840131 -0.00159211587994006 0.000832506374711333 0.000365951439881261 0.000450816132085786 0.000645576235473219 -0.000428674695692719 0.000848733404393746 0.000236075388392924
"13" 0.000392752595119063 -0.000253411476730299 -0.000121855425820725 0.00023801810463483 8.80739749970662e-05 0.000252557140745771 -0.000137982917915254 0.000166561973542089 -0.00135020851370288 0.000864705783024724 0.000381589208609181 0.000466281917907576 0.00066235706983003 -0.000440136494954768 0.000880291866785715 0.00024923125050155
"14" 0.000409289183677194 -0.000252662699509613 -0.000113450301281608 0.000242278759314607 9.10543124573482e-05 0.000252521676351799 -0.000129418941827679 0.000160131182521719 -0.0010993569001213 0.000896072886446047 0.000396882544416288 0.00048141333030174 0.000678098530960772 -0.000450681728892256 0.00091078948242563 0.000261844422023169
"15" 0.000425751678204491 -0.000251666687260066 -0.000104949858492298 0.000245963919899109 9.39625687414127e-05 0.000252351910493538 -0.00012032317106112 0.000153841847015689 -0.000842540438583553 0.000926365432518353 0.000411758838578611 0.000496042493183418 0.000692683878605295 -0.000460277659238661 0.00094008487500834 0.000273847533309775
"16" 0.000442065063488019 -0.00025040406476699 -9.63877913184973e-05 0.000249103038470961 9.68121704093258e-05 0.000252060072269067 -0.000110735407543512 0.000147699069613654 -0.000582636008083491 0.000955349493620495 0.000426152368634969 0.000510017592125974 0.000706003057017717 -0.000468906194552491 0.000968051001463784 0.000285179202448944
"17" 0.000458149572889986 -0.000248864723708817 -8.7798189947833e-05 0.000251739950254934 9.96141790953057e-05 0.000251661610587918 -0.000100697457588343 0.000141704209846048 -0.000322377030182148 0.00098280956017525 0.000439998451796271 0.000523195972614905 0.000717955399915858 -0.000476549984188685 0.000994567825480009 0.000295778066301553
"18" 0.000473924291007492 -0.000247035933836315 -7.92073544994345e-05 0.000253920018022352 0.000102386873467504 0.000251168732793964 -9.02604769910892e-05 0.000135867742028473 -6.43169158490062e-05 0.00100852961737982 0.000453237616673658 0.00053544529111268 0.000728453409183001 -0.000483207795716017 0.00101952984407684 0.00030559471966084
"19" 0.000489309093518302 -0.000244907738846277 -7.0652719381061e-05 0.000255690410066983 0.000105144398343644 0.000250593262747092 -7.94737329429167e-05 0.000130186936352711 0.000189192630666514 0.00103231780102767 0.000465808215200315 0.000546637105543373 0.000737414336140364 -0.000488884668606067 0.00104284232024486 0.000314575343571516
"20" 0.0005042289084816 -0.000242472159991838 -6.21598847717212e-05 0.00025711117900731 0.000107904211900483 0.000249947911304575 -6.8388323112882e-05 0.000124661634159409 0.000436002104050114 0.00105399329799304 0.000477658546932882 0.000556665730715917 0.000744773647611413 -0.000493600088707085 0.00106442486458886 0.000322680305433667
"21" 0.000518605777409828 -0.000239726822936112 -5.37615969629725e-05 0.000258232740864629 0.000110676598341129 0.000249241705902495 -5.70633787756489e-05 0.000119289640864449 0.000674190302380307 0.00107338750731443 0.000488732949458956 0.000565426552309341 0.000750470956198279 -0.000497377800806361 0.00108420684487995 0.000329864721003232
"22" 0.000532369936330556 -0.000236664192680271 -4.54840037690625e-05 0.000259124748699571 0.000113482756122135 0.000248485293331919 -4.55522262011403e-05 0.00011407332138202 0.000902048036813548 0.00109035875742315 0.000498986003550572 0.000572838956639086 0.000754461620513177 -0.000500254499891569 0.00110213641041353 0.000336097444528682
"23" 0.000545449649626331 -0.000233293032948098 -3.73586391765293e-05 0.000259842442722874 0.000116335822100532 0.000247684478355105 -3.39171726202484e-05 0.000109005688095798 0.00111806971228 0.00110477650971648 0.000508372009285708 0.000578823638887258 0.000756710023156182 -0.000502269878892226 0.00111816887416557 0.000341346917821479
"24" 0.00055778700424237 -0.000229609717005351 -2.94083251727674e-05 0.000260453068305177 0.000119249785081237 0.000246844479666823 -2.22144313830062e-05 0.000104081834962625 0.00132096000674489 0.00111653743607595 0.000516850516358104 0.000583327104299483 0.000757196591764367 -0.000503475042707723 0.00113228060158854 0.000345591301172314
"25" 0.00056931864074991 -0.000225620841882976 -2.16570049051762e-05 0.000261017570007487 0.000122238823026759 0.00024597139116777 -1.05051722218469e-05 9.92948833169534e-05 0.00150960274393786 0.00112555312932595 0.000524384342062863 0.000586302273765076 0.000755907528799044 -0.000503928546768429 0.00114445389972083 0.000348809174833167
"26" 0.000579987725996949 -0.000221336698551337 -1.41322443726112e-05 0.000261600018750188 0.000125314965105301 0.000245066778920027 1.1536444138311e-06 9.46413042251121e-05 0.00168306314216282 0.0011317641384424 0.000530942787459983 0.00058771824335283 0.000752843562076842 -0.000503691253221952 0.00115468448303752 0.00035098442871078
"27" 0.000589754585075235 -0.000216765122403611 -6.84979729332859e-06 0.000262262153791014 0.000128489336034914 0.000244130981084244 1.27032028352857e-05 9.01107413248874e-05 0.00184056420672697 0.001135128965956 0.000536494285621796 0.000587558775162233 0.000748015208950535 -0.000502832278265346 0.00116298561737896 0.000352114655195112
"28" 0.000598571992193775 -0.000211916379438167 1.64130121075362e-07 0.000263057866224898 0.000131766994806247 0.000243163022603305 2.40879403983726e-05 8.56987320135648e-05 0.0019814837973422 0.00113563304436618 0.000541019877616134 0.000585821857984582 0.000741443577357723 -0.000501421197593466 0.00116937599866358 0.000352191908422883
"29" 0.000606404427881852 -0.000206807924170553 6.89717615672521e-06 0.00026404420067493 0.000135160409089308 0.000242159965431306 3.52515172340378e-05 8.13947967281204e-05 0.00210532230618278 0.00113328071149733 0.000544496732333417 0.000582519602524821 0.000733158906495788 -0.000499539988541355 0.00117389092050609 0.000351215985149389
"30" 0.000613230712275005 -0.000201453080041863 1.33303842650611e-05 0.000265272562713502 0.000138668918131997 0.000241117810996712 4.61437984308094e-05 7.7192718362296e-05 0.00221171581124164 0.00112809934232576 0.000546910607514398 0.000577676667497019 0.00072320192390153 -0.000497265722352609 0.00117657220521776 0.000349196163621337
"31" 0.00061902483878346 -0.000195869925735278 1.94510426696937e-05 0.000266784697684015 0.000142298275439435 0.000240030183352819 5.67151655460258e-05 7.30851735598688e-05 0.00230040523996643 0.00112014581121356 0.00054824923805863 0.000571331241542259 0.000711624406946834 -0.000494672970236862 0.00117747307598986 0.000346140317137727
"32" 0.00062378312120971 -0.000190078521824548 2.52468093241324e-05 0.000268621552569582 0.000146047654680446 0.000238889530336001 6.69160611752875e-05 6.90609701779826e-05 0.00237123357600321 0.00110949366333987 0.000548508003522949 0.000563535784413741 0.000698483190349678 -0.000491843423442205 0.0011766543881566 0.000342067390895239
"33" 0.000627499363746107 -0.000184096313374831 3.07101683790576e-05 0.000270820346315739 0.000149914331127484 0.000237686641491515 7.67110039387322e-05 6.51176305761718e-05 0.00242413929008364 0.00109623497409721 0.000547688264331123 0.000554355404434638 0.000683846768456717 -0.000488856464785161 0.00117418491243012 0.000336996340618387
"34" 0.000630177314260835 -0.000177950638611747 3.58315868469208e-05 0.000273399577071837 0.00015389267919951 0.000236410714640477 8.60561335859227e-05 6.1245066178131e-05 0.00245913051565844 0.00108048542541961 0.000545784519464001 0.000543857584086776 0.000667780324394464 -0.000485791226670107 0.00117014020923149 0.000330946792605901
"35" 0.000631835744039523 -0.000171657077488067 4.06092817923278e-05 0.000276386800916656 0.000157977012848664 0.000235051413529325 9.4922902000543e-05 5.74437139259659e-05 0.0024763027145585 0.00106238428900012 0.000542814460616939 0.000532139707858007 0.000650373071918301 -0.000482720340985963 0.00116460567198397 0.000323953928254351
"36" 0.000632492918304852 -0.000165244223939582 4.50366433751571e-05 0.000279791515964891 0.000162156188717384 0.000233595025615648 0.000103277386462452 5.3701039780054e-05 0.00247582154117225 0.00104207661469767 0.000538781274872244 0.000519285822399697 0.00063169921449768 -0.00047971462032532 0.00115766188904983 0.00031604439446391
"37" 0.000632181667206711 -0.000158734569422266 4.91179312212881e-05 0.000283616662240158 0.000166419246646223 0.000232028675265278 0.000111099092613968 5.00179171699685e-05 0.00245790624227151 0.00101973168825476 0.000533707274674882 0.00050540649708119 0.000611853513384595 -0.0004768423188733 0.00114939943503872 0.000307254414505669
"38" 0.000630941564617543 -0.000152150803431659 5.2853436724654e-05 0.000287859523532456 0.000170754579972106 0.000230342086232791 0.000118369499386737 4.63968475044682e-05 0.00242284854554503 0.000995528912810359 0.00052761015079936 0.000490608361432141 0.00059092749369526 -0.000474165311587744 0.0011399118565455 0.000297625297921328
"39" 0.000628813943412371 -0.000145518949747127 5.62436380418459e-05 0.000292512302979473 0.000175144864519671 0.00022851780124144 0.000125075154640461 4.28326860747007e-05 0.00237099046092922 0.000969659652831957 0.000520514095041164 0.000475009651658944 0.000569012804100817 -0.000471739249494808 0.00112929060086733 0.000287197517179076
"40" 0.000625859264561306 -0.000138859150059483 5.93016260203554e-05 0.000297555217412184 0.00017957089326797 0.000226545758522595 0.000131205372505357 3.93263578547562e-05 0.00230273558402097 0.000942327516322612 0.000512451077785606 0.000458728590393831 0.000546209863705349 -0.00046961342425179 0.00111763174963567 0.000276015801092566
"41" 0.000622134557935754 -0.000132199977981267 6.20329866514631e-05 0.000302961059166391 0.000184017280396969 0.000224411146514164 0.000136764304356911 3.58881614236265e-05 0.00221854863137735 0.000913743546087513 0.000503450993811915 0.000441898967495831 0.000522617248995379 -0.000467827765800626 0.00110502442555369 0.000264126374590032
"42" 0.000617703117962707 -0.00012555986830569 6.44491558380945e-05 0.000308697518612309 0.000188461876978589 0.000222103190498298 0.000141750985863302 3.25172218253869e-05 0.00211893960441516 0.000884118436217967 0.000493552039863979 0.000424639047400277 0.000498332852193307 -0.000466416767030989 0.00109156292773849 0.00025158127072026
"43" 0.000612637402353681 -0.000118964467598151 6.65600475354554e-05 0.000314724255121853 0.000192882583156192 0.000219610069128456 0.000146175930982675 2.92226805927216e-05 0.00200448015636218 0.000853670266176207 0.000482790144350426 0.000407080825002675 0.000473452484020667 -0.000465410159346584 0.00107733222025606 0.00023842782351532
"44" 0.000607010896004827 -0.000112430519773692 6.8383611130377e-05 0.000320995447114291 0.000197256362243103 0.000216921438809942 0.000150051134658708 2.60113669180974e-05 0.00187580910674147 0.000822618507628936 0.000471210684527649 0.000389349195817935 0.000448078550402659 -0.00046482369951525 0.0010624208568157 0.000224721684688423
"45" 0.000600905651261206 -0.000105981724540734 6.99318210537293e-05 0.000327458405587137 0.000201563373787867 0.000214027430342984 0.000153396733725818 2.29002070059198e-05 0.00173361865382891 0.000791177087697598 0.000458860735702804 0.000371570423814212 0.000422302598603994 -0.000464671772876358 0.00104690518429321 0.000210515733871107
"46" 0.000594397865483211 -9.96357356530204e-05 7.12277492009262e-05 0.000334057261263698 0.000205777503102345 0.000210924106499783 0.00015623653036795 1.98954862843308e-05 0.0015786662648002 0.00075956065258527 0.000445783821592433 0.000353865553899326 0.000396218878410085 -0.000464955638020341 0.00103085997189813 0.000195861618400139
"47" 0.000587569587507009 -9.34105170003992e-05 7.22835655690558e-05 0.000340725524565161 0.000209872845934427 0.000207602563148083 0.000158594122297545 1.70128564005792e-05 0.00141178609879566 0.0007279719353667 0.000432030153357508 0.000336348331824485 0.000369915987417471 -0.000465673044960611 0.00101435640254741 0.000180814088345256
"48" 0.000580506514169092 -8.73185383858542e-05 7.31207515570281e-05 0.000347402034687765 0.000213827735356485 0.000204061012027056 0.000160503430049521 1.4267532922488e-05 0.00123387912764848 0.000696610956884598 0.000417655840964824 0.000319130112196811 0.000343481515885636 -0.000466809578722899 0.000997453511934212 0.000165429753402003
"49" 0.000573285104980614 -8.13769505758292e-05 7.37618484169492e-05 0.000354011705710512 0.000217616898964199 0.000200296693788764 0.000161996497452459 1.16761879905019e-05 0.00104592512633102 0.00066566604273158 0.000402707482373458 0.000302310358511271 0.000316995825917404 -0.00046834466870424 0.00098020860476167 0.000149760099544939
"50" 0.000565988462608429 -7.55996150462191e-05 7.42237775002654e-05 0.000360485338570648 0.000221216963492924 0.000196310915522346 0.0001631098442793 9.26008603657281e-06 0.000848983949386518 0.000635317442248827 0.000387242180357618 0.000285986137298556 0.000290537847063295 -0.000470254891971011 0.000962666268273945 0.000133859480235451
"51" 0.000558690682709899 -6.99950872871195e-05 7.45294103135903e-05 0.000366748241011965 0.000224603350142174 0.000192105025355893 0.000163881135602308 7.03074442871634e-06 0.000644202945312114 0.00060572650986185 0.000371314755473469 0.000270241625191143 0.000264178990643629 -0.00047250825946524 0.000944869639418784 0.000117777478393859
"52" 0.000551467125612483 -6.45733034335701e-05 7.46949891703085e-05 0.000372726151360581 0.000227751559502807 0.000187684146457962 0.000164353661807231 5.00903140358657e-06 0.000432816533283775 0.000577041652095623 0.000354977281485784 0.000255146054276966 0.000237986788502282 -0.00047506823741383 0.000926847718368423 0.000101566434121722
"53" 0.000544380105800878 -5.93462937504867e-05 7.47412773160053e-05 0.000378342212890979 0.000230639471329548 0.000183055698623247 0.000164561255482584 3.21265495392558e-06 0.000216161798571974 0.000549398796087345 0.000338283699497026 0.00024076014696008 0.000212020337770806 -0.000477890451131319 0.000908623445563599 8.52708244026407e-05
"54" 0.000537495312958512 -5.43180941260524e-05 7.46889650960698e-05 0.000383521423438332 0.000233245318494692 0.000178228073871687 0.000164550311989148 1.66403619359674e-06 -4.33635939354962e-06 0.000522913815253864 0.000321288529762175 0.000227135737841289 0.00018633610266428 -0.000480932422191975 0.000890210179367156 6.89397518880146e-05
"55" 0.000530861369151427 -4.94976246364823e-05 7.45540647718644e-05 0.000388192252238263 0.000235548962815433 0.000173210413349645 0.000164356045584415 3.73280100074029e-07 -0.000227158595785824 0.000497686621353796 0.000304043906466708 0.000214311283464297 0.000160985461714726 -0.00048414127702482 0.000871618548186375 5.2614637676308e-05
"56" 0.000524530688625353 -4.48847360381507e-05 7.43481792513817e-05 0.000392279946260813 0.000237528142390743 0.000168017567234001 0.000164017907153418 -6.36256654097017e-07 -0.000450680469185703 0.000473801110200472 0.000286602340229167 0.000202305487801231 0.000136009175249906 -0.000487466523532522 0.000852841553781669 3.63349826929144e-05
"57" 0.000518543315903353 -4.0489487495168e-05 7.4093029042265e-05 0.000395722258965846 0.000239166249272932 0.000162663622340089 0.000163572693238701 -1.35447126001958e-06 -0.000673200200355798 0.000451318067218373 0.000269011204898647 0.00019113810769488 0.000111447790353021 -0.000490854177627303 0.000833877992682444 2.01421418243143e-05
"58" 0.000512924584838228 -3.63074915115064e-05 7.38003856946142e-05 0.000398447989215922 0.000240445623816442 0.000157164777202346 0.000163057810235689 -1.76645253109325e-06 -0.000892921241088515 0.000430289904314971 0.000251324446585105 0.000180800882379761 8.73356596979736e-05 -0.000494251513546042 0.000814706726480727 4.07099764751299e-06
"59" 0.000507696235985995 -3.2348298141242e-05 7.34761367700932e-05 0.000400401556550178 0.000241347935978335 0.000151538408792855 0.000162503902222016 -1.86012165249286e-06 -0.0011079806145557 0.000410737938623461 0.000233583784946397 0.000171283270467322 6.36961036337593e-05 -0.000497598391625666 0.000795308644644244 -1.18483351983755e-05
"60" 0.000502874163791009 -2.86064546100007e-05 7.31353383008141e-05 0.000401532536563484 0.000241862397851924 0.000145803744667548 0.0001619400582434 -1.626029058802e-06 -0.00131645833384528 0.000392680459502489 0.000215840979000253 0.000162565042660042 4.05576483616069e-05 -0.000500846682842451 0.000775661337181135 -2.75823879289407e-05
"61" 0.000498454260259832 -2.50881258726629e-05 7.27798258306522e-05 0.000401782371996809 0.000241971821181976 0.000139980266509112 0.00016138951904215 -1.05960262579177e-06 -0.00151639871747177 0.000376100136627536 0.000198134751017123 0.000154599428361849 1.79300750338643e-05 -0.000503939487829408 0.000755722896724835 -4.31080344048131e-05
"62" 0.00049443421176693 -2.17876651967834e-05 7.24192589587982e-05 0.000401114127081785 0.000241666134296109 0.000134089823445202 0.000160874783431345 -1.53094667472246e-07 -0.00170582508913027 0.000360981546674064 0.00018050705069453 0.0001473417374507 -4.16746662950733e-06 -0.000506827739952241 0.000735464723657281 -5.84003653401579e-05
"63" 0.000490795852680616 -1.87053982277208e-05 7.20547056571825e-05 0.000399492660282068 0.000240939024000843 0.000128153368130928 0.000160414838432233 1.09345263252779e-06 -0.00188278607435605 0.000347287708623239 0.000163002864613143 0.000140743616497766 -2.57230436834788e-05 -0.000509459171752298 0.000714848288086915 -7.34342758820552e-05
"64" 0.000487510997026348 -1.58418809124236e-05 7.16854009987702e-05 0.000396886439952744 0.000239779156382946 0.000122193417476603 0.000160022581130186 2.67447158580528e-06 -0.00204537231140834 0.000334955709331663 0.000145656603466507 0.000134724740942723 -4.67364493008751e-05 -0.000511792845406013 0.000693828587099589 -8.81952075596107e-05
"65" 0.000484549096687273 -1.31947704996824e-05 7.13120159891819e-05 0.000393277844242641 0.000238184185669904 0.000116233887871809 0.00015970756704683 4.58538596254005e-06 -0.00219176588374016 0.000323925417841879 0.00012850629310641 0.000129220012005783 -6.72002668554411e-05 -0.000513785201987433 0.000672367410326286 -0.000102664089170575
"66" 0.000481862109923509 -1.07622740185296e-05 7.09334047344782e-05 0.000388655624600117 0.000236154745840988 0.000110296469266253 0.000159474007825533 6.82366518196506e-06 -0.00232026465536984 0.000314120932248579 0.000111586308081183 0.00012414872965036 -8.71124596163015e-05 -0.000515396377861332 0.000650424907570546 -0.000116822654990554
"67" 0.000479399770526021 -8.54034586706893e-06 7.05437206026978e-05 0.00038301098209623 0.000233684093462524 0.000104402039513617 0.000159321985119183 9.36623597974213e-06 -0.00242933467468065 0.000305442162574706 9.49319493384537e-05 0.000119418035407543 -0.000106479659059563 -0.000516596721300316 0.000627957248396245 -0.000130664956953867
"68" 0.000477101912100316 -6.52802273720571e-06 7.01353779065268e-05 0.00037634810740735 0.000230778254627284 9.85760168025507e-05 0.000159247010150653 1.22060877637375e-05 -0.00251763868928282 0.00029779396198767 7.85741414368167e-05 0.000114940626080783 -0.000125300333762163 -0.000517353053907135 0.000604926447432515 -0.000144174022315994
"69" 0.000474907845113286 -4.72121652552112e-06 6.97031130328037e-05 0.000368682874681036 0.000227441130870743 9.28348958708854e-05 0.000159240834059839 1.53165276783036e-05 -0.00258407980577723 0.000291068340891952 6.25418450250224e-05 0.000110619579330334 -0.000143582089187585 -0.000517644843659092 0.000581296603155873 -0.000157344634359375
"70" 0.000472742967184323 -3.11885183966273e-06 6.92341392766641e-05 0.000360031899965815 0.000223679327323537 8.72025222971231e-05 0.000159294827645968 1.86780271730966e-05 -0.00262782470902916 0.000285147841752751 4.68640053379856e-05 0.000106359292670634 -0.000161328316385074 -0.000517450192782627 0.00055703782614876 -0.000170167533906958
"71" 0.000470532307897711 -1.7115267235895e-06 6.87248970189658e-05 0.000350423160699804 0.00021950279177614 8.16952804814936e-05 0.000159391058420248 2.22618437827543e-05 -0.00264834357850351 0.000279911969600263 3.15683944471625e-05 0.000102062490340767 -0.00017854550594722 -0.000516752406548576 0.000532121271266251 -0.000182634887396573
"72" 0.000468200846498334 -5.0091198228581e-07 6.81622333677125e-05 0.000339896727568925 0.000214923591043729 7.63335419296453e-05 0.000159515500452117 2.60406736382361e-05 -0.00264541471847168 0.000275238829756693 1.66810576164433e-05 9.76350301165558e-05 -0.00019524122456277 -0.000515546971601035 0.000506528570163895 -0.000194741335205378
"73" 0.000465663313586963 5.20898770437287e-07 6.75356660438888e-05 0.000328493416040485 0.000209955495766294 7.11321254549391e-05 0.00015964258060212 2.9977229878296e-05 -0.00261914256670701 0.000270997443433363 2.22697182092088e-06 9.2978645381444e-05 -0.000211423591974609 -0.000513823647382431 0.000480241007051174 -0.000206484355963154
"74" 0.000462834877562254 1.35432670788339e-06 6.68353694661077e-05 0.000316264171027526 0.000204617498974073 6.61060433537755e-05 0.00015975002599619 3.40356481179628e-05 -0.00256994165905661 0.000267061985762317 -1.17717584051346e-05 8.79984699665758e-05 -0.000227099162013773 -0.000511579271644147 0.000453251679255142 -0.000217859694935448
"75" 0.00045963433394144 2.00740024766536e-06 6.60498033208827e-05 0.000303265938546604 0.000198928725723727 6.12668104344628e-05 0.00015981339370352 3.8178387749193e-05 -0.00249854831134258 0.000263302279694491 -2.52947306207714e-05 8.26108176806268e-05 -0.000242276829799897 -0.000508822939156802 0.000425558034221783 -0.000228863844066701
"76" 0.000455977702712386 2.4875946359476e-06 6.51710510127458e-05 0.000289565162576209 0.000192910102249433 5.66255686317056e-05 0.000159808274210552 4.23621895105902e-05 -0.00240598411179464 0.000259594591198152 -3.83219660674322e-05 7.67294508716786e-05 -0.000256960470853157 -0.000505553291782998 0.000397166245482872 -0.000239495158621349
"77" 0.000451778687912331 2.79633973002182e-06 6.41869735093215e-05 0.000275228845266607 0.000186584846021377 5.21907150379122e-05 0.000159703090644553 4.65415190691184e-05 -0.00229353822283878 0.000255814033258677 -5.08361460423703e-05 7.02748142845443e-05 -0.000271161913891731 -0.000501784623963347 0.000368089449241875 -0.000249754086049017
"78" 0.00044696399919191 2.94272354832423e-06 6.30919889338397e-05 0.000260332832339592 0.000179982279543117 4.79662997013162e-05 0.000159474627340569 5.06721369368076e-05 -0.0021627229250018 0.000251846065735424 -6.28205177989946e-05 6.31814097384912e-05 -0.000284885294704305 -0.000497524480407675 0.000338348645701622 -0.000259639055302019
"79" 0.000441455825840784 2.93261181485992e-06 6.18745080130624e-05 0.000244952436599996 0.000173128009944628 4.39558989802441e-05 0.000159092950708173 5.47042472872489e-05 -0.00201525387498498 0.000247569255367935 -7.42629171255296e-05 5.5378014263186e-05 -0.000298139414750617 -0.000492791391759763 0.000307974173356532 -0.000269152206768845
"80" 0.000435180383802983 2.77243443925152e-06 6.05303015923147e-05 0.000229168049438683 0.000166051770042412 4.01625147433087e-05 0.000158529805572537 5.85888797224987e-05 -0.00185299497212588 0.0002428839796388 -8.51543622664654e-05 4.68138074434965e-05 -0.000310935204328573 -0.000487595325134352 0.000277001183444785 -0.000278295450158257
"81" 0.000428072328549417 2.46995677042035e-06 5.90552189258981e-05 0.0002130672946519 0.000158786208398451 3.65804153864238e-05 0.000157763126140382 6.2277130585796e-05 -0.00167792859733322 0.000237685250209361 -9.5482530017501e-05 3.7437520464579e-05 -0.000323277379481493 -0.00048195840319536 0.000245470514961909 -0.000287071145316813
"82" 0.000420073387328947 2.03485264811856e-06 5.74446701189712e-05 0.000196731968171027 0.000151363715538465 3.3207736756304e-05 0.000156768310214724 6.57193970039042e-05 -0.00149211771393308 0.000231888624236376 -0.000105241604915851 2.7214461925319e-05 -0.000335173934638477 -0.000475893025050582 0.000213435488485295 -0.000295481784713754
"83" 0.000411132815024006 1.47621328338261e-06 5.56969461373642e-05 0.000180249532096851 0.000143817118549039 3.00352471004269e-05 0.000155520206104033 6.88608125313547e-05 -0.0012976637194625 0.000225404084909083 -0.000114432303787742 1.6113796722358e-05 -0.000346637391078414 -0.000469419176573947 0.000180950951887775 -0.00030353426431715
"84" 0.000401203131256697 7.99186278191372e-07 5.38125244307219e-05 0.000163707446228986 0.000136179841227621 2.70535159228503e-05 0.000154008921969578 7.16558294827601e-05 -0.00109667886071003 0.000218167077906054 -0.000123049179207152 4.11773868017816e-06 -0.000357673027425538 -0.000462547142263618 0.00014808098095555 -0.000311231859339226
"85" 0.000390248382886035 1.6471556374735e-08 5.17932025749563e-05 0.000147184096492205 0.000128487100276995 2.42497301354509e-05 0.000152207217756583 7.4053717427273e-05 -0.000891261189317616 0.000210107515746234 -0.000131096470712248 -8.78505710794957e-06 -0.00036829974131158 -0.000455302857317464 0.000114888033889967 -0.00031858606195349
"86" 0.000378243582874461 -8.61431056419823e-07 4.96432122296354e-05 0.000130768285416268 0.000120773792355852 2.16092309499471e-05 0.000150110275785937 7.60088380646525e-05 -0.000683463039546288 0.000201181218196997 -0.000138582609472132 -2.25899410778858e-05 -0.000378523093864586 -0.000447693241131241 8.1445509081198e-05 -0.00032560184427987
"87" 0.000365170803909591 -1.82439826143952e-06 4.73670767691956e-05 0.000114535201969368 0.000113076883397372 1.91121026226046e-05 0.000147710185274707 7.74767469011146e-05 -0.000475273651417899 0.000191342934208019 -0.000145515442942118 -3.72877307486186e-05 -0.000388354745980628 -0.00043973216671485 4.78311656892574e-05 -0.000332288406676198
"88" 0.000351022647273163 -2.86032772530824e-06 4.49760807752472e-05 9.85665148495128e-05 0.000105429529685029 1.67424744444623e-05 0.000144999433635047 7.84096033011971e-05 -0.000268595905575826 0.000180568682120528 -0.000151904938771823 -5.28573295594968e-05 -0.000397812116834794 -0.000431431605105279 1.41175304288525e-05 -0.000338656504913205
"89" 0.000335804832668535 -3.96164066209804e-06 4.24739498767924e-05 8.29286100083455e-05 9.78652925349273e-05 1.44761804706426e-05 0.000141979581900217 7.87721940063996e-05 -6.52555317992537e-05 0.000168834639599684 -0.000157768574199394 -6.92717588160736e-05 -0.000406911543326963 -0.000422799236403633 -1.96144312749171e-05 -0.000344720308572976
"90" 0.000319526341655835 -5.10892200885928e-06 3.98785947780337e-05 6.76914464995856e-05 9.04191778614044e-05 1.22900829013549e-05 0.000138652382339325 7.85266568593258e-05 0.000133038691655148 0.000156142329300859 -0.000163125227928207 -8.64841533980135e-05 -0.00041566353387084 -0.000413844254410915 -5.32815968102338e-05 -0.000350488864989025
"91" 0.000302208432628623 -6.295777348148e-06 3.71982979122335e-05 5.29138844959137e-05 8.31231273387644e-05 1.01581774938969e-05 0.000135034244270874 7.76379242645429e-05 0.000324679307010038 0.000142487997429361 -0.000167994327589724 -0.00010445446771162 -0.000424095568237821 -0.000404568107260206 -8.68092893709097e-05 -0.000355978934252625
"92" 0.000283889373827432 -7.50469820657542e-06 3.44505517413706e-05 3.86555038495408e-05 7.60074010691124e-05 8.05781303564949e-06 0.00013113234342707 7.60832971140201e-05 0.000508179659177357 0.000127895189996773 -0.000172404214381485 -0.000123119064348291 -0.00043221889731627 -0.000394968833490608 -0.000120114859341424 -0.000361204382292931
"93" 0.000264609293318433 -8.72346985788665e-06 3.1652546325671e-05 2.49619221196412e-05 6.91026345156247e-05 5.95800781633331e-06 0.000126967024676335 7.38322281387593e-05 0.000682160674583798 0.000112385490627671 -0.00017638047246847 -0.000142418715210023 -0.000440056250949205 -0.000385053400386765 -0.000153121413570337 -0.000366179603312796
"94" 0.000244423670544787 -9.94050045093446e-06 2.88193027189797e-05 1.18756933871789e-05 6.24385432135339e-05 3.83473561986901e-06 0.000122562431384014 7.08705798042429e-05 0.000845372848083982 9.59987727114624e-05 -0.000179952700384209 -0.000162276412729542 -0.000447629094851652 -0.000374812696879381 -0.00018575179180625 -0.000370921082479811
"95" 0.000223393987277388 -1.11382762032337e-05 2.59731979609834e-05 -5.69441949789275e-07 5.60406641380277e-05 1.65900556114647e-06 0.000117947785245092 6.71832004756752e-05 0.000996687414405818 7.8777089275067e-05 -0.000183153670466183 -0.000182620056779986 -0.000454959985779124 -0.000364247437665536 -0.000217934231348543 -0.000375445767042076
"96" 0.000201585794484218 -1.23039180822343e-05 2.3132089288499e-05 -1.2347178289826e-05 4.99292481310198e-05 -5.96843705950532e-07 0.000113153407990547 6.27632478083202e-05 0.0011350998645999 6.07782699503089e-05 -0.000186017395364341 -0.000203364963093572 -0.000462071491475987 -0.000353344125200238 -0.000249602322866028 -0.000379770188399771
"97" 0.000179081287600946 -1.34208569632504e-05 2.03219474927524e-05 -2.34324818844801e-05 4.413312487314e-05 -2.95860644142294e-06 0.000108216299023621 5.76039394549851e-05 0.00125972434017607 4.20633147648051e-05 -0.000188577821372614 -0.000224417988908911 -0.000468987965949251 -0.000342100035483036 -0.000280688614480487 -0.000383910324615643
"98" 0.000155963006319456 -1.44730351815353e-05 1.75594100224537e-05 -3.38210938448183e-05 3.86669651749822e-05 -5.45181422640063e-06 0.000103176743018116 5.17152262380768e-05 0.00136980950245348 2.27018576598434e-05 -0.00019087639436621 -0.000245697915200326 -0.000475735071202994 -0.000330506244707962 -0.000311136199318125 -0.000387885953641949
"99" 0.000132332321534498 -1.54436665957153e-05 1.48704593557975e-05 -4.34992481686473e-05 3.35524567697981e-05 -8.10213276806019e-06 9.8082936620159e-05 4.51028649273406e-05 0.00146471454197381 2.7744755749137e-06 -0.000192945798282032 -0.000267097239085465 -0.000482331720135393 -0.000318550580271817 -0.000340887159546291 -0.000391710266945566
"100" 0.000108274679195681 -1.63212550732495e-05 1.22775441877142e-05 -5.24747502576657e-05 2.88042530057439e-05 -1.09297141600963e-05 9.29757732612233e-05 3.7780398620795e-05 0.00154393823017062 -1.76451533423804e-05 -0.000194830380028864 -0.000288533877719551 -0.000488806746564763 -0.000306223164733613 -0.00036989688956588 -0.000395400401929878
"101" 8.39007173648662e-05 -1.70854994336329e-05 9.80378667283069e-06 -6.07571615284322e-05 2.44363589289806e-05 -1.39580775782639e-05 8.79078723769143e-05 2.97708640423731e-05 0.00160709748488546 -3.84677409436704e-05 -0.000196563886209354 -0.000309902939624607 -0.000495185684578525 -0.000293517220741127 -0.000398121360745915 -0.000398970641513299
"102" 5.93124515527863e-05 -1.77225486253205e-05 7.47550266656583e-06 -6.83582595267898e-05 2.04585334300819e-05 -1.72024514202581e-05 8.29331161980979e-05 2.10985028486708e-05 0.00165394418071601 -5.96031647856303e-05 -0.00019818693684027 -0.000331107732120072 -0.000501486860955746 -0.000280424067120295 -0.000425522605957698 -0.000402436782867274
"103" 3.46215897975955e-05 -1.82159952621387e-05 5.31430574170011e-06 -7.5298616908581e-05 1.68824300699088e-05 -2.06782796066052e-05 7.8103865336172e-05 1.18004924416786e-05 0.00168434835419846 -8.09603807702065e-05 -0.000199733983446058 -0.000352051103769696 -0.000507734924798456 -0.00026693984872188 -0.000452070137478772 -0.000405810023831496
"104" 9.93485561123151e-06 -1.85529403205591e-05 3.34125940050608e-06 -8.16077056799921e-05 1.3712096704931e-05 -2.44007834191251e-05 7.34746139841491e-05 1.90850536654762e-06 0.00169831741743276 -0.000102452809391899 -0.000201247301510404 -0.000372649389898342 -0.000513957555556895 -0.000253057212208275 -0.00047774538941922 -0.000409106625077644
"105" -1.46317602747194e-05 -1.87118687114233e-05 1.57902414772861e-06 -8.73144374935924e-05 1.09537091583237e-05 -2.83759272952603e-05 6.9105158766541e-05 -8.53231017390285e-06 0.00169598457665885 -0.000123983906584573 -0.000202755593411758 -0.000392804607927426 -0.000520167503531167 -0.000238777549367395 -0.000502522637091248 -0.00041233244781011
"106" -3.89690363287455e-05 -1.86835437385583e-05 5.25412913995782e-08 -9.24575314135613e-05 8.60972493867097e-06 -3.26116996226228e-05 6.5046730406554e-05 -1.94788895350317e-05 0.00167761478311458 -0.000145463317622931 -0.00020429628467585 -0.000412432518924675 -0.000526389453925326 -0.000224102489826978 -0.00052639994375632 -0.000415501170680159
"107" -6.29683100981299e-05 -1.84519347456607e-05 -1.22122079918187e-06 -9.70746210774352e-05 6.68187055511244e-06 -3.71095436549967e-05 6.13584394172525e-05 -3.08783258892799e-05 0.00164359911328741 -0.000166802593662303 -0.000205899508860747 -0.000431448821028309 -0.000532639198384704 -0.000209036889171619 -0.000549363126511867 -0.000418615791596345
"108" -8.65192801722957e-05 -1.80018296394136e-05 -2.22532397277615e-06 -0.000101206805723797 5.16502717448359e-06 -4.18711695705458e-05 5.80910861410057e-05 -4.26757700952645e-05 0.00159446130791495 -0.000187918112984312 -0.000207592660339294 -0.000449783364123438 -0.000538932138232167 -0.000193592791419664 -0.000571421477605104 -0.000421688895760636
"109" -0.000109520835188743 -1.73241821667314e-05 -2.93483281142985e-06 -0.000104900942917667 4.06000964725466e-06 -4.68879114294632e-05 5.53028697325343e-05 -5.48128071647205e-05 0.00153084477887425 -0.000208720663705582 -0.000209405018033849 -0.000467358927866598 -0.000545282568734818 -0.00017778732494498 -0.000592574806286342 -0.000424720861097276
"110" -0.000131870138799877 -1.64050372833593e-05 -3.34200191885047e-06 -0.000108202074031495 3.35827855105338e-06 -5.21525727793658e-05 5.30383682184375e-05 -6.72342123825583e-05 0.00145352586292865 -0.000229138293484001 -0.000211356262968958 -0.000484118364890538 -0.000551703438876606 -0.000161639259396742 -0.000612839848374687 -0.000427715753395608
"111" -0.000153474992164238 -1.52330648394323e-05 -3.42641473530696e-06 -0.000111153446473701 3.05769634326699e-06 -5.76558170680717e-05 5.1350586105999e-05 -7.98752455227796e-05 0.00136339901150288 -0.000249094342292556 -0.000213469778009985 -0.000499999576909318 -0.000558201809427754 -0.000145177006871963 -0.00063222769206071 -0.000430673954739003
"112" -0.000174240333919323 -1.38032008648424e-05 -3.18192617430987e-06 -0.000113810646602514 3.14628948018296e-06 -6.33804166894328e-05 5.02797015990069e-05 -9.26756152063127e-05 0.00126147088530511 -0.000268523514274057 -0.000215761693912452 -0.000514958120350364 -0.000564786958359525 -0.000128432856938534 -0.00065076165343802 -0.000433596700736903
"113" -0.000194087261615524 -1.21052958332915e-05 -2.59460310483277e-06 -0.000116210734766978 3.61518120038999e-06 -6.93097044859236e-05 4.98683622217654e-05 -0.000105567125931499 0.00114886694933584 -0.000287364488821825 -0.000218246770141538 -0.000528950081045977 -0.000571461504655317 -0.000111446373133681 -0.000668469140235308 -0.000436482092926421
"114" -0.000212935259185046 -1.0133729638881e-05 -1.65569504851662e-06 -0.000118402848403497 4.45471761381673e-06 -7.54216602406298e-05 5.01522121255941e-05 -0.000118485804879602 0.00102681362766958 -0.000305556029205942 -0.000220930796607654 -0.000541939212795381 -0.000578221203401991 -9.42558185750956e-05 -0.000685372908254481 -0.000439321201397346
"115" -0.000230719384210816 -7.88669917427649e-06 -3.63094596794017e-07 -0.000120432998711025 5.65215447150082e-06 -8.16912999332615e-05 5.11601259574101e-05 -0.000131370774217359 0.000896633258219951 -0.000323057508144238 -0.000223827995720929 -0.000553905266693745 -0.000585074953351642 -7.6921344134527e-05 -0.000701507291545485 -0.000442114534384962
"116" -0.000247383834454301 -5.35973689584151e-06 1.28797706874853e-06 -0.000122336968670745 7.19554927514733e-06 -8.80922683732473e-05 5.29213532894318e-05 -0.000144157372039885 0.000759741770483731 -0.000339823693630725 -0.00022693666135033 -0.0005648262627233 -0.000592007284259103 -5.94925295983005e-05 -0.00071690608639916 -0.000444852577457739
"117" -0.000262867252754023 -2.55358107974149e-06 3.29929341683317e-06 -0.000124153672746232 9.0688480798926e-06 -9.4595569790804e-05 5.54558117621717e-05 -0.000156784391497702 0.000617622851389226 -0.000355820177218942 -0.000230258819603226 -0.000574691324712357 -0.000599016878733219 -4.20350271951597e-05 -0.000731602474383444 -0.000447525749257547
"118" -0.000277130718678066 5.31004097004721e-07 5.6675477852016e-06 -0.000125923263233103 1.12591228717908e-05 -0.000101172108614161 5.87738999451701e-05 -0.00016919448199606 0.00047182687879431 -0.000371023683324581 -0.000233792470359023 -0.000583501283751392 -0.000606091720672232 -2.46181611507842e-05 -0.000745634902327982 -0.00045012625125568
"119" -0.000290141166263299 3.88709460613418e-06 8.38742104697179e-06 -0.000127669218097322 1.37509749467178e-05 -0.00010778659673531 6.28895200387624e-05 -0.000181324785671018 0.000323963398015649 -0.000385406152088889 -0.000237530024262396 -0.000591255325676694 -0.000613215545667632 -7.31126257828316e-06 -0.000759038005516954 -0.000452639698662451
"120" -0.000301873322077447 7.51189213737639e-06 1.14540289706085e-05 -0.000129424436833361 1.65235314072017e-05 -0.000114406789896843 6.78014991413391e-05 -0.000193130792433401 0.000175666201873397 -0.000398962855763664 -0.000241462372178541 -0.000597974809838433 -0.000620377910698833 9.80472932119584e-06 -0.000771854161392599 -0.00045505742571748
"121" -0.00031231041209741 1.13938829724754e-05 1.48575011457919e-05 -0.00013120794312362 1.95650243072454e-05 -0.000120998156161831 7.35023628618416e-05 -0.000204553769589498 2.85937201007893e-05 -0.000411680408392455 -0.000245578971667361 -0.000603668369873235 -0.000627552749908779 2.66474531226075e-05 -0.00078411804512804 -0.000457364116539544
"122" -0.000321449643724832 1.55245845607831e-05 1.85854398360196e-05 -0.00013303991566759 2.28546171123279e-05 -0.000127524646297633 7.99841504415972e-05 -0.000215550562886478 -0.000115608624147979 -0.000423562699913493 -0.000249860350467729 -0.000608364508952597 -0.000634722088844818 4.31335883266003e-05 -0.00079586620833819 -0.000459545570488524
"123" -0.000329290758436862 1.98915770884334e-05 2.26233836932939e-05 -0.000134934648548273 2.63750596769628e-05 -0.000133950833650712 8.72299979180655e-05 -0.000226077189613973 -0.000255312378855182 -0.000434608882625165 -0.000254292672396827 -0.00061209132974143 -0.000641860619105644 5.91713034992272e-05 -0.000807134976959177 -0.000461586064084436
"124" -0.000335847576990071 2.4476409307679e-05 2.69565112464117e-05 -0.000136896762603601 3.01071787755448e-05 -0.00014024165227721 9.52119050245321e-05 -0.000236096781527992 -0.000388940403141808 -0.000444837934115577 -0.000258853295614756 -0.000614886846259132 -0.000648940584797838 7.46736539203877e-05 -0.000817960033602266 -0.00046347174047767
"125" -0.000341137317093957 2.92642611901609e-05 3.1568728329048e-05 -0.000138936789051305 3.40336404870726e-05 -0.000146364714777192 0.000103903385933128 -0.000245577261352316 -0.000514985629523253 -0.000454257876387795 -0.000263521971104598 -0.00061678983398918 -0.000655932820610303 8.95429802172251e-05 -0.000828370646654112 -0.000465185412240893
"126" -0.00034519426193907 3.42363800917767e-05 3.64368970969069e-05 -0.000141046204415581 3.81362373208213e-05 -0.000152283500429026 0.000113264765830423 -0.000254487120205316 -0.000632025138071967 -0.000462893421625113 -0.000268275026234572 -0.000617842642865652 -0.000662805693397151 0.000103695577454314 -0.000838400337987003 -0.00046670974383486
"127" -0.000348052053817058 3.93707981937671e-05 4.15413191983159e-05 -0.000143228650648151 4.23916285992314e-05 -0.000157966758571631 0.000123251834359677 -0.000262804140253696 -0.00073875307429391 -0.000470769569778114 -0.000273084342450252 -0.000618094885500319 -0.000669531395857262 0.000117033193856422 -0.000848072670397556 -0.000468028471799394
"128" -0.000349759725874272 4.46494390977965e-05 4.68595793880806e-05 -0.000145467256557642 4.67828246684636e-05 -0.000163384654321323 0.000133820458999908 -0.000270512138452366 -0.000834000432748953 -0.000477917391874577 -0.00027792432051324 -0.000617598088594372 -0.000676073912508984 0.000129470439220249 -0.000857419675540765 -0.00046913064758817
"129" -0.000350363866568027 5.00424349893303e-05 5.23623238986444e-05 -0.000147755787879716 5.12894799030151e-05 -0.000168507449059733 0.000144912376105952 -0.000277594035348683 -0.00091675284139692 -0.000484365823979813 -0.000282769331012564 -0.000616405712575864 -0.000682400490954655 0.000140921847705125 -0.000866458921037096 -0.00046999606698549
"130" -0.000349925188365286 5.55285990479971e-05 5.80282732352497e-05 -0.000150069742242804 5.58947311756579e-05 -0.000173310422938928 0.000156469695729903 -0.000284041592598849 -0.000986160273759178 -0.000490148487226495 -0.000287589133416261 -0.000614571882723261 -0.000688474116332991 0.000151298417073362 -0.000875207892316195 -0.000470611583621707
"131" -0.000348503548797745 6.10805196314436e-05 6.38325504041515e-05 -0.000152393107705583 6.05743254586868e-05 -0.000177768047885442 0.000168431317734388 -0.000289855587102319 -0.00104156561943113 -0.000495303578432219 -0.000292353134820682 -0.000612150790600881 -0.000694264888419054 0.000160528437524423 -0.000883685850829494 -0.000470962345848218
"132" -0.000346171647524623 6.66715090453606e-05 6.97463990230016e-05 -0.000154703019714615 6.53126522096969e-05 -0.0001818597064511 0.000180728616519456 -0.000295036613733372 -0.00108249909017697 -0.00049987480555086 -0.000297037671996485 -0.000609206725116335 -0.000699736448518187 0.000168537803582718 -0.000891907754323775 -0.000471038552666288
"133" -0.000343003566934203 7.22753980565076e-05 7.5742374022787e-05 -0.000156968608443892 7.00900128224715e-05 -0.000185568756237745 0.000193294271822812 -0.000299587823770874 -0.00110869678595765 -0.000503890017710655 -0.000301609439643139 -0.000605786487310163 -0.000704851952529242 0.000175261090209209 -0.000899876902626009 -0.000470822182592319
"134" -0.000339073547149388 7.7864756712431e-05 8.17935799569683e-05 -0.000159166253380498 7.48850028197939e-05 -0.000188876564673608 0.00020605147622948 -0.000303523968374379 -0.00112009869402734 -0.000507402869228799 -0.000306043924477954 -0.000601957603625187 -0.000709587466660114 0.000180641752162014 -0.00090760665385336 -0.000470310645826006
"135" -0.000334462261180028 8.34086378009436e-05 8.78715914511089e-05 -0.000161260829585857 7.96803985973052e-05 -0.00019177515289732 0.000218930963928392 -0.000306861508712651 -0.0011168395554654 -0.000510446832843461 -0.000310313261018222 -0.000597773671643026 -0.000713907059002279 0.000184625606066931 -0.000915094938861205 -0.000469492719333566
"136" -0.000329248854158132 8.88846934267444e-05 9.39558943130678e-05 -0.000163224956698676 8.44593587276428e-05 -0.00019425532208417 0.00023185288566513 -0.000309615491747462 -0.00109924608666184 -0.000513064135873419 -0.000314393336484389 -0.000593287948334111 -0.000717785907519576 0.00018717863459373 -0.000922347902482822 -0.000468361590146289
"137" -0.000323518389980629 9.42651400424073e-05 0.000100015143236257 -0.000165023941214686 8.92026086332496e-05 -0.000196309269030563 0.000244742520615971 -0.000311810632462714 -0.00106782532864398 -0.000515293362128276 -0.00031825824409773 -0.000588556217691134 -0.000721194069462815 0.000188274404456763 -0.000929358269299265 -0.000466912969365958
"138" -0.000317356995544157 9.95203929377063e-05 0.000106025683710826 -0.000166627731360479 9.3892082153219e-05 -0.000197939455031588 0.000257524767891453 -0.000313474112743223 -0.00102325698844855 -0.000517177683327777 -0.000321889209069909 -0.000583633758951803 -0.000724114549601663 0.000187885369108119 -0.000936127644884657 -0.000465146600055098
"139" -0.000310840563462649 0.000104633787672533 0.000111966222837795 -0.000168000912999234 9.85134359115584e-05 -0.000199144775385559 0.000270123461721863 -0.000314632913529095 -0.000966361547069287 -0.000518749527302525 -0.000325263263103854 -0.000578562649098953 -0.000726520242924969 0.00018600557469155 -0.000942644688945694 -0.000463060325529948
"140" -0.000304055747947406 0.000109579365217778 0.000117814292139353 -0.000169112523401435 0.000103047085774908 -0.000199931519973489 0.000282465931374229 -0.00031532096240593 -0.000898087361859797 -0.000520050226014966 -0.0003283666640909 -0.000573394220322132 -0.00072840189265793 0.000182646017148708 -0.000948903962373558 -0.0004606593510277
"141" -0.000297080919180351 0.000114335507808037 0.000123550079311324 -0.000169933777484748 0.000107479561332743 -0.000200307997917125 0.000294480655385705 -0.000315567370405388 -0.000819502700264651 -0.000521111363104588 -0.000331183289008374 -0.000568175754048108 -0.000729744807317032 0.000177813068720938 -0.000954894477381526 -0.000457948850581642
"142" -0.000289993697168592 0.000118887332193021 0.000129155179567367 -0.000170434663095817 0.000111797743070845 -0.000200285969071987 0.00030609725682759 -0.000315413687705709 -0.000731756944661811 -0.000521964750514731 -0.000333699294503154 -0.000562943558775204 -0.000730539662660845 0.00017153838576701 -0.00096060230819316 -0.000454934317679816
"143" -0.000282865152810042 0.000123213577666653 0.000134612928603609 -0.000170588016225417 0.000115984590483194 -0.00019988068273908 0.000317258004501389 -0.000314891073033866 -0.000636066490599053 -0.000522640984601239 -0.000335909113575685 -0.000557738329447042 -0.000730783920311813 0.000163857955564291 -0.000966020145546883 -0.000451629774789104
"144" -0.00027576075348234 0.000127309498490236 0.000139912184734395 -0.000170372918107172 0.000120032172927977 -0.000199108473802021 0.000327898376177257 -0.000314033957384035 -0.00053369851035029 -0.000523162566135124 -0.000337802465096573 -0.000552588472160617 -0.000730474982628726 0.000154823232483451 -0.000971128486469519 -0.000448044116316966
"145" -0.000268756062676235 0.000131156023737593 0.000145038496458122 -0.000169765597890249 0.000123923556469602 -0.000197990931963197 0.000337963788220951 -0.000312884931499099 -0.000425941255406058 -0.000523558530446014 -0.000339380058820797 -0.00054753068028205 -0.000729620644916689 0.000144493281708939 -0.000975920103631934 -0.000444195897632015
"146" -0.000261897665943298 0.000134754014715573 0.000149989558325264 -0.00016874754218059 0.000127654832405047 -0.000196546699618831 0.000347408798210466 -0.000311471385504041 -0.000314100684265209 -0.000523840284889766 -0.000340636644301916 -0.000542578988634214 -0.000728221750418392 0.00013294130821009 -0.000980371497440133 -0.000440100963779318
"147" -0.000255244221362431 0.000138093514911897 0.000154751990898754 -0.000167306486018136 0.000131210128788227 -0.000194804923083475 0.000356185780561945 -0.000309835139292613 -0.000199473424348691 -0.000524031649165089 -0.000341578660149215 -0.000537764889482317 -0.000726299421269578 0.000120246131021664 -0.000984476567342453 -0.000435778905227625
"148" -0.000248840543558211 0.000141179056840238 0.000159329108398754 -0.000165427822124354 0.000134588892738118 -0.000192789639925557 0.000364260989472148 -0.00030800371218673 -8.33292247315729e-05 -0.000524141648671599 -0.000342208928527094 -0.00053309496874122 -0.000723863061735054 0.000106502760288428 -0.000988216269733688 -0.000431251610367881
"149" -0.000242724703329601 0.000144011187781853 0.000163717842225812 -0.000163110582042846 0.000137775847213899 -0.00019052744976073 0.000371602527308019 -0.000306015540863225 3.30966852125439e-05 -0.000524181090560893 -0.00034253813384603 -0.00052858704759939 -0.000720937578833295 9.18054665894345e-05 -0.000991578707662928 -0.000426543198630176
"150" -0.000236929289835659 0.000146596668820369 0.000167920161008838 -0.000160346270389496 0.00014077415587626 -0.000188048617493955 0.000378191977229243 -0.000303893815183806 0.000148601181847434 -0.000524152059850706 -0.000342572410617528 -0.000524245146083845 -0.00071754256110668 7.62651223433968e-05 -0.000994550298904672 -0.000421674871961211
"151" -0.000231482812149697 0.000148947059262902 0.000171938217612813 -0.000157142167202865 0.000143573947217853 -0.00018537992596408 0.000384009361210775 -0.00030166580981144 0.000262053895188373 -0.00052405733541437 -0.000342324900701326 -0.000520072382174059 -0.000713707053004587 5.99942260761517e-05 -0.000997118406962275 -0.000416675917634931
"152" -0.000226397307235768 0.000151076003436371 0.000175785578556047 -0.000153496929943734 0.000146175561874401 -0.000182552834082549 0.000389050554502629 -0.000299357020807767 0.00037237903943401 -0.000523891944431577 -0.000341809861078021 -0.000516061733379567 -0.000709458160950594 4.31138562057081e-05 -0.000999271250340922 -0.000411566237739724
"153" -0.000221685133478445 0.000152999812281758 0.000179467856609 -0.00014942554926815 0.000148577618533253 -0.000179595414812873 0.00039331032089453 -0.000296983110600617 0.000478570165908932 -0.000523650236099422 -0.000341042126881501 -0.000512208641429937 -0.000704827844238433 2.57432538369597e-05 -0.00100099591693687 -0.000406376943173688
"154" -0.000217352724692896 0.000154738632160792 0.0001830010137345 -0.000144937593741562 0.000150777868889117 -0.000176536714575527 0.000396798768768135 -0.0002945663271013 0.000579698601397457 -0.000523320815491061 -0.000340040841780302 -0.000508500308589423 -0.000699849311629354 8.01345407192266e-06 -0.00100228896975562 -0.000401132366645309
"155" -0.00021338822221655 0.000156313992099486 0.000186395978260296 -0.000140052486330143 0.00015278307850711 -0.000173407421508601 0.000399529820133662 -0.000292119497207371 0.000674918242172628 -0.000522887967877168 -0.000338824595449718 -0.000504920177132239 -0.000694559020190701 -9.94845454898847e-06 -0.00100313696101517 -0.000395857671536233
"156" -0.000209786740939501 0.00015775552432996 0.000189668208486893 -0.000134794051701768 0.000154591154637235 -0.000170231230999777 0.000401521934555071 -0.000289645851143968 0.000763461962739878 -0.000522329591151951 -0.000337406812792977 -0.000501447652750382 -0.000688989780199087 -2.80111624635187e-05 -0.00100353349566572 -0.000390577075752916
"157" -0.000206522145516981 0.000159087454630906 0.000192840526127566 -0.000129181449271293 0.000156211177414473 -0.000167034008739349 0.00040280584145659 -0.000287157383289339 0.000844641556510984 -0.000521621901500818 -0.000335807026497884 -0.000498052657868896 -0.0006831754955838 -4.60451270517692e-05 -0.00100347050152838 -0.000385311318643718
"158" -0.000203575600823641 0.000160342132602032 0.000195929157499426 -0.00012324299142699 0.000157645523248896 -0.000163841280282157 0.000403413010103497 -0.000284653449100623 0.00091786467518883 -0.000520739916387209 -0.000334044460243401 -0.000494707916871925 -0.000677153535250379 -6.39197360877444e-05 -0.00100294209809056 -0.00038008174630333
"159" -0.000200911674495907 0.000161550945040779 0.000198953148679093 -0.000117013306710442 0.000158902748448888 -0.000160676028702276 0.000403387550819442 -0.000282129263906957 0.000982622222128705 -0.000519649548215207 -0.000332134387838754 -0.000491380954335042 -0.000670954140597669 -8.15095262172987e-05 -0.00100194572692788 -0.000374909177599338
"160" -0.000198496397767837 0.000162748974975255 0.000201937638897021 -0.000110525097453441 0.000159987965654 -0.000157554210254761 0.00040276608505292 -0.000279582657799818 0.00103848974384876 -0.000518319202277873 -0.000330094382770002 -0.000488037654075496 -0.000664614144712868 -9.86950834804505e-05 -0.00100047506061858 -0.000369807612172229
"161" -0.000196291705571283 0.000163968352833815 0.000204904056090966 -0.000103812285216154 0.00016091308480915 -0.000154494879511978 0.000401605509691075 -0.000277004087076857 0.00108513758950058 -0.00051670695650205 -0.000327935737713399 -0.000484632829553585 -0.00065815874669774 -0.000115351422085578 -0.000998525853065301 -0.000364789494975408
"162" -0.00019424739328337 0.000165245217365373 0.000207870237964637 -9.69127728228976e-05 0.000161688137121138 -0.000151514516451934 0.000399957260317558 -0.000274381841469021 0.00112231241791312 -0.000514772203879767 -0.000325672244655393 -0.000481127818719573 -0.000651619391061193 -0.000131371168586641 -0.000996097283917306 -0.000359865951405527
"163" -0.000192316098386065 0.000166613431557666 0.000210862740430092 -8.98643249322108e-05 0.00016232156680003 -0.000148623041414425 0.000397875794816727 -0.00027169762908538 0.00114985525479325 -0.000512472505955965 -0.000323311144521582 -0.000477477231158633 -0.000645018142091807 -0.000146648293891118 -0.000993180470348902 -0.000355041646667944
"164" -0.000190447694448921 0.000168108117798658 0.000213900010673346 -8.27116656871435e-05 0.000162825629926336 -0.000145828494896012 0.000395421035822002 -0.000268935423790828 0.00116769269310409 -0.000509756830773541 -0.000320862167459146 -0.000473634457722805 -0.000638372282323725 -0.000161080921536745 -0.000989775107327 -0.000350320742706678
"165" -0.000188585501380148 0.000169761643894094 0.000217005331257833 -7.54864377749776e-05 0.000163213679317289 -0.000143138251119723 0.000392660257402605 -0.000266073466269108 0.00117581853191127 -0.000506574659198628 -0.000318325104075742 -0.000469543647126801 -0.000631698668072943 -0.000174576908919907 -0.000985873363778606 -0.000345696756326075
"166" -0.000186675408296813 0.000171605578864527 0.000220198313114173 -6.82387818949846e-05 0.000163494738272036 -0.000140557175007407 0.000389650023128292 -0.000263094528910322 0.00117431733559496 -0.000502881722026252 -0.000315702855893642 -0.000465165464610163 -0.000625014184939462 -0.000187055844774821 -0.000981476172781524 -0.000341170420807365
"167" -0.000184667533417993 0.000173671746841824 0.000223490337613883 -6.10050780811526e-05 0.000163681843412959 -0.000138085761229397 0.000386452365507786 -0.000259973089384438 0.00116335361991651 -0.000498622343776008 -0.000312995248998048 -0.000460449540689744 -0.000618323154755652 -0.000198443685342612 -0.000976578119760022 -0.000336731336832283
"168" -0.000182501187421765 0.000175985974045806 0.000226906589736548 -5.38216115114428e-05 0.000163789248560444 -0.000135719287320309 0.00038313534046701 -0.000256680642475195 0.00114315381659551 -0.000493739153906069 -0.000310187802906422 -0.000455336707679515 -0.000611621974038483 -0.000208676116180133 -0.000971166576285781 -0.000332360440684859
"169" -0.000180124837575524 0.000178572987399568 0.000230455180862567 -4.67329902262637e-05 0.000163828395108942 -0.000133454938335095 0.00037975427883935 -0.000253202001889782 0.00111402345823933 -0.000488178934384119 -0.000307276326594224 -0.000449786718862603 -0.000604913924907754 -0.000217696838564492 -0.000965243472158726 -0.000328047665864019
"170" -0.000177486862808976 0.000181456268125102 0.000234150829652546 -3.97772050411391e-05 0.000163810154241459 -0.000131286120100928 0.000376374245255762 -0.000249506064507631 0.00107633254378438 -0.000481888634643952 -0.000304243715520707 -0.000443740827053648 -0.000598187142663863 -0.000225460867862628 -0.000958793667020541 -0.00032376495553681
"171" -0.000174532591952374 0.000184653719296193 0.000238001760465914 -3.29840383928007e-05 0.000163747808503588 -0.000129202709944645 0.000373049076908035 -0.000245567544776548 0.00103052488745756 -0.000474809796623758 -0.000301069871984577 -0.000437157148712888 -0.000591428497184532 -0.00023193804445948 -0.000951810495054944 -0.000319489975601059
"172" -0.000171223857837971 0.000188173426316609 0.000242014493439973 -2.63950921233788e-05 0.00016365017917193 -0.00012719426830379 0.000369830568139798 -0.000241371217805217 0.000977092179332448 -0.000466889554101182 -0.000297736999920465 -0.000429988204976799 -0.000584622162065849 -0.000237097495383678 -0.000944286468132016 -0.000315195971597061
"173" -0.000167512282308488 0.000192032965499276 0.000246194918399122 -2.00367049321644e-05 0.000163529086976459 -0.000125247442888534 0.000366774058277626 -0.000236894338273535 0.000916591244294822 -0.000458073913913044 -0.000294219462143812 -0.00042218984089485 -0.000577739128615525 -0.000240929239193656 -0.000936207764600697 -0.00031084800308577
"174" -0.000163361789520617 0.00019623238876769 0.000250541018115211 -1.39411955860968e-05 0.000163392758407148 -0.000123348537199438 0.000363921066582447 -0.000232117501188193 0.000849625962469484 -0.000448313407434284 -0.000290485222987832 -0.000413720213305173 -0.000570753717387821 -0.000243426091075261 -0.000927564813098684 -0.000306415541618694
"175" -0.000158740311362075 0.000200773415033468 0.000255052809949148 -8.13255845824473e-06 0.000163250311386019 -0.000121483198775425 0.000361315625141003 -0.000227022594684824 0.000776855445253219 -0.000437557559226331 -0.000286504581919909 -0.000404539006235973 -0.000563630283885019 -0.00024459235941635 -0.000918340087019071 -0.000301859785789181
"176" -0.000153619513391157 0.000205650093520475 0.000259722528429341 -2.63367215950054e-06 0.000163110789467999 -0.000119634253031167 0.000358988606817703 -0.000221599049012052 0.000698980329996098 -0.000425760540602607 -0.000282240577877496 -0.00039461703916753 -0.000556335564770175 -0.000244442860211794 -0.000908522606489999 -0.000297145051234038
"177" -0.000147977604745478 0.000210852766263852 0.000264541460034215 2.53006861420134e-06 0.000162977550810302 -0.000117787518842873 0.000356972198847643 -0.000215841965732696 0.000616738629892762 -0.000412876649880261 -0.000277658750706945 -0.000383920861408893 -0.000548827370470931 -0.000243000169375469 -0.0008980986466393 -0.000292231062128272
"178" -0.000141797103429328 0.000216368527210547 0.00026950010052458 7.34726037669519e-06 0.000162857720587809 -0.000115925828889524 0.00035529235358059 -0.000209739313748704 0.000530901023214285 -0.000398867309890725 -0.000272719286033893 -0.000372420037657654 -0.000541059803211816 -0.000240296708698099 -0.000887047357591683 -0.000287072854810479
"179" -0.000135074468026223 0.000222173895340278 0.000274580653102229 1.17976211405083e-05 0.000162750557413291 -0.0001140330924471 0.000353965310420571 -0.000203298347283889 0.000442274386621481 -0.000383707401885272 -0.000267383428787283 -0.000360105398208135 -0.000532990801686731 -0.000236371117269628 -0.000875361206638419 -0.000281639594000192
"180" -0.000127802403963413 0.000228247481785315 0.000279768083067709 1.58772702600906e-05 0.000162664342043099 -0.000112095651933701 0.000353001531025644 -0.000196513817523808 0.000351688415887874 -0.000367355160439423 -0.000261606578636526 -0.000346951257399991 -0.000524569781658164 -0.000231265242406336 -0.000863018317507957 -0.000275883010221712
"181" -0.000119987930836259 0.000234558819852949 0.000285041066784761 1.95736857449265e-05 0.000162594718306918 -0.000110098599130436 0.00035240724764256 -0.000189401536860911 0.000259992070945239 -0.000349796907677385 -0.000255347853377539 -0.000332954484055442 -0.00051574780947179 -0.000225034503310752 -0.000850008600960828 -0.000269769533516987
"182" -0.0001116454271094 0.000241074439535007 0.000290375980256718 2.2886895629841e-05 0.000162541818539214 -0.000108029942239878 0.00035218157192737 -0.000181972243749987 0.000168042498184735 -0.000331011708221905 -0.000248569136366001 -0.000318110603711817 -0.000506476287771012 -0.000217737275915726 -0.000836318160850198 -0.000263259091587496
"183" -0.000102789866117375 0.000247753519845754 0.00029574548344351 2.58153404990121e-05 0.000162503710296978 -0.000105877826078537 0.000352318260282244 -0.000174242338129005 7.67068222889795e-05 -0.000310992813058057 -0.000241224036259614 -0.0003024231008041 -0.000496708130630457 -0.000209432506864161 -0.000821929450562198 -0.000256315968868214
"184" -9.34471216586221e-05 0.000254555719344442 0.000301126727081631 2.83588635822281e-05 0.000162477702304967 -0.000103634839326548 0.000352801256415333 -0.000166238538152406 -1.3140617363471e-05 -0.000289739146728945 -0.000233279190573194 -0.000285905895289139 -0.000486396054054608 -0.00020019489147094 -0.000806837073440826 -0.000248909749765292
"185" -8.36526483430057e-05 0.00026143282190235 0.000306484334340134 3.05275491871004e-05 0.000162455033356747 -0.000101295595755701 0.000353612092735139 -0.000157986598099227 -0.000100637462336276 -0.000267257804658734 -0.0002246957366244 -0.000268575806184222 -0.000475493733039111 -0.000190088954585152 -0.000791031282916492 -0.000241014400671511
"186" -7.34440294896709e-05 0.000268338814508509 0.000311793678818688 3.23260763102367e-05 0.000162430041558418 -9.88532212380413e-05 0.000354727889510694 -0.000149524771069008 -0.000184934751790234 -0.000243567342480436 -0.000215439264245576 -0.000250463652014784 -0.000463963431764972 -0.000179193350289003 -0.000774506373544647 -0.000232601342071188
"187" -6.28667375946565e-05 0.000275217915156983 0.000317018991947127 3.3768550796126e-05 0.000162395124615183 -9.63081434652066e-05 0.000356117832903172 -0.000140885991076533 -0.000265201239071952 -0.000218692709647724 -0.000205483312669127 -0.000231601702595892 -0.00045176473316495 -0.000167582784867025 -0.000757261503722769 -0.000223653538742061
"188" -5.19691597453581e-05 0.000282021992875286 0.000322129096773718 3.48697609219036e-05 0.000162344799905392 -9.36605366769416e-05 0.000357748465749995 -0.000132114636313564 -0.000340635870987032 -0.000192665775324993 -0.000194795665102906 -0.000212027960132212 -0.000438861728055491 -0.000155334601673078 -0.000739293923739474 -0.000214153861413109
"189" -4.0812947708524e-05 0.000288691854238812 0.000327089923604467 3.56468098641604e-05 0.000162260973234336 -9.0917215192111e-05 0.000359575225566351 -0.000123261226350295 -0.000410480038749476 -0.000165543615006754 -0.000183361326050773 -0.000191804552099953 -0.00042523449943062 -0.000142530528744513 -0.00072061635691279 -0.000204098584463942
"190" -2.94559643461749e-05 0.000295171012091437 0.000331872694410879 3.61170783467158e-05 0.000162138754899506 -8.80842891940102e-05 0.000361560496394669 -0.000114374904828003 -0.000474022154024355 -0.00013737769645667 -0.000171161097782159 -0.00017098739181669 -0.000410858483033892 -0.000129246173884028 -0.000701234741119696 -0.000193481669001508
"191" -1.79652237540214e-05 0.000301409218701342 0.000336439517001869 3.63036714708336e-05 0.000161962808328562 -8.51704066093969e-05 0.000363660271749023 -0.000105510205417998 -0.000530599448932338 -0.00010824013479378 -0.000158187738894885 -0.00014964161770993 -0.000395719010450651 -0.000115559766086644 -0.000681162575200302 -0.000182306741746014
"192" -6.41134953113296e-06 0.000307344557966646 0.000340765883985589 3.6230637446431e-05 0.000161720743999284 -8.21917825121976e-05 0.000365823885272031 -9.6722215534948e-05 -0.000579618228909595 -7.82076229499257e-05 -0.000144439829181467 -0.00012784744712307 -0.000379810932622154 -0.000101551262434155 -0.000660425776814666 -0.000170585663710679
"193" 5.13097950984154e-06 0.000312926899407383 0.000344816441827114 3.59200203713274e-05 0.000161398510855173 -7.91664257566231e-05 0.000367998535952053 -8.80794996514997e-05 -0.00062056744974688 -4.73822994789595e-05 -0.000129924464591604 -0.000105695334646277 -0.000363139357707416 -8.72943418146543e-05 -0.000639053203664045 -0.000158340124856781
"194" 1.65904880091513e-05 0.000318101927119273 0.000348565964554357 3.5402297748713e-05 0.00016098347649545 -7.61098844327129e-05 0.000370138955087612 -7.96338465060929e-05 -0.000653003925464739 -1.58610110182005e-05 -0.000114647411496816 -8.32720490899582e-05 -0.000345710311006481 -7.28648752877056e-05 -0.000617073176200855 -0.000145590209814531
"195" 2.78871216694489e-05 0.000322823303131622 0.00035198639438486 3.47008376422966e-05 0.000160461536415149 -7.30484077910152e-05 0.000372188960708658 -7.14607706982994e-05 -0.000676581413773917 1.62335686908515e-05 -9.86373588766977e-05 -6.06874740742053e-05 -0.000327554181364102 -5.83366371252007e-05 -0.000594531608715097 -0.000132373919638555
"196" 3.8939411034066e-05 0.000327041516372389 0.00035505750723812 3.38487048497308e-05 0.00015981982910563 -7.00038084103473e-05 0.000374098211472389 -6.36160880474707e-05 -0.00069105113546472 4.87763142732264e-05 -8.19222029217624e-05 -3.8043729025028e-05 -0.000308692254301141 -4.37732720026156e-05 -0.000571473327098642 -0.000118729849566554
"197" 4.96725469902842e-05 0.000330715772462356 0.000357758984299499 3.28743686441672e-05 0.00015904357821725 -6.70034508476149e-05 0.000375818734332228 -5.61658242135158e-05 -0.00069626230182959 8.16293479410939e-05 -6.45362322178829e-05 -1.54565856023008e-05 -0.000289166832535538 -2.9243817782707e-05 -0.000547951520976296 -0.000104707344091187
"198" 6.00014570177648e-05 0.000333811740652305 0.000360071734135918 3.18085694074111e-05 0.000158121237120148 -6.40796255082453e-05 0.000377296011367604 -4.91780903519209e-05 -0.000692179499345781 0.000114640015543841 -4.652918350839e-05 6.94721747784758e-06 -0.000269028859508019 -1.4808354853854e-05 -0.000524032229162194 -9.03613838384657e-05
"199" 6.98566329680825e-05 0.000336295691312375 0.000361980867586926 3.06773999481073e-05 0.000157039620440808 -6.12599739241136e-05 0.000378487309381106 -4.27117924611303e-05 -0.000678875801296988 0.000147649085429779 -2.79582780147454e-05 2.90416300038889e-05 -0.000248337196547498 -5.30598030986342e-07 -0.000499779633614655 -7.57541975565173e-05
"200" 7.91583033757878e-05 0.000338141573644281 0.000363481558150835 2.95186929570075e-05 0.000155787427456014 -5.85787052973627e-05 0.000379347127906894 -3.68277478642386e-05 -0.000656533201755136 0.000180488055844381 -8.88670357883923e-06 5.06979976390689e-05 -0.000227164596105353 1.35376247998942e-05 -0.000475270226891322 -6.09572216789881e-05
"201" 8.7831528647409e-05 0.000339328982605519 0.000364563780311452 2.83565719670011e-05 0.000154352633492947 -5.60679349305584e-05 0.000379834976909811 -3.15840227136519e-05 -0.000625449993570073 0.000212977791794012 1.06133694212147e-05 7.17777873064406e-05 -0.000205584485644875 2.73455066706063e-05 -0.000450588800791853 -4.60459498764361e-05
"202" 9.58120813680332e-05 0.000339846124453911 0.000365227548871319 2.72227121408129e-05 0.000152730402678916 -5.37612909395688e-05 0.000379912757664885 -2.70348147842771e-05 -0.000586038230189506 0.000244940235673885 3.04580254931599e-05 9.21506642636249e-05 -0.000183684965954428 4.08385908349338e-05 -0.000425820614800533 -3.10983931451549e-05
"203" 0.000103028894563489 0.000339686050824744 0.000365471691633576 2.61490215373385e-05 0.00015091026459 -5.16936532175052e-05 0.000379548584142044 -2.32328370832496e-05 -0.000538807881358312 0.000276178323924345 5.05592164103858e-05 0.000111668265696647 -0.000161565834993838 5.3979789515357e-05 -0.000401062989933582 -1.62053636556322e-05
"204" 0.000109426453145959 0.000338851574050497 0.00036531052598742 2.51660625075987e-05 0.000148885317827991 -4.98973662856733e-05 0.000378717220732775 -2.02166330159992e-05 -0.000484374803412399 0.000306503078225683 7.08203749748916e-05 0.000130204548688905 -0.000139323752279616 6.67224045685382e-05 -0.000376411226547676 -1.45348504755606e-06
"205" 0.000114947747936559 0.000337348225845634 0.000364749160650944 2.42966472507352e-05 0.000146655748646696 -4.84074656309117e-05 0.000377391990168033 -1.8029755094953e-05 -0.000423442490091353 0.000335715130926476 9.11357954280372e-05 0.000147615566067391 -0.000117071772342923 7.9033029160549e-05 -0.000351976881857646 1.30588876102762e-05
"206" 0.000119542993974048 0.00033519213792693 0.000363804893138704 2.35705127814778e-05 0.000144215266373359 -4.72550323998694e-05 0.000375559807599321 -1.67032126935507e-05 -0.000356798814789368 0.000363622919755476 0.000111397432893438 0.000163773247185744 -9.49261799926599e-05 9.08750452536118e-05 -0.000327862436399386 2.72390429769572e-05
"207" 0.000123170850990862 0.000332410302215868 0.000362496360632673 2.30125479955704e-05 0.000141561920942061 -4.64686760016428e-05 0.000373205285988753 -1.62688334328727e-05 -0.000285300290250782 0.000390024002594577 0.000131489714069035 0.000178544252516161 -7.30041726449033e-05 0.000102217232240669 -0.000304183389213202 4.09866996786798e-05
"208" 0.000125795877227541 0.00032902983779802 0.000360847264315134 2.26484331465735e-05 0.000138703697028849 -4.60767092221902e-05 0.000370325038349925 -1.67417885773312e-05 -0.000209860106056002 0.000414728279125958 0.000151296591907419 0.000191813255159498 -5.14289096904663e-05 0.000113033672683163 -0.000281052937796573 5.42031809104926e-05
"209" 0.000127392060455882 0.000325090224651274 0.000358882629227089 2.25001613634945e-05 0.000135637284670287 -4.61060312960141e-05 0.000366919512666614 -1.81331023407599e-05 -0.000131438403787022 0.000437549838497802 0.000170693549559385 0.000203463810183402 -3.03226105892638e-05 0.000123299755351694 -0.000258585060123113 6.67931838261457e-05
"210" 0.000127935809224401 0.00032063128185922 0.000356637146487712 2.25871405127131e-05 0.000132372959796113 -4.65785737674076e-05 0.000362991499807997 -2.04514875226097e-05 -5.10190704696427e-05 0.000458304277884113 0.000189553127972648 0.000213388610316803 -9.81814857107435e-06 0.0001329864931333 -0.000236900596841043 7.86537124523248e-05
"211" 0.000127418423846917 0.000315705446071931 0.000354141034108502 2.2933051757237e-05 0.000128915735997044 -4.75127863180926e-05 0.000358556210609598 -2.36913119137834e-05 3.03908291863646e-05 0.000476821906567186 0.000207753063528749 0.000221495366621242 9.96357662351204e-06 0.00014208447013216 -0.000216110962144858 8.96968941860098e-05
"212" 0.000125830321149857 0.000310368619735824 0.000351429864661767 2.35525390755276e-05 0.000125276360780607 -4.89243743288956e-05 0.000353629073643463 -2.7843783002455e-05 0.000111790571462043 0.000492944534907236 0.000225169082214818 0.000227700336885677 2.89011484302521e-05 0.000150565268433825 -0.000196331776560278 9.98301425523755e-05
"213" 0.000123181444837103 0.000304678106760035 0.00034854632685364 2.44579409446377e-05 0.000121465785809738 -5.08258762202651e-05 0.000348230484808289 -3.28862185417079e-05 0.000192187434541437 0.000506517989291461 0.000241673195914915 0.000231931263879631 4.68718133880918e-05 0.000158416300001941 -0.000177671309789237 0.000108968538098561
"214" 0.000119481712498367 0.00029870279544728 0.000345524243204675 2.56666061770212e-05 0.000117498781535461 -5.32257329467182e-05 0.000342391641787205 -3.87948490516461e-05 0.000270620865910583 0.000517417447518589 0.000257149919810968 0.000234137739529904 6.37646970773806e-05 0.000165624029225962 -0.000160236000869189 0.00011703469003437
"215" 0.000114751813789718 0.000292505476311774 0.000342411233802876 2.71866869166055e-05 0.00011339085580706 -5.61232981714257e-05 0.000336142880482599 -4.55347602864989e-05 0.000346164035255437 0.000525524740568537 0.000271483125728562 0.000234275934837292 7.94680241820244e-05 0.000172180657434901 -0.000144127898556032 0.000123954421995028
"216" 0.000109021075729583 0.000286160651441293 0.000339247441708751 2.90278307593255e-05 0.000109158676519106 -5.95210739260591e-05 0.000329519408369094 -5.30647938517895e-05 0.000417944339302399 0.000530741303523575 0.000284555352501766 0.000232322507830117 9.3882808558381e-05 0.00017806582454714 -0.00012943887481864 0.000129666485315851
"217" 0.000102322637398882 0.00027973802765796 0.000336075716940523 3.11926872161219e-05 0.000104818773285652 -6.34114222715362e-05 0.000322558176553104 -6.13305009778304e-05 0.000485150941715848 0.000532989680116671 0.000296267274681186 0.000228267176890075 0.000106917356415098 0.000183277098625215 -0.000116254323497711 0.000134114953997502
"218" 9.47017228182791e-05 0.000273315514813081 0.000332939439728801 3.36898108653335e-05 0.000100394123968641 -6.7782140793693e-05 0.000315306654878806 -7.02784206633902e-05 0.000547045783178118 0.000532221958164955 0.000306524711914489 0.000222126651473877 0.000118497142474449 0.000187806405438442 -0.000104652337924913 0.000137256943743998
"219" 8.62076855125669e-05 0.000266962583406888 0.000329879606873579 3.6513347795721e-05 9.59028169905661e-05 -7.26205080409142e-05 0.000307808251842347 -7.98491912226515e-05 0.000602961021563583 0.000528395151482968 0.000315235010813939 0.000213923430953203 0.000128543799287061 0.000191647178993147 -9.46999051156547e-05 0.000139054283379644
"220" 7.689772207936e-05 0.000260751716618848 0.000326941239993638 3.96651890608866e-05 9.13675224865245e-05 -7.79039955234999e-05 0.00030010968277943 -8.99713248891892e-05 0.00065231347355271 0.00052150424009432 0.00032232433989699 0.000203700680409374 0.000137005860774465 0.000194796186200815 -8.64538061430876e-05 0.000139487429014289
"221" 6.68352458973829e-05 0.000254756340472987 0.000324157315670892 4.31385228734566e-05 8.68110257531711e-05 -8.36071142334071e-05 0.000292263283436804 -0.000100571540813535 0.000694611364315723 0.000511562164781565 0.000327725415286173 0.00019152503438484 0.000143838055290281 0.000197250270890387 -7.99555968855179e-05 0.000138544216974062
"222" 5.6090086709828e-05 0.000249041043876772 0.000321571203567206 4.6925484181534e-05 8.22582889258862e-05 -8.97038472111249e-05 0.000284313302428903 -0.000111575196490711 0.000729447284217608 0.000498605271209892 0.000331385064255418 0.000177474812438162 0.000149013929551344 0.00019900663848695 -7.52368692484945e-05 0.000136225686576164
"223" 4.47332249870216e-05 0.000243674845661356 0.000319214505786732 5.10163765341158e-05 7.77307629234243e-05 -9.6158816239399e-05 0.000276313117505977 -0.00012289679303904 0.000756516037204024 0.00048269653701045 0.000333263801645815 0.000161648831228 0.000152516609903309 0.000200070521439659 -7.23174238683174e-05 0.000132545329599998
"224" 3.28429945735068e-05 0.000238717135153757 0.000317117365301662 5.53999144653744e-05 7.32521924581218e-05 -0.00010293278096905 0.000268311937179358 -0.000134452447010439 0.000775599451345707 0.000463920689975509 0.000333331483128557 0.000144158368483772 0.00015434950434358 0.000200442995391777 -7.12039251322577e-05 0.000127526087514122
"225" 2.05048340023158e-05 0.000234220536773634 0.000315310508629174 6.00530963148112e-05 6.88440758931843e-05 -0.0001099906300748 0.000260357903965557 -0.00014615582930399 0.000786570271296183 0.000442388879617279 0.000331579370347774 0.000125135787059721 0.000154524934216848 0.000200131466379295 -7.18810191229609e-05 0.000121207722842865
"226" 7.79639419319556e-06 0.000230238456953055 0.000313814366316379 6.49583594948479e-05 6.45324350431575e-05 -0.000117283053471793 0.000252495436827049 -0.000157922484405059 0.000789399198291273 0.000418227271096918 0.000328005687107282 0.000104717826991862 0.000153075366257674 0.00019914191722297 -7.43316718046425e-05 0.000113636280226256
"227" -5.19266363997248e-06 0.000226810260925716 0.000312653215977485 7.00953771824789e-05 6.03329984288013e-05 -0.00012476685624124 0.000244769298200815 -0.000169658697143379 0.000784138430592003 0.000391596189135398 0.000322625975947172 8.30693331822129e-05 0.000150048904205566 0.000197488974741804 -7.85146100877142e-05 0.000104877633567904
"228" -1.83750535317827e-05 0.000223974828142559 0.000311835734590138 7.54380379044259e-05 5.62728473083118e-05 -0.000132392451948764 0.000237224752914003 -0.000181280240781285 0.000770921556191898 0.000362661903435395 0.00031547156269539 6.03558241902912e-05 0.00014550601835072 0.000195185489426334 -8.43787814435953e-05 9.5001015527062e-05
"229" -3.16569355865919e-05 0.000221759020170676 0.000311379535831815 8.09584194811608e-05 5.23655377291264e-05 -0.000140108009943517 0.000229898082670847 -0.000192698166742355 0.000749963192666404 0.000331621501703097 0.000306586642216403 3.67588778581731e-05 0.000139521884181903 0.000192249826156807 -9.18571244154054e-05 8.40909487313344e-05
"230" -4.49543148270337e-05 0.000220186704866662 0.000311284660366349 8.66215863059914e-05 4.86339738683536e-05 -0.000147861342750824 0.000222828033098106 -0.000203825456664988 0.000721553732599263 0.00029868989476022 0.000296031892959222 1.24694070206076e-05 0.000132192073559023 0.000188702671503896 -0.000100871662093479 7.22405833561217e-05
"231" -5.81760771888871e-05 0.000219266362964678 0.000311552172248471 9.23984016562102e-05 4.50914972139254e-05 -0.00015559979893413 0.000216043653558758 -0.000214582391033159 0.000686047912268347 0.000264084018504648 0.00028387997972829 -1.2314901342795e-05 0.000123611798785733 0.000184571574409481 -0.000111330192635111 5.95530440747865e-05
"232" -7.12314109909262e-05 0.000219003795112456 0.000312178040670641 9.82482779202845e-05 4.17529930349884e-05 -0.000163271129785209 0.000209571445219812 -0.000224888394033582 0.000643867178170884 0.000228050280390406 0.000270216205221482 -3.73893470466896e-05 0.000113902176677861 0.000179887595260352 -0.000123126533976944 4.61390868998822e-05
"233" -8.40405421204393e-05 0.000219389981918368 0.000313151973768535 0.000104134694977142 3.86315973354327e-05 -0.000170819958715012 0.000203438085693939 -0.000234666038895993 0.000595488352396149 0.000190838427212675 0.000255138564626025 -6.25458271897484e-05 0.000103187924419737 0.000174688271962707 -0.000136146962716448 3.21170282740994e-05
"234" -9.65106703466374e-05 0.000220418206361888 0.000314461573609155 0.000110016972329696 3.57363669274198e-05 -0.000178194145240761 0.000197660867915434 -0.000243848226010077 0.000541431851007449 0.000152716466226461 0.000238761337390854 -8.75651993786843e-05 9.16076787834177e-05 0.000169007701099472 -0.000150261564221908 1.76149411823725e-05
"235" -0.000108571445963629 0.000222056833034377 0.000316080717066045 0.000115847279811486 3.30771969440552e-05 -0.000185342601880922 0.000192253521362704 -0.000252368842117106 0.000482268203101933 0.000113947247908212 0.000221202973696815 -0.000112239604121774 7.92998259923317e-05 0.000162894485085818 -0.000165340957439231 2.75737054727214e-06
"236" -0.00012013802521555 0.000224281772812437 0.000317987589582136 0.000121582701672958 3.06573494350463e-05 -0.000192217055728941 0.000187226173772875 -0.000260167662591231 0.000418600494280961 7.48098826615653e-05 0.000202597341638671 -0.000136353225256432 6.64212497141855e-05 0.000156399941627643 -0.000181237807605107 -1.23163380064814e-05
"237" -0.000131137947617719 0.000227052147245532 0.000320153084029631 0.000127173895717629 2.84823949512965e-05 -0.000198766303209568 0.000182582983766287 -0.000267194962743526 0.000351066407800309 3.55857865500088e-05 0.000183081410603186 -0.000159689540362205 5.31274051460073e-05 0.000149580234974729 -0.000197800172704452 -2.7471169694091e-05
"238" -0.000141503704380768 0.000230316367614925 0.000322540994757329 0.000132570255893595 2.65512780547319e-05 -0.00020494792827527 0.000178326133801751 -0.000273400252764105 0.000280317122623529 -3.4477897072877e-06 0.000162805086814934 -0.000182040590553829 3.95803900414216e-05 0.000142490752847817 -0.000214872234180745 -4.25655487529002e-05
"239" -0.000151170318680922 0.000234024290337838 0.000325118103387341 0.000137727494353283 2.48649020163251e-05 -0.000210718852554923 0.000174451872271297 -0.000278750026540079 0.000207042787875155 -4.2004490770791e-05 0.000141924838124394 -0.000203201010210561 2.59464844198535e-05 0.000135205065369133 -0.000232294135509701 -5.74600330190881e-05
"240" -0.000160080404820999 0.000238110696121567 0.000327836755237224 0.000142587470864207 2.34178841033036e-05 -0.000216040348815806 0.000170950919492234 -0.000283210573068017 0.000131920097462741 -7.98130510771111e-05 0.000120594917889116 -0.00022297188652906 1.23881202570707e-05 0.000127791690688647 -0.00024990070527058 -7.20128730959069e-05
"241" -0.000168181271038681 0.000242509356636192 0.000330658473208502 0.000147100553656346 2.2200954763307e-05 -0.000220879543527196 0.000167808684841068 -0.000286759363048439 5.56466675251148e-05 -0.000116599490405907 9.89780298719707e-05 -0.000241167263783326 -9.32697090521556e-07 0.000120323849147882 -0.00026753006965181 -8.60907173048017e-05
"242" -0.000175427669552495 0.000247142438160113 0.000333534199471491 0.000151216478750463 2.12108472005645e-05 -0.000225202487541062 0.000165014262111126 -0.000289384514424229 -2.10766884883572e-05 -0.000152099882297188 7.72404093836124e-05 -0.000257600410540734 -1.3851355466033e-05 0.000112882919907862 -0.00028501505713789 -9.95539722024464e-05
"243" -0.000181775820797808 0.000251934872687613 0.000336413442340341 0.000154877156257761 2.0433271697711e-05 -0.000228985741635502 0.000162545479443819 -0.000291074774990112 -9.75694664391421e-05 -0.00018605864539357 5.55471544122897e-05 -0.000272107673064733 -2.62144583020745e-05 0.000105551571164092 -0.000302194680143014 -0.000112274569557537
"244" -0.000187190998310417 0.000256800383977605 0.000339246467237574 0.000158036402758639 1.98579789295167e-05 -0.000232206595181467 0.000160380524610466 -0.000291833704624327 -0.000173140169416912 -0.000218230957008443 3.40628291522716e-05 -0.0002845268013522 -3.78652232017584e-05 9.84133702111137e-05 -0.000318903810189585 -0.000124121505579496
"245" -0.00019164830679489 0.00026165668358552 0.000341983634042027 0.000160639695977767 1.94664085858776e-05 -0.000234848531595242 0.00015849633826591 -0.000291674160099988 -0.000247123935183143 -0.000248384193250243 1.29481894477887e-05 -0.000294715574007403 -4.86642053271049e-05 9.15588829475515e-05 -0.000334991063181099 -0.000134980511296625
"246" -0.000195127033002266 0.000266412544879642 0.000344571398204736 0.000162639113347859 1.92465773215253e-05 -0.000236902059938516 0.000156863889241108 -0.000290609899652648 -0.000318866885883505 -0.000276308017006446 -7.63679717945991e-06 -0.000302551845681883 -5.84757842752266e-05 8.50763975614837e-05 -0.000350305857946924 -0.000144735908465581
"247" -0.000197613811801246 0.000270976129764762 0.000346959467288648 0.000163987206703603 1.91755529024114e-05 -0.000238360146574703 0.000155456438417514 -0.000288670569296987 -0.00038773529758275 -0.000301801094258149 -2.75401647190447e-05 -0.000307922418567007 -6.717604533511e-05 7.90568017910409e-05 -0.00036470757578045 -0.000153285279176124
"248" -0.00019909889477377 0.000275268022029568 0.000349098350435468 0.000164643082306897 1.92397817784461e-05 -0.000239218581764695 0.000154250280156622 -0.000285887991764172 -0.000453133746090076 -0.000324674457172689 -4.66084931857505e-05 -0.000310724765317592 -7.46452789272064e-05 7.35932347773155e-05 -0.000378054227020765 -0.000160529116382755
"249" -0.000199586036856881 0.000279189633964154 0.000350938511862664 0.000164557233813438 1.94170762142163e-05 -0.000239485493927141 0.000153208402055995 -0.000282300545875343 -0.000514479308767343 -0.000344772258944968 -6.47068630560521e-05 -0.000310895411345861 -8.07884233803799e-05 6.87692311979169e-05 -0.000390228396052688 -0.000166383947908556
"250" -0.00019908183781214 0.000282665308595929 0.000352434088540375 0.000163695845435779 1.96836712771681e-05 -0.000239168212720255 0.000152307009882667 -0.000277956710234143 -0.000571242667818065 -0.00036195454610183 -8.17024311370987e-05 -0.000308371087136766 -8.55180252580041e-05 6.46727366513246e-05 -0.000401111051641522 -0.000170775562092605
"251" -0.000197597632188895 0.000285607969746031 0.000353544421548119 0.00016202696052213 2.00207032072177e-05 -0.000238281412282767 0.000151511546843054 -0.000272912428111982 -0.000622915940769371 -0.000376101387372615 -9.74668585429376e-05 -0.000303119543784952 -8.87600314257211e-05 6.13899235814952e-05 -0.000410602779119715 -0.000173636555010307
"252" -0.000195152301176887 0.000287940971859456 0.000354231158897116 0.000159519536235387 2.04093419860561e-05 -0.000236844246868361 0.000150802368550695 -0.000267223923914005 -0.000669044951224609 -0.000387114313527801 -0.000111892860974824 -0.000295124064222653 -9.04578228562765e-05 5.89999732667882e-05 -0.000418613465030809 -0.000174918149818925
"253" -0.000191774240286038 0.000289593989649607 0.000354454858179292 0.000156145183432356 2.08238759024346e-05 -0.000234880762864912 0.000150147999136128 -0.000260958788928688 -0.000709222366275218 -0.000394921717623767 -0.000124878508332679 -0.000284395621227337 -9.05707549254905e-05 5.75758822962362e-05 -0.000425063930781012 -0.000174576935749552
"254" -0.000187497447309573 0.000290501838131862 0.000354189133673286 0.000151889261724889 2.12450863218253e-05 -0.00023242120503754 0.000149528712386902 -0.000254185109768785 -0.000743077180831865 -0.000399478821052008 -0.000136333680309781 -0.000270957789623759 -8.90763153890552e-05 5.71888121540685e-05 -0.00042989192505801 -0.000172587414179441
"255" -0.000182356549671398 0.000290607363290785 0.000353406359456976 0.000146735318548219 2.16526888550316e-05 -0.00022949679658131 0.000148917004459224 -0.000246980259767437 -0.000770305538156676 -0.000400766457611645 -0.000146183292370296 -0.000254869904321507 -8.59687095641094e-05 5.78967984112415e-05 -0.000433050424887574 -0.000168933879178117
"256" -0.000176395101742268 0.000289859804203156 0.000352090860499894 0.00014068097004008 2.20282819625339e-05 -0.000226143581630881 0.000148302052533761 -0.000239413667353092 -0.000790652791361832 -0.000398784864898813 -0.00015436659458732 -0.000236197644474847 -8.12521986854166e-05 5.97572814035158e-05 -0.000434502740218556 -0.000163613587484198
"257" -0.000169660110718627 0.000288224228354714 0.000350226883695601 0.000133726980341507 2.23520304028218e-05 -0.000222402445435993 0.000147663862441222 -0.000231569841348015 -0.000803915954467634 -0.000393564423841945 -0.000160833178661395 -0.000215041181127067 -7.4958716686622e-05 6.28125337066932e-05 -0.000434233130991069 -0.000156636199929657
"258" -0.000162209867982661 0.000285667912213193 0.000347807510919396 0.000125875955574916 2.26093723986204e-05 -0.000218314341363087 0.000146992049278802 -0.0002235253921114 -0.000809965006665228 -0.000385164769354693 -0.000165548273718788 -0.000191514897503127 -6.71319281289225e-05 6.70991150940124e-05 -0.000432236358911497 -0.00014802847823199
"259" -0.000154093065900638 0.00028217096364936 0.00034483025779961 0.000117143476540902 2.2782853303762e-05 -0.000213927808808789 0.000146279877829746 -0.000215365871328216 -0.00080872077748788 -0.000373671012974148 -0.000168494926778355 -0.000165766683769207 -5.78344662046275e-05 7.26417947731943e-05 -0.000428525176150586 -0.000137826395112305
"260" -0.000145377648133111 0.000277728919487133 0.000341306058695057 0.000107555289329214 2.28636691117794e-05 -0.000209287427731716 0.000145522780397496 -0.000207168000584682 -0.000800167397961418 -0.000359186899592513 -0.000169665327115432 -0.000137948168783746 -4.71362988271088e-05 7.94550061448301e-05 -0.000423125215471839 -0.000126076966913835
"261" -0.000136118223017643 0.000272344470481696 0.000337244688189872 9.71389312454804e-05 2.28366179853879e-05 -0.000204443855575708 0.000144720456273639 -0.000199013614290908 -0.000784357983130596 -0.000341849298721786 -0.000169071100599373 -0.000108244290613846 -3.51341020624536e-05 8.75422049264334e-05 -0.000416076328971881 -0.000112843013594166
"262" -0.000126392958560665 0.000266030948585822 0.000332667208742777 8.59298053649045e-05 2.26934276149195e-05 -0.000199446837125309 0.00014388036674317 -0.000190982044797276 -0.000761408487071744 -0.000321819876380698 -0.00016673779814492 -7.68541642670437e-05 -2.19354575679364e-05 9.68926908634379e-05 -0.000407438104991962 -9.81989202754345e-05
"263" -0.000116255623146433 0.00025881603138791 0.000327600492946209 7.39759799282429e-05 2.24312203058806e-05 -0.000194345019108675 0.000143007219262746 -0.000183145195125028 -0.000731494426503183 -0.000299275351675978 -0.000162702241583543 -4.39958004618817e-05 -7.65559269735103e-06 0.000107489700627922 -0.000397273730092739 -8.22251902171733e-05
"264" -0.000105787075726664 0.000250734557364735 0.000322076982997811 6.13296265194979e-05 2.20427265354358e-05 -0.00018919266591345 0.000142113556386349 -0.000175581990514975 -0.000694859650845304 -0.000274419237233517 -0.000157015121046977 -9.9009981097597e-06 7.57017289308862e-06 0.000119302243541626 -0.000385666645239237 -6.50179838843899e-05
"265" -9.50530033550556e-05 0.000241837981801897 0.000316132446572616 4.80502199634583e-05 2.15294740781599e-05 -0.000184036589357846 0.000141218771383653 -0.00016835666522433 -0.000651807878609089 -0.000247482080893945 -0.000149745828611732 2.51821771769207e-05 2.36021305449682e-05 0.000132286352082389 -0.000372710650474786 -4.66829919676456e-05
"266" -8.41234363692409e-05 0.000232184020375302 0.000309815074138444 3.42065638985879e-05 2.08925649716489e-05 -0.000178925241723596 0.000140341581383809 -0.000161531836487039 -0.000602701563803218 -0.000218701233743047 -0.000140968231616081 6.09951002941221e-05 4.02912237284503e-05 0.000146387920673302 -0.000358506011459027 -2.73280427368385e-05
"267" -7.30686299892672e-05 0.000221843886341966 0.000303171499637146 1.98704661679379e-05 2.01337964919399e-05 -0.000173906688512915 0.000139504761529729 -0.000155168764668717 -0.000547969247417059 -0.000188343592681971 -0.000130776086706075 9.72658568682363e-05 5.74706025911364e-05 0.00016154052750445 -0.000343168998379549 -7.07845598019409e-06
"268" -6.19611597204794e-05 0.000210893504716871 0.000296259505738059 5.12118228772725e-06 1.92623228719053e-05 -0.000169025898289443 0.000138733527332878 -0.000149319796385122 -0.000488077958761251 -0.000156677084108966 -0.000119269129526654 0.000133718977025517 7.49862592802488e-05 0.000177670357632364 -0.000326820401511216 1.3942153842539e-05
"269" -5.08702867667654e-05 0.000199422729049546 0.000289138676552892 -9.95209072771866e-06 1.82880642788891e-05 -0.00016432520940989 0.000138057226357259 -0.000144028318837898 -0.000423560167442974 -0.00012399148389034 -0.000106558920693971 0.000170071921248232 9.2664012177884e-05 0.000194692593704738 -0.000309587230907397 3.55987963095421e-05
"270" -3.98591404389327e-05 0.000187523263726332 0.000281872753233212 -2.52616755787209e-05 1.72192451968715e-05 -0.000159842780650734 0.000137510599910804 -0.000139331879945669 -0.000354991733072597 -9.05813011409004e-05 -9.27661789703311e-05 0.000206040924407441 0.00011033516910629 0.00021250649622022 -0.000291600763546108 5.7758572870493e-05
"271" -2.89967728549601e-05 0.000175297545228636 0.00027452272930808 -4.07089759646438e-05 1.60717788888396e-05 -0.000155612910354012 0.000137120618094369 -0.000135264728517679 -0.000282983363629021 -5.67550147904787e-05 -7.80170571677985e-05 0.00024134088435406 0.000127828585501539 0.000231015486282716 -0.000273004672206319 8.02765927367538e-05
"272" -1.83425118782519e-05 0.000162854300061782 0.000267159063041165 -5.61973425566154e-05 1.48621160237773e-05 -0.00015167071395539 0.000136921628830321 -0.000131850947476548 -0.000208197465086488 -2.28230080498895e-05 -6.24488076389587e-05 0.000275685745328306 0.000144972978678619 0.000250097339547006 -0.000253936776044963 0.000103011599591806
"273" -7.95810243367341e-06 0.00015029741822253 0.000259852784317549 -7.16236877852106e-05 1.36025638998565e-05 -0.000148040775814606 0.000136949812112479 -0.00012910564927185 -0.000131314924103456 1.09112516101563e-05 -4.62007491763159e-05 0.000308800805977914 0.000161605330748199 0.000269637682181194 -0.000234539915058787 0.000125821082952493
"274" 2.09888743153793e-06 0.000137751020016249 0.000252669353630566 -8.68800477642794e-05 1.23169903983809e-05 -0.000144747517301029 0.000137236175430368 -0.00012703634902524 -5.30528393370574e-05 4.41414269427838e-05 -2.94153780350185e-05 0.000340421077684634 0.000177565549660764 0.000289511305911852 -0.000214951201134008 0.000148562077664753
"275" 1.17792941938852e-05 0.000125320718269764 0.000245684404985205 -0.000101864470388772 1.1025450687314e-05 -0.000141809157511664 0.000137814314846772 -0.000125644038401344 2.58664781672801e-05 7.6560234015125e-05 -1.2240690969098e-05 0.000370293561581934 0.000192701333250127 0.000309589398636935 -0.000195313264698706 0.000171093111016054
"276" 2.1029694217069e-05 0.00011312792383241 0.000238965348163981 -0.000116466287625491 9.74808737794777e-06 -0.000139240441378564 0.000138716220995507 -0.000124920556460986 0.000104688954535352 0.000107876723492387 5.17321549308953e-06 0.000398169832583919 0.000206863657559128 0.000329732126957998 -0.00017576338176335 0.000193273163249822
"277" 2.98111681825597e-05 0.000101283999953117 0.000232578228048175 -0.000130581010352371 8.50804802024763e-06 -0.000137046914373199 0.000139968810623479 -0.000124849048926832 0.00018266309672094 0.000137809980049598 2.26823033458609e-05 0.00042383102162591 0.000219929097112723 0.000349808676908389 -0.000156427606461739 0.000214972774605612
"278" 3.80761110203401e-05 8.99052976350719e-05 0.00022658730714274 -0.000144099374570245 7.32255230405811e-06 -0.000135236595880682 0.000141602503393329 -0.000125409902126988 0.000259037925007431 0.000166086171095222 4.0139650221663e-05 0.000447068588630372 0.000231765685060268 0.000369672821741402 -0.000137433778958471 0.000236058063887201
"279" 4.57955528661017e-05 7.91015928105996e-05 0.000221057001310872 -0.00015692359991043 6.21906220444252e-06 -0.000133806152749418 0.000143637759453744 -0.000126571640133037 0.000333065344729659 0.000192457601898425 5.74001976939669e-05 0.000467703299269142 0.000242273214286712 0.000389190196680697 -0.000118895654251027 0.000256409764201507
"280" 5.29323241672605e-05 6.89722204369414e-05 0.000216044245010831 -0.000168946799385016 5.21997147168972e-06 -0.000132746988168384 0.000146097578063462 -0.000128295018945882 0.000404014429914127 0.000216696607544722 7.43285493886199e-05 0.000485576564730203 0.000251359705796836 0.000408226137692832 -0.000100922824727466 0.000275911710455452
"281" 5.94619569134631e-05 5.96220171670274e-05 0.000211600241978138 -0.000180076181602279 4.34281015218122e-06 -0.000132053898920587 0.000148994964589071 -0.000130543083775721 0.000471176432623445 0.000238590645964251 9.07918225710366e-05 0.000500550452219727 0.000258946708065046 0.000426642449053726 -8.36136294861089e-05 0.000294453309762664
"282" 6.53635052240011e-05 5.114174260389e-05 0.000207777317282905 -0.000190216407182775 3.61032436858175e-06 -0.000131708302418631 0.000152340859258242 -0.000133262651235943 0.000533864562307544 0.000257957948579806 0.000106665042249004 0.000512521128986701 0.000264971536912306 0.000444304689442692 -6.7053802143087e-05 0.000311939516519641
"283" 7.06169481068618e-05 4.36119815520947e-05 0.000204613687295371 -0.00019928459046492 3.04150352622884e-06 -0.000131693473263295 0.000156143359808465 -0.000136403960782719 0.000591430915253567 0.000274641986958453 0.000121827403296302 0.000521410097597801 0.000269393748536127 0.00046109015441582 -5.131783962229e-05 0.000328279170607476
"284" 7.52123055141167e-05 3.71128323388148e-05 0.000202145111344914 -0.00020719670572666 2.65453729401257e-06 -0.000131982586433333 0.000160400187935718 -0.000139905248909255 0.000643269789783084 0.000288514464113397 0.000136175199798523 0.000527171500144741 0.000272191624917566 0.000476877132109015 -3.6468963064197e-05 0.000343398871664071
"285" 7.91392608080536e-05 3.17092997880588e-05 0.000200405104178173 -0.00021387707438983 2.46422303283547e-06 -0.000132549526360191 0.000165110185835106 -0.000143705918495572 0.000688825877208894 0.000299480919486787 0.000149611273711731 0.00052978091896125 0.000273358195758198 0.000491556157574749 -2.25595365369999e-05 0.000357227816789685
"286" 8.23941710297587e-05 2.7450870518587e-05 0.000199408894179936 -0.000219268706913734 2.48251958793649e-06 -0.000133366686382812 0.00017025735169185 -0.000147745509141372 0.000727592159972361 0.000307465357689113 0.000162047605162767 0.000529246600920418 0.000272900629317685 0.000505021542136474 -9.62633167959442e-06 0.00036971035964195
"287" 8.49809577052849e-05 2.43916647008731e-05 0.000199173493535915 -0.000223306642412262 2.72432194253302e-06 -0.000134399112443336 0.000175832179555925 -0.000151950363181699 0.000759123284235668 0.000312441985349305 0.000173411274655486 0.000525614694454356 0.000270853790148091 0.000517179949665144 2.31101927658132e-06 0.000380805779631813
"288" 8.69011504450579e-05 2.25551376902473e-05 0.000199705638773671 -0.000225948240848575 3.19261851383825e-06 -0.000135610705437524 0.000181806696552366 -0.000156255179035542 0.00078304990187085 0.000314400133596969 0.000183639380078547 0.000518945199908255 0.000267264689553687 0.000527952592459436 1.32365463508284e-05 0.00039047922348387
"289" 8.81657380317101e-05 2.19707639130873e-05 0.000201003228078979 -0.00022714967612051 3.90054946837218e-06 -0.000136964328340098 0.000188151615735217 -0.000160592603017329 0.000799061257380405 0.000313374678649678 0.000192687162663198 0.000509341713434828 0.000262199198182812 0.000537267857693306 2.31585534573831e-05 0.000398713246249143
"290" 8.87878599566534e-05 2.26400979576511e-05 0.000203053470408072 -0.000226889815840515 4.84418311819478e-06 -0.00013842277452125 0.000194837532627526 -0.000164889858343082 0.000806917957895233 0.000309418668653969 0.000200516669653758 0.000496919612617318 0.000255735207400283 0.000545069771747561 3.20901141679125e-05 0.000405498827129735
"291" 8.87816145182296e-05 2.45660920791695e-05 0.000205839379456673 -0.000225152959843715 6.02697712402789e-06 -0.000139944553414627 0.000201819222351201 -0.000169082656600393 0.000806463456610604 0.000302619225778415 0.000207104616309426 0.00048182668179292 0.000247971159047129 0.000551315966271728 4.00568807213595e-05 0.000410839013938976
"292" 8.81740669060351e-05 2.77268192499517e-05 0.000209333927270384 -0.000221926268412245 7.44411829005303e-06 -0.000141488928481138 0.000209054837065673 -0.000173098301813804 0.000797614875581841 0.000293096039201664 0.00021244650535615 0.000464235196554911 0.000239015521031362 0.000555981665364318 4.71000018139143e-05 0.000414751198004745
"293" 8.698143841183e-05 3.21004374077193e-05 0.000213505110491997 -0.000217221981929807 9.08876239632973e-06 -0.000143017704339132 0.000216494948587016 -0.000176875484141567 0.000780372868422224 0.000280996549137611 0.000216549340948965 0.000444334831997155 0.000228997063225502 0.000559055513151922 5.32719571027751e-05 0.000417259861267112
"294" 8.52365704440169e-05 3.76409602701233e-05 0.000218307046670805 -0.000211060541283102 1.09489154039785e-05 -0.000144491662913755 0.000224080483513473 -0.000180354568341048 0.000754820652757492 0.000266482710093799 0.000219424546028766 0.000422332759593053 0.000218041925219109 0.000560542462557755 5.86281955514344e-05 0.000418400415501765
"295" 8.29673550130292e-05 4.43030411337741e-05 0.000223687936812183 -0.000203465828292522 1.30127339322308e-05 -0.000145869863339671 0.000231758029232058 -0.000183474462360624 0.000721122015074914 0.000249752268731775 0.000221109241038713 0.000398459128979909 0.000206301069582934 0.000560462260180497 6.32422018133656e-05 0.000418224712132593
"296" 8.02038057281354e-05 5.2018416785615e-05 0.000229594187686023 -0.000194482536417186 1.52653275305618e-05 -0.000147116248250668 0.000239461912601365 -0.000186181251269432 0.000679520808346856 0.000231012702037798 0.000221641536313098 0.000372949188113227 0.00019392390289745 0.000558852066165004 6.71874510196205e-05 0.000416783200623306
"297" 7.69828397183961e-05 6.07179733537905e-05 0.00023596253924901 -0.000184169177234395 1.76816680071073e-05 -0.000148195300838619 0.000247126099301785 -0.000188427825947196 0.000630346384584068 0.000210494472374698 0.000221078397417067 0.000346054944550157 0.000181070149561893 0.000555768340666983 7.05497134041441e-05 0.000414141963954633
"298" 7.33415565264816e-05 7.03204704974922e-05 0.000242717081112191 -0.000172588554327323 2.02445977702515e-05 -0.000149075930441864 0.000254684069600646 -0.000190169146466808 0.000573996802253258 0.000188444229751253 0.000219482466627467 0.000318034134803061 0.000167902701098302 0.000551276260433179 7.34129108542173e-05 0.000410373630008962
"299" 6.93171028615959e-05 8.07276632555911e-05 0.000249788609564401 -0.000159818350724163 2.29231488415685e-05 -0.000149726484580652 0.00026206734470802 -0.000191365436396418 0.000510951239815945 0.000165113533242173 0.000216925322876862 0.000289152107158298 0.00015458661182535 0.000545464326452143 7.58715200912402e-05 0.000405556401240146
"300" 6.49494983483103e-05 9.18423533875214e-05 0.000257091001251433 -0.000145949040531128 2.56909110915001e-05 -0.000150121168619424 0.000269207318805284 -0.000191990159442015 0.000441754337875721 0.000140769861929151 0.000213491039998253 0.000259676907457075 0.00014128775403649 0.000538429552100493 7.80223036863677e-05 0.000399775854520205
"301" 6.02783929499902e-05 0.000103560199153996 0.000264544665974017 -0.000131078355035078 2.85167203853274e-05 -0.000150236247265669 0.000276031696990526 -0.00019200895401286 0.000367021385567442 0.000115683305843387 0.000209266337717856 0.000229876855192385 0.00012817545137013 0.000530285969442394 7.99598270267801e-05 0.000393124265977777
"302" 5.53470233745725e-05 0.000115763575403386 0.000272057813440416 -0.000115319730479082 3.1367417238829e-05 -0.00015005163711809 0.000282472544592274 -0.000191412978058772 0.000287418848822878 9.01265361883754e-05 0.000204347804537996 0.000200016776977443 0.000115407691212135 0.000521157366263183 8.17783446182731e-05 0.000385692185799931
"303" 5.01960558931314e-05 0.000128338087527414 0.000279539476155436 -9.87906800004619e-05 3.42082849514873e-05 -0.000149553163872842 0.000288460081284003 -0.000190182141308538 0.000203669960601678 6.43733263581206e-05 0.000198833371903536 0.000170354118950184 0.000103143937829527 0.000511184464804607 8.35709456890318e-05 0.000377576423343857
"304" 4.48683356365204e-05 0.000141159516096196 0.000286898052598791 -8.16211347189699e-05 3.69989101002919e-05 -0.000148728379414644 0.000293931185897132 -0.000188316002734124 0.000116534705072638 3.86898054287991e-05 0.000192826267205012 0.000141140988828238 9.15341573490225e-05 0.000500507441757823 8.54323066667983e-05 0.000368877635693139
"305" 3.94037559768773e-05 0.000154104130902442 0.000294041347693715 -6.39446604299086e-05 3.9706527479142e-05 -0.00014756874211681 0.00029881831735253 -0.00018581659305583 2.68179402477088e-05 1.33399644378388e-05 0.000186430313867809 0.000112626943714556 8.07251073095086e-05 0.000489284154210441 8.74440265406755e-05 0.000359697142018462
"306" 3.38448421105289e-05 0.00016704827446594 0.000300874302030081 -4.59066728018798e-05 4.22895023754928e-05 -0.000146074207689791 0.000303065694350633 -0.000182691259194328 -6.46596479283191e-05 -1.14237926929054e-05 0.000179751548361663 8.50320613501197e-05 7.0845737473251e-05 0.000477672421358867 8.969110841641e-05 0.000350132872127787
"307" 2.82331565725034e-05 0.00017986157076239 0.000307309414282722 -2.76519102004379e-05 4.47081334441633e-05 -0.00014424291191386 0.000306620078805827 -0.000178954951554127 -0.000157046030941667 -3.53544470209462e-05 0.000172898125031376 5.85872151134017e-05 6.20232604704146e-05 0.000465839508251803 9.22474296080062e-05 0.000340288562402464
"308" 2.26032061560626e-05 0.000192426830453948 0.000313253735538278 -9.3376246937739e-06 4.69245160946196e-05 -0.000142083027737497 0.00030943005433843 -0.00017463331318325 -0.000249496945877388 -5.82276117384418e-05 0.000165969005148542 3.34873545590999e-05 5.4364860457903e-05 0.000453951246193784 9.51773142825618e-05 0.000330258707911517
"309" 1.69955718506924e-05 0.000204620743911592 0.000318621628955099 8.88575718507879e-06 4.88973318880008e-05 -0.000139602473505977 0.00031145119850533 -0.000169753465853803 -0.000341147347456363 -7.98249759499507e-05 0.000159066650431236 9.91821585400054e-06 4.79681395976414e-05 0.000442180211064205 9.85403806969849e-05 0.000320142170837028
"310" 1.14441857503785e-05 0.00021632247266323 0.000323329440650645 2.68610063376521e-05 5.058936230579e-05 -0.000136816662240353 0.000312645247875739 -0.00016434833640486 -0.000431150338300692 -9.99546150843403e-05 0.000152290926185264 -1.19522412841043e-05 4.29178639037951e-05 0.000430687705808958 0.000102385405146984 0.000310033515258618
"311" 5.9809990015948e-06 0.000227428542622142 0.000327303203014405 4.44292345129904e-05 5.19674036321877e-05 -0.000133742870195067 0.000312981904811457 -0.000158460023574703 -0.000518682683360626 -0.000118443291798706 0.000145731693992965 -3.19805337106832e-05 3.92822275819598e-05 0.000419637776331058 0.000106751018870354 0.000300019734442135
"312" 6.38692898183365e-07 0.00023782403659785 0.000330469585348627 6.14359009432409e-05 5.29898865587527e-05 -0.00013040206302754 0.000312437321968934 -0.000152136457914971 -0.000602938657879619 -0.000135131273103353 0.000139477649917917 -5.00346676632995e-05 3.71130296542086e-05 0.000409189377141548 0.000111664256957173 0.000290186394311514
"313" -4.5603995114484e-06 0.00024741589886444 0.000332762534851957 7.77266730190891e-05 5.36242886675842e-05 -0.000126819871026488 0.000310994448883883 -0.000145425637434143 -0.000683143054528517 -0.00014989109639233 0.000133605254625974 -6.60183976722433e-05 3.6444115855491e-05 0.000399495317965023 0.000117139088336177 0.000280614855731849
"314" -9.58768796550233e-06 0.000256118640511701 0.000334127338843318 9.31547021356555e-05 5.38418479069118e-05 -0.000123024858077941 0.000308642136306277 -0.000138383378292894 -0.000758570077973431 -0.000162608323748508 0.000128190923983331 -7.98439031160735e-05 3.73001203131059e-05 0.000390695807867433 0.000123183589755957 0.000271378637139593
"315" -1.44212444274714e-05 0.000263847389295128 0.000334511399998095 0.000107578849170536 5.36123250562183e-05 -0.000119046681027441 0.000305381340393955 -0.000131064762566994 -0.000828548193325445 -0.000173204092022541 0.000123299859388035 -9.14525584531071e-05 3.96817083643381e-05 0.000382921741683385 0.000129789575909435 0.000262547666734237
"316" -1.90499536052035e-05 0.000270533455605735 0.000333874733708276 0.00012085991183413 5.29098578382807e-05 -0.000114921674772476 0.000301219150646242 -0.000123532720011252 -0.00089245313404262 -0.000181616270001791 0.000118983874557607 -0.000100812205354482 4.35775098279022e-05 0.000376298249809278 0.000136937186408201 0.000254182018045702
"317" -2.34529899408729e-05 0.000276119661495587 0.000332189238056692 0.000132876228476406 5.17161276517243e-05 -0.000110680462883741 0.000296169590227058 -0.000115848356968037 -0.000949730417275608 -0.000187805506558341 0.000115295584812444 -0.000107900451391602 4.89621238274412e-05 0.000370928734298911 0.000144598865298127 0.000246342070566627
"318" -2.76256493873357e-05 0.00028055751081162 0.000329430665588378 0.000143507454005647 5.00100785790971e-05 -0.000106363458950991 0.000290256411111682 -0.000108076117618223 -0.000999888604853137 -0.000191762892034424 0.000112271167009849 -0.000112731084347251 5.57895816536867e-05 0.000366911439601215 0.000152731769072418 0.000239073434281091
"319" -3.15589637106401e-05 0.000283811724103764 0.000325587232737915 0.000152649686131044 4.77759971456213e-05 -0.000102008275526989 0.000283508223738618 -0.000100286519823572 -0.0010425209156476 -0.00019350169572292 0.000109940213486653 -0.000115336120620936 6.40057791850194e-05 0.000364323706590719 0.000161286405664201 0.00023241985053336
"320" -3.52530852388937e-05 0.000285859902068777 0.000320654437332416 0.000160208673184303 4.50073283318734e-05 -9.76536687121934e-05 0.000275961616268349 -9.25401619624937e-05 -0.00107728324309118 -0.00019306264590663 0.00010832097290975 -0.000115766792613392 7.35341509633305e-05 0.000363226149316745 0.000170198688510992 0.000226413850111312
"321" -3.87063872865924e-05 0.000286688030917823 0.000314642936777756 0.000166105850380925 4.16975387685448e-05 -9.33390469515785e-05 0.00026766131755395 -8.49016144328782e-05 -0.00110391983899347 -0.000190503555143936 0.000107425060891997 -0.000114094448389641 8.42929444469311e-05 0.000363673043277713 0.000179401048736939 0.000221086737202773
"322" -4.19274026303523e-05 0.000286297672240424 0.000307568870164002 0.000170275126797274 3.78413946472187e-05 -8.91034629686595e-05 0.000258662582040367 -7.74345602418854e-05 -0.00112225055864365 -0.000185908330495612 0.000107254949953489 -0.000110413256329375 9.61860944171324e-05 0.000365693643343879 0.000188814749840735 0.000216456480854601
"323" -4.49204622943835e-05 0.000284704272896611 0.000299462088694424 0.000172666664298963 3.34457840449524e-05 -8.49837634644912e-05 0.000249015622661103 -7.02038560954521e-05 -0.00113217248446162 -0.000179381970282031 0.000107803240730769 -0.000104833504438413 0.000109108670743922 0.000369304210622785 0.000198354201305839 0.000212538931056377
"324" -4.77004283661971e-05 0.000281925201534931 0.000290355982569598 0.000173243879174962 2.85177467229149e-05 -8.10191128463056e-05 0.000238789108666688 -6.32649368599366e-05 -0.00113366653901774 -0.000171044726387674 0.00010905078526491 -9.74840921379229e-05 0.000122941022855345 0.000374499930264376 0.000207929847046023 0.000209340173378161
"325" -5.02833459975786e-05 0.000278001887690961 0.000280300343224948 0.000171986785906967 2.30674175221681e-05 -7.72447968206268e-05 0.000228047348449376 -5.66705410942975e-05 -0.0011267848627775 -0.00016103914774027 0.000110979924652353 -8.85060975154883e-05 0.000137564244202586 0.00038127210840043 0.000217447936430115 0.00020686081664718
"326" -5.26814723558214e-05 0.000272972411725463 0.000269350620426907 0.000168894033077769 1.71165444497324e-05 -7.36931460332767e-05 0.000216861171630204 -5.04795116221695e-05 -0.00111166620955803 -0.000149523432141118 0.000113557678879739 -7.80552136680609e-05 0.000152847734611282 0.000389585758000762 0.000226810330057629 0.000205097080458676
"327" -5.49199744608367e-05 0.000266893000447294 0.000257567271379614 0.000163978345262102 1.06801272949533e-05 -7.03959334154459e-05 0.000205310035117572 -4.47337564735357e-05 -0.00108850701886946 -0.000136670768444124 0.000116742606339471 -6.63043783930825e-05 0.000168657171082756 0.000399392259156426 0.000235917391088534 0.000204036489340384
"328" -5.70214294717546e-05 0.000259829937501573 0.000245023390906193 0.000157266481453561 3.78976098879721e-06 -6.73832294722747e-05 0.000193467978130739 -3.94763606335527e-05 -0.00105758750923361 -0.000122663451762014 0.000120496996506586 -5.34325225785051e-05 0.000184855610957172 0.000410628479478467 0.000244671337932222 0.000203659760353565
"329" -5.90101191679257e-05 0.000251851159097855 0.00023179982710174 0.000148805105724138 -3.52974014129369e-06 -6.46788416134897e-05 0.0001814158187776 -3.4743005486821e-05 -0.00101924529723199 -0.000107693311250041 0.00012476925835817 -3.9625479626843e-05 0.000201307537859084 0.000423226218472183 0.000252974771786337 0.000203945811044125
"330" -6.09057431494189e-05 0.000243036068505255 0.000217976072284708 0.000138654138279829 -1.12442231986446e-05 -6.23063671605013e-05 0.000169234721015277 -3.05694555634971e-05 -0.000973880359717632 -9.19607514830486e-05 0.000129506278562478 -2.50726046212571e-05 0.000217874966268832 0.000437091970491086 0.00026073576852844 0.000204867294849717
"331" -6.27416615830101e-05 0.000233467214343296 0.000203646857759591 0.00012688882349311 -1.93112633631515e-05 -6.0281597784732e-05 0.000157005234296458 -2.69728685607564e-05 -0.000921938451944923 -7.56712918263154e-05 0.000134653646892029 -9.96954209373599e-06 0.000234422858005451 0.000452131605454535 0.000267866410853148 0.000206392231989084
"332" -6.45417753639922e-05 0.00022323135569722 0.000188902919760244 0.000113599453213027 -2.76958472299633e-05 -5.86192654390894e-05 0.000144812113772809 -2.3974319878069e-05 -0.000863925001752081 -5.9027978011777e-05 0.000140156661787141 5.4853482338275e-06 0.000250824529422103 0.000468232230389565 0.000274284232149927 0.000208484758147574
"333" -6.63340557097805e-05 0.000212425354511803 0.000173843485903143 9.88887096192302e-05 -3.63522582662676e-05 -5.73291505746526e-05 0.000132730943022181 -2.1586650146687e-05 -0.000800388987266573 -4.22430346657567e-05 0.000145945403496923 2.10950985480263e-05 0.000266950480421397 0.000485275469985784 0.000279913704216822 0.000211107932085231
"334" -6.81417024049731e-05 0.000201139307249857 0.000158573765704377 8.28729889813279e-05 -4.52329479635473e-05 -5.64178882368895e-05 0.000120839012990028 -1.98089313280858e-05 -0.000731904629015746 -2.55087560398935e-05 0.000151971266265483 3.66762997978889e-05 0.00028268755751009 0.000503133553230733 0.000284693412560942 0.000214217641675852
"335" -6.99930833344857e-05 0.000189474370658963 0.00014319136661629 6.56811362589384e-05 -5.42913139263573e-05 -5.58833972270211e-05 0.000109211636794455 -1.86428457604943e-05 -0.000659085503934758 -9.03112936656154e-06 0.00015816548237117 5.20324050335082e-05 0.000297921026641159 0.000521672163668767 0.000288565707339118 0.000217769516848239
"336" -7.19071331017965e-05 0.000177525891239467 0.000127807307593094 4.74501470465177e-05 -6.34709467944234e-05 -5.57234773744137e-05 9.79249396148591e-05 -1.80737863035941e-05 -0.000582562751123558 7.01228729984649e-06 0.000164476381502797 6.69999178164916e-05 0.000312560668123797 0.000540753667313879 0.00029149456190201 0.000221721199788319
"337" -7.39116164114392e-05 0.000165388375587127 0.000112519811865087 2.83272255129165e-05 -7.27245594827863e-05 -5.59300862254326e-05 8.7039694798785e-05 -1.8087923660347e-05 -0.000502985537836214 2.24348835211087e-05 0.000170841991369317 8.13967467469912e-05 0.000326508832841125 0.000560226572326438 0.000293441245994357 0.000226021640978903
"338" -7.60190207796347e-05 0.000153161593990004 9.74389703552118e-05 8.47039740828132e-06 -8.19946949004779e-05 -5.64883862597848e-05 7.66226148243321e-05 -1.86623206171938e-05 -0.000421017793306985 3.70821865720963e-05 0.000177212597772109 9.50784455552764e-05 0.000339695531747224 0.000579946925770567 0.000294394259462213 0.000230622176499682
"339" -7.82492641821884e-05 0.000140930825931317 8.26652170615281e-05 -1.19590132338689e-05 -9.12266406278002e-05 -5.73803286364751e-05 6.67271419672871e-05 -1.97635375394274e-05 -0.00033732620742512 5.08056046261669e-05 0.000183537806221467 0.000107901214928065 0.000352054337269209 0.000599765961307962 0.000294351330735733 0.000235474282976468
"340" -8.06149380380005e-05 0.00012879355329826 6.83003424988169e-05 -3.27943247284623e-05 -0.000100367401406556 -5.85851388445029e-05 5.74101802516171e-05 -2.13554300372995e-05 -0.000252570122668643 6.34709794452351e-05 0.000189770875012294 0.00011973433713513 0.000363539074060951 0.000619525504880056 0.000293320690536505 0.000240529455090121
"341" -8.31241007777472e-05 0.000116828757362336 5.44428393183058e-05 -5.38575001812194e-05 -0.0001093598246484 -6.00750710285756e-05 4.87155500580709e-05 -2.33965900642635e-05 -0.00016741636466445 7.4975123441688e-05 0.000195877282318282 0.00013047694533904 0.000374112576484744 0.000639079081210868 0.000291328936346685 0.000245737830577802
"342" -8.57819357021656e-05 0.000105119090556858 4.11851802755008e-05 -7.49805214365039e-05 -0.000118149161626708 -6.18200756775326e-05 4.06786865338971e-05 -2.58336623383545e-05 -8.2497514899673e-05 8.52239973286024e-05 0.000201820852563147 0.000140037284893659 0.00038375504348529 0.000658276441950176 0.000288418428166576 0.000251053664990608
"343" -8.85910672272278e-05 9.3739236680607e-05 2.8617830104308e-05 -9.59828595222548e-05 -0.000126681564238986 -6.37843844720912e-05 3.33365915974017e-05 -2.86149359333715e-05 1.55741356462007e-06 9.41530348120708e-05 0.000207575367496974 0.000148343774526126 0.000392459535437199 0.000676972907953478 0.000284641167343037 0.000256427375543474
"344" -9.15481229746622e-05 8.27601171102778e-05 1.68239087828943e-05 -0.000116690260561196 -0.000134903637191403 -6.59292068579352e-05 2.67111546354427e-05 -3.16834219959885e-05 8.41591764030243e-05 0.000101713477674401 0.000213116832760147 0.000155343278694077 0.0004002333091948 0.000695024961887892 0.000280061896774182 0.000261813395543075
"345" -9.46419115687797e-05 7.22401606636373e-05 5.88096688847816e-06 -0.000136929697083152 -0.000142768247514619 -6.8216502356e-05 2.08223312290052e-05 -3.49777562384368e-05 0.000164724905838449 0.000107885185204256 0.000218434953624918 0.000161006342742942 0.000407096586281001 0.000712294791146218 0.00027476500016671 0.000267169229428434
"346" -9.78633663582714e-05 6.22342878039194e-05 -4.13477977685461e-06 -0.000156529251028056 -0.000150223838556997 -7.05985549724136e-05 1.56803091336482e-05 -3.84276383795594e-05 0.000242733137577399 0.000112676474107359 0.000223522926308173 0.000165326806907469 0.00041308879302769 0.000728655413535361 0.000268842428350443 0.000272452361405145
