"V1" "V2" "V4" "V5" "V7" "V8" "V10" "V11" "V13" "V14" "V15" "V17" "V18" "V20" "V21" "V23"
"1" -3.30272059061611e-05 -0.000214694514003039 -1.01970497178562e-05 -3.81940169559307e-05 1.26695495862557e-06 -1.17358958832598e-05 9.53765395150536e-06 -3.73084774326024e-05 -6.3482549599319e-05 -0.000110842379905942 -1.55711312641522e-05 -2.61462573579176e-05 -5.87647938386478e-05 -0.000754582554960598 -0.000125431270041073 1.06475836899097e-05
"2" -7.82552829892901e-05 -0.000181531109409948 -3.91247583931482e-05 -5.023743603948e-05 -4.50038564230083e-05 -2.95872191348601e-05 -4.84100677245146e-05 -2.99181843127478e-05 -3.83685108971899e-05 -0.000115941554697025 -1.36082581915085e-05 -6.53802567551157e-05 -0.000111461180674596 -0.000692496359219093 -0.000123218122474677 0.00017877682427974
"3" -0.000123671034449813 -0.000148521359463627 -6.80511592636925e-05 -6.23393021250559e-05 -9.13081477414477e-05 -4.73095605097437e-05 -0.000106594304320025 -2.21607837186176e-05 -1.31307192329875e-05 -0.000120952055340355 -1.16777754188901e-05 -0.000104199100786402 -0.000163680009239911 -0.000630113147408455 -0.000120737904706687 0.000343521787045208
"4" -0.000168939258950948 -0.000115874016827007 -9.67934492703586e-05 -7.42815474400187e-05 -0.000137303453728519 -6.47597645755513e-05 -0.000164598521180743 -1.41064949965747e-05 1.22597360496248e-05 -0.000125481454702784 -9.67741488306286e-06 -0.000142404413607782 -0.000215348629690959 -0.00056771030780566 -0.000117813633213639 0.000504167390227746
"5" -0.000213715964527432 -8.37963299373016e-05 -0.00012515894545646 -8.58454398835387e-05 -0.000182642973488967 -8.17920678632633e-05 -0.000221994914373131 -5.83876907875506e-06 3.78148114683356e-05 -0.000129133262002135 -7.50290084988139e-06 -0.000179795754171242 -0.000266407932196884 -0.000505585531901559 -0.000114281476734407 0.000660057889534777
"6" -0.000257660806896734 -5.25002393342916e-05 -0.00015296149230831 -9.68146465998353e-05 -0.000226977209417801 -9.82712937221472e-05 -0.00027836225186792 2.56166879509994e-06 6.35506364879275e-05 -0.000131518090191617 -5.05597917404697e-06 -0.000216183846312561 -0.000316789160209207 -0.000444050524516938 -0.000109983198808488 0.000810599423551693
"7" -0.000300433579645899 -2.21832877392778e-05 -0.000180011186412145 -0.000106971798364191 -0.000269965291705292 -0.000114059369287937 -0.000333262801786023 1.099561411414e-05 8.94786918900754e-05 -0.000132255413595796 -2.23672612078959e-06 -0.000251391240514353 -0.000366443043023429 -0.000383419466318102 -0.000104772647249043 0.000955261428567541
"8" -0.000341695611323453 6.95581265745011e-06 -0.000206111722294284 -0.000116104927362564 -0.000311260420193699 -0.000129033603249338 -0.00038627391080464 1.93712050482998e-05 0.000115594438502388 -0.000130980313613958 1.050845740997e-06 -0.000285236073702104 -0.00041531043673383 -0.00032403384980177 -9.85226742771805e-05 0.00109357760302106
"9" -0.000381123889117901 3.4735156532758e-05 -0.000231083042002727 -0.000124009486106018 -0.000350530364327618 -0.000143068184550478 -0.000436972956852931 2.75785639504629e-05 0.000141901239671045 -0.000127337442117374 4.89561901414467e-06 -0.000317563397874573 -0.000463350643947133 -0.000266213058397318 -9.11087813131096e-05 0.00122514586425073
"10" -0.000418402296798944 6.09787035823879e-05 -0.00025473791424573 -0.000130490077141589 -0.000387445155425853 -0.000156054356819086 -0.000484952136861838 3.55186192464896e-05 0.000168385140856857 -0.000121004385431969 9.38065218652437e-06 -0.000348214767950743 -0.000510517430190896 -0.000210307498039056 -8.24365101981097e-05 0.00134962747759126
"11" -0.000453230429113176 8.55277101785402e-05 -0.000276900216026387 -0.000135361410765215 -0.000421695943029989 -0.000167892032990542 -0.000529813215215542 4.30793443811957e-05 0.000195033208633848 -0.000111676544815905 1.45866660522749e-05 -0.000377053075844544 -0.000556773808248136 -0.000156642859454271 -7.24175800650096e-05 0.00146674284148507
"12" -0.000485328241864339 0.000108240482635785 -0.000297398537827979 -0.000138453155895317 -0.000452982394835339 -0.00017848742041826 -0.000571181570966745 5.01552998878749e-05 0.000221822588555939 -9.90797337065386e-05 2.05794493848084e-05 -0.000403948602806105 -0.000602082284556579 -0.000105554014231063 -6.09857623746999e-05 0.001576277599678
"13" -0.000514435635969362 0.000128992823377297 -0.000316075084565994 -0.00013960795981815 -0.000481031097924842 -0.000187759439300025 -0.000608712377297036 5.66454609147066e-05 0.000248729729243098 -8.2972731570648e-05 2.74206044469738e-05 -0.000428793853679403 -0.000646417345253672 -5.73485803666845e-05 -4.80894514681843e-05 0.00167806877766017
"14" -0.00054031923731525 0.000147682044098707 -0.000332780780882275 -0.00013868818200333 -0.000505585039092308 -0.000195643052818557 -0.000642079121969742 6.24495875894949e-05 0.000275727110445334 -6.31514384307574e-05 3.51570875233461e-05 -0.000451491537792936 -0.000689748997205263 -1.23219698765128e-05 -3.36920990895199e-05 0.00177201619209666
"15" -0.00056277109082248 0.000164221405785598 -0.000347381023577643 -0.000135573497021924 -0.000526416239188366 -0.000202083687585394 -0.000670999884438393 6.74762346656363e-05 0.00030277649950347 -3.94491735402248e-05 4.38269677944414e-05 -0.000471956368640329 -0.000732054868661641 2.92386930192131e-05 -1.7781275344263e-05 0.00185806422959962
"16" -0.000581623541563522 0.000178558339124369 -0.000359754270346617 -0.00013016881254237 -0.000543325038333007 -0.00020703644372997 -0.000695226231261083 7.16382064549364e-05 0.000329847924447826 -1.17417941736479e-05 5.34543764837378e-05 -0.000490129754787068 -0.000773313107861065 6.71043916860737e-05 -3.49651067773966e-07 0.00193622019168692
"17" -0.000596737642272116 0.000190653347854067 -0.00036979923645922 -0.000122400842175062 -0.000556145011823527 -0.000210477374738636 -0.000714557670018295 7.48672078666499e-05 0.000356904954092871 2.00560021167084e-05 6.40575727311787e-05 -0.000505957990062058 -0.000813499024434015 0.000101054856266374 1.85883622712337e-05 0.00200652710055893
"18" -0.000608016841273395 0.000200494473421062 -0.000377428840155993 -0.000112219908348102 -0.00056474090415796 -0.000212390134470277 -0.000728838941949824 7.71049935118838e-05 0.000383907300441467 5.5975906248877e-05 7.56276343900279e-05 -0.000519410845286767 -0.000852599398222289 0.000130915768285559 3.90075492897843e-05 0.00206908228036245
"19" -0.00061540445904953 0.000208095348276717 -0.000382574136648395 -9.96063390052941e-05 -0.000569013645820377 -0.00021277569031193 -0.000737959371167262 7.83026012508037e-05 0.000410819276787248 9.60105034695939e-05 8.81581907151582e-05 -0.000530467324948356 -0.000890588597851267 0.000156553030358486 6.08691193318739e-05 0.00212402108594881
"20" -0.000618886444448887 0.000213494277828611 -0.000385187924022395 -8.45647630678413e-05 -0.000568909270503605 -0.000211649213115694 -0.000741874496081317 7.84332209530961e-05 0.000437607287096426 0.000140099071247773 0.000101617650975697 -0.000539128558239945 -0.000927447560737833 0.000177880990632588 8.41213199909438e-05 0.00217152098393484
"21" -0.000618488711479034 0.000216744150460005 -0.000385237747578109 -6.71279227857543e-05 -0.000564398953616626 -0.000209038740090836 -0.000740583628150139 7.7488259857789e-05 0.00046423399052432 0.000188132967865484 0.000115963061981812 -0.000545402690272592 -0.000963152274366258 0.000194846793635433 0.000108700578171077 0.00221179676404727
"22" -0.000614292299355192 0.000217929218794892 -0.000382717955019731 -4.73597536006516e-05 -0.000555506711115241 -0.000204985892053564 -0.000734141379638612 7.54699679550115e-05 0.000490666322651804 0.000239959820468677 0.000131140228231863 -0.000549315380328505 -0.000997677029023008 0.000207451513951502 0.000134533402889203 0.00224509409196039
"23" -0.000606406458697964 0.000217150164614866 -0.000377638859675417 -2.53490973754518e-05 -0.000542285177954342 -0.00019954495849585 -0.000722660231320779 7.24030143352489e-05 0.000516876531371739 0.000295377936571473 0.000147078477111381 -0.000550912129895187 -0.00103099710997663 0.000215741571755106 0.000161536588283773 0.00227169579160858
"24" -0.00059499257728565 0.000214520102589024 -0.000370023247375343 -1.21036351844582e-06 -0.000524831799736557 -0.000192785884306437 -0.000706302581235215 6.83294255507015e-05 0.000542822432401627 0.000354133742943926 0.000163696598652657 -0.000550236285045914 -0.00106307885183057 0.000219778268648608 0.000189608705308745 0.00229191131935376
"25" -0.000580251635372148 0.000210173772749112 -0.000359917806248801 2.491093808219e-05 -0.000503275636010945 -0.000184788270478249 -0.00068528599201976 6.33061053187086e-05 0.000568476615249752 0.000415934740314731 0.000180896038555872 -0.000547352219584792 -0.00109388637662274 0.000219684309482839 0.000218642179074141 0.00230607887975928
"26" -0.000562417121618465 0.000204261440852933 -0.000347385818070049 5.28492022422288e-05 -0.000477786731257761 -0.000175643195101438 -0.000659865995391077 5.74031427665685e-05 0.000593809398122367 0.000480447114698311 0.000198573696968251 -0.000542333091218525 -0.0011233923041994 0.000215612854942108 0.00024852308638069 0.00231456320327668
"27" -0.000541759871226903 0.000196932936309281 -0.000332499944455669 8.24163344474471e-05 -0.000448554412452133 -0.000165453081312478 -0.000630346686975655 5.07067866672281e-05 0.000618774382009556 0.000547293497781741 0.000216610312287887 -0.000535256776612937 -0.00115155245306565 0.000207720561460495 0.000279113628135014 0.00231774972515932
"28" -0.000518581212343269 0.000188361522258593 -0.000315352348695112 0.000113404398900185 -0.000415813232837844 -0.000154330518950778 -0.00059707245175054 4.33154367018479e-05 0.00064334062013013 0.00061606536130514 0.000234883677210398 -0.000526219107816697 -0.001178327423849 0.000196210202676063 0.000310276061300277 0.00231604702280712
"29" -0.000493203188877935 0.000178714063105217 -0.000296043945126974 0.000145587111962841 -0.000379813861511276 -0.000142394297028886 -0.000560410014941673 3.53302690546257e-05 0.000667462321621662 0.00068631887002281 0.000253253608820737 -0.000515315273571082 -0.00120367986271041 0.000181282969774637 0.000341848708729501 0.00230988364187686
"30" -0.000465970370408735 0.000168168510829499 -0.000274690828136161 0.000178724917247235 -0.000340833527855618 -0.000129774842230626 -0.000520765110502713 2.68697938390614e-05 0.000691091154673453 0.000757587543581761 0.000271583633116423 -0.000502650654785649 -0.00122756984344509 0.000163152322975326 0.000373671990877769 0.00229970070090375
"31" -0.000437242829256795 0.000156905094282519 -0.000251414328365277 0.000212564725281174 -0.000299172758336336 -0.000116606328288805 -0.000478560899415781 1.80474801753597e-05 0.000714178445871966 0.000829380036791668 0.000289730259544714 -0.000488339278996349 -0.00124995743454812 0.000142050917215014 0.000405565939918305 0.00228595600697069
"32" -0.000407392232690001 0.000145095595284643 -0.000226342384303397 0.000246846921062578 -0.000255139903986352 -0.000103029255945209 -0.000434229610983187 8.98083595256703e-06 0.000736661723126788 0.000901186665892645 0.000307543990643297 -0.000472498753226451 -0.00127080606019193 0.000118182900850751 0.000437342066202781 0.0022691136795571
"33" -0.000376788872910141 0.000132922967561657 -0.000199619109754637 0.000281307895266773 -0.000209063971720544 -8.91887187219266e-05 -0.000388226596378836 -2.0947126521353e-07 0.000758481195603853 0.000972495356533197 0.000324876063061747 -0.000455252315227594 -0.00129008226727398 9.1777195935289e-05 0.000468802750937596 0.00224964890799861
"34" -0.000345809795983444 0.000120552132907507 -0.000171381937700326 0.000315676028695667 -0.000161281579301872 -7.52333213204185e-05 -0.000341004100314478 -9.4063690201998e-06 0.000779565051543717 0.00104277923502991 0.000341578936561383 -0.00043673067226053 -0.00130775656929454 6.30425114538683e-05 0.000499746501721292 0.00222803585833082
"35" -0.000314829107045519 0.000108157178414413 -0.000141787037861138 0.000349686561168182 -0.000112141999501519 -6.13133147028701e-05 -0.000293012767191829 -1.84962437289367e-05 0.000799842258723704 0.0011115184302002 0.000357506939538649 -0.000417068803924403 -0.00132380660905114 3.21827286363182e-05 0.000529963105801646 0.0022047497566683
"36" -0.000284201995912468 9.58952231453915e-05 -0.000110985214403174 0.000383071918887606 -6.19891704387998e-05 -4.7579842195726e-05 -0.000244715399615242 -2.73768551667992e-05 0.000819239111053912 0.00117819747842881 0.000372520088106384 -0.000396405867118203 -0.00133821487180236 -5.98716947756475e-07 0.00055924194583849 0.00218026076226032
"37" -0.00025428203374182 8.39243223565454e-05 -7.91382839993023e-05 0.000415570190915863 -1.11813884585033e-05 -3.4180139670621e-05 -0.000196551152889832 -3.59475080738741e-05 0.000837672532089288 0.00124231505739311 0.000386482521826959 -0.000374883576360425 -0.00135096838220521 -3.51188670135913e-05 0.000587366872314542 0.00215502602501273
"38" -0.000225402799365628 7.23901482619735e-05 -4.64065868978101e-05 0.000446935028000391 3.99308322527042e-05 -2.12648533291396e-05 -0.000148952501727327 -4.41156922064323e-05 0.000855064984115813 0.00130339140232137 0.000399271657574515 -0.000352649880753616 -0.00136206808046539 -7.11851280775805e-05 0.000614135274700201 0.00212949255935966
"39" -0.000197875594757782 6.1434360740061e-05 -1.29572092095473e-05 0.000476920265143454 9.09982912653838e-05 -8.98202285878494e-06 -0.000102343234528299 -5.17995239513583e-05 0.000871338914771709 0.00136096340338781 0.000410764691434971 -0.000329852643809338 -0.00137151461295778 -0.00010862623619848 0.000639337325717642 0.00210408109162591
"40" -0.000171994840622797 5.11885741961412e-05 2.10347391856604e-05 0.00050529896160696 0.000141669640078929 2.53057676069153e-06 -5.71316802403249e-05 -5.89284990799703e-05 0.0008864193483119 0.00141460543686882 0.000420858239164309 -0.000306652386557722 -0.00137932500390989 -0.000147252803209799 0.000662785844309434 0.00207919527107865
"41" -0.000148025765738958 4.17751773373807e-05 5.53983127081447e-05 0.000531853645664612 0.000191606749467687 1.31342466468619e-05 -1.36988990794267e-05 -6.54426425484719e-05 0.000900233903328376 0.00146392491345964 0.00042945867232397 -0.000283199407517454 -0.00138552257686248 -0.000186888922536376 0.000684295450565153 0.00205520335678563
"42" -0.000126214202958219 3.33162132075164e-05 8.99539913348787e-05 0.000556383056883072 0.000240470524561818 2.27007759090756e-05 2.75809020362914e-05 -7.12895469669116e-05 0.000912722967438423 0.0015085649393438 0.00043648306539774 -0.000259655937305739 -0.00139014174036927 -0.000227343799448283 0.000703704200176867 0.00203244480030699
"43" -0.000106770281826789 2.59113223880232e-05 0.000124518802758108 0.000578705153382431 0.000287935413429011 3.11030069373507e-05 6.63651282815691e-05 -7.64289465894972e-05 0.00092382666134703 0.00154821418866706 0.000441866842642898 -0.000236182385576461 -0.0013932261158871 -0.000268427480008675 0.000720861077700492 0.00201122001865511
"44" -8.98835142427576e-05 1.96673564982552e-05 0.000158910622590011 0.000598656768957297 0.00033368656904124 3.82277566857765e-05 0.000102332944947786 -8.08289352794868e-05 0.000933501177807771 0.00158260710705804 0.000445557072214922 -0.00021293906136727 -0.00139482875211086 -0.000309939401173674 0.000735644193167226 0.00199178751150916
"45" -7.57077940405642e-05 1.46737839055508e-05 0.000192938315103449 0.000616088715666644 0.000377409874253334 4.39700992305625e-05 0.000135186302470857 -8.44746479657303e-05 0.000941711797687413 0.00161152800311744 0.000447517642688424 -0.000190092278546519 -0.00139501340736643 -0.000351658932519899 0.00074795202837391 0.00197436326149418
"46" -6.43700844174493e-05 1.10144000345654e-05 0.000226411441956357 0.000630874262200298 0.000418818835281182 4.82352406283918e-05 0.000164644297117912 -8.73516883906119e-05 0.000948440645689785 0.00163481154919495 0.000447733038772248 -0.000167803271293285 -0.00139385196864061 -0.000393356339185542 0.000757710636933994 0.00195911733117822
"47" -5.59662819472807e-05 8.7624626349896e-06 0.000259135988398003 0.000642910764476782 0.000457627971876422 5.09320913748957e-05 0.000190463975399734 -8.94627053461151e-05 0.000953673541696913 0.00165234306596371 0.000446195042857306 -0.000146233295194471 -0.00139142977739322 -0.000434791361078668 0.000764867554077946 0.00194617010923962
"48" -5.05619540022072e-05 7.98660085204119e-06 0.000290918838544314 0.000652110828364118 0.000493572084716039 5.19925776333006e-05 0.000212421909423911 -9.08128574149325e-05 0.000957423041992098 0.00166406255835137 0.00044291714650267 -0.000125540779564445 -0.00138783151412678 -0.00047570075558761 0.000769403950568138 0.00193559745798599
"49" -4.81978737774507e-05 8.74194557439832e-06 0.000321565663722377 0.000658412412773355 0.000526402904730581 5.134988701404e-05 0.000230321647221759 -9.14210426625588e-05 0.000959703469053858 0.00166996395516678 0.000437928066369218 -0.000105881301130638 -0.00138315934371386 -0.000515820056561231 0.000771327144293415 0.00192742049391298
"50" -4.88792964162304e-05 1.10804797491463e-05 0.000350877095818688 0.000661769929549355 0.000555883336301374 4.89576727355232e-05 0.000243998814521466 -9.13120303680551e-05 0.000960559402460224 0.00167009073579208 0.000431271687076807 -8.74096453937344e-05 -0.00137752164949379 -0.000554852595490687 0.000770676549471657 0.001921616341061
"51" -5.2585990122505e-05 1.50348983803332e-05 0.000378663880297895 0.000662164550941375 0.000581802685055596 4.47739821593224e-05 0.000253309578004868 -9.05143331511349e-05 0.000960031979208398 0.00166453843644115 0.000423003934793897 -7.02710355615719e-05 -0.00137102501883486 -0.000592509496753526 0.000767512507576372 0.00191811386824464
"52" -5.92749372752652e-05 2.06414076342723e-05 0.000404735010105892 0.00065959535908409 0.000603966181042103 3.87768575724161e-05 0.000258144688646236 -8.90648469803192e-05 0.000958189464623209 0.00165344968248209 0.000413197573468514 -5.46087922691984e-05 -0.00136378928205337 -0.000628474810405572 0.000761929567482054 0.00191679937818248
"53" -6.88762550148006e-05 2.79132550202591e-05 0.000428903126210494 0.000654081884418212 0.000622201270512219 3.09551934742187e-05 0.000258424909172897 -8.70080976515285e-05 0.000955109474498717 0.00163701562665949 0.000401937544866775 -4.05533697834858e-05 -0.00135593554863416 -0.000662441162502824 0.000754045150947227 0.00191751532389599
"54" -8.12892157883416e-05 3.68599391235328e-05 0.000450990716744594 0.000645662039482419 0.000636355612673728 2.13063710061681e-05 0.000254089798179418 -8.43888101836748e-05 0.000950877513450188 0.00161546810069837 0.000389320822187204 -2.8228605450563e-05 -0.00134758690678812 -0.000694094337264963 0.000743996353818254 0.00192006466063511
"55" -9.6396287707436e-05 4.74781198704298e-05 0.000470823002180809 0.000634398093177446 0.000646302842342514 9.85034737119471e-06 0.000245124128323079 -8.12629211188897e-05 0.00094559625106541 0.00158907934455245 0.000375452342539059 -1.77485381071476e-05 -0.00133887069027374 -0.000723116129527079 0.000731950713594412 0.00192422466352099
"56" -0.000114061930131487 5.9751568666278e-05 0.000488238994301618 0.000620364812262004 0.000651942109498175 -3.3875848481646e-06 0.000231529004336194 -7.76836717466123e-05 0.00093937809107357 0.0015581579659106 0.000360446255938276 -9.21374627179862e-06 -0.00132991222589352 -0.000749199007200645 0.000718089200667342 0.00192973631510632
"57" -0.000134125622092876 7.36530553515652e-05 0.000503088862554672 0.000603657043416928 0.000653199149735843 -1.83673204682218e-05 0.000213338147914304 -7.3707384820813e-05 0.000932335819256877 0.0015230464166362 0.000344430746035861 -2.71518521260223e-06 -0.00132083495545028 -0.000772046768111018 0.000702610714134771 0.00193632049664613
"58" -0.000156412656876629 8.91380024125193e-05 0.000515236140640658 0.000584386353682067 0.000650026480926723 -3.50348176598648e-05 0.00019062706351578 -6.93959559350559e-05 0.000924591218207472 0.00148410475166323 0.000327529290502568 1.67598855075188e-06 -0.00131176166177643 -0.000791394997297802 0.000685723312562623 0.00194367501957639
"59" -0.00018072850174692 0.000106153402376612 0.000524557594026021 0.000562678972079276 0.000642405035135972 -5.33283614021032e-05 0.000163478289352193 -6.48127267915709e-05 0.000916274075569765 0.00144172659082842 0.00030988030505133 3.89798499287858e-06 -0.00130281135172224 -0.000806975910776527 0.000667653052354918 0.00195149013091985
"60" -0.000206872628320501 0.00012463241379415 0.00053094943664346 0.000538678947446247 0.000630341141321249 -7.31660541183819e-05 0.000132029850605861 -6.00195401520312e-05 0.000907513356079504 0.00139632211098733 0.000291621475200992 3.90509696947773e-06 -0.00129409795081325 -0.000818551028306845 0.000648630222373006 0.00195944261450861
"61" -0.000234627572068767 0.000144488798871521 0.000534326970332929 0.00051253835679386 0.000613878238241178 -9.44646471283238e-05 9.64287911193154e-05 -5.50815939973379e-05 0.00089843174081131 0.00134830587252205 0.00027289039972771 1.67636758267992e-06 -0.00128572295118668 -0.000825948310953321 0.000628883643121169 0.00196720733366405
"62" -0.00026376436842433 0.000165631963112358 0.000534624913065105 0.000484422246338839 0.00059308001861817 -0.000117123487338077 5.68578740517638e-05 -5.00624372051375e-05 0.00088916442405127 0.00129811447343174 0.000253830641689308 -2.79811187018757e-06 -0.00127779107773123 -0.000828982387345163 0.00060865083230489 0.00197446207253599
"63" -0.000294052434460218 0.000187949232505681 0.000531800947148463 0.000454510073604172 0.000568050333193285 -0.00014103733241228 1.35328022676248e-05 -4.50274431575255e-05 0.000879833274848154 0.0012461789785092 0.000234578142641166 -9.50834528906168e-06 -0.00127038505708672 -0.000827539492811673 0.000588162230778653 0.00198089164589414
"64" -0.000325248947985114 0.000211321347482619 0.000525833867525469 0.000422987826086794 0.000538921256142347 -0.000166087150732714 -3.33128329468843e-05 -4.00402286265058e-05 0.000870554236309772 0.00119293570840501 0.000215272906566644 -1.8423231913469e-05 -0.00126358656475173 -0.000821542657686693 0.000567645588991268 0.00198618996996717
"65" -0.000357111461864758 0.000235613360412029 0.000516730583549578 0.000390047092427931 0.000505848803341073 -0.000192149252084635 -8.34088608796773e-05 -3.51655551744792e-05 0.000861441283157315 0.00113881476098727 0.000196047658993831 -2.94907959118663e-05 -0.00125745935864842 -0.000810956945255558 0.000547318724537248 0.001990068813739
"66" -0.000389388092270991 0.000260680454152825 0.000504520448496187 0.000355892286820286 0.00046902466176828 -0.000219093080239854 -0.000136469967467011 -3.04604269667257e-05 0.000852598186670692 0.00108423932314618 0.000177032659125516 -4.26476295138947e-05 -0.0012520602318125 -0.000795793492798554 0.000527392344503674 0.00199225794810225
"67" -0.000421835914157168 0.000286362668053071 0.000489258397015678 0.000320727808604123 0.000428664963542128 -0.000246780279321655 -0.000192185140542982 -2.59860282244304e-05 0.000844113647268648 0.00102962026161078 0.000158347053950232 -5.77981256827568e-05 -0.00124742584158499 -0.000776135303904891 0.000508055478689556 0.00199250889107355
"68" -0.000454206543156664 0.000312500617849251 0.000471024687864387 0.00028476259642616 0.00038501822297761 -0.000275066854141513 -0.000250214367828911 -2.17996722841811e-05 0.000836075341083689 0.000975352985879223 0.000140115951243274 -7.48380025899214e-05 -0.00124358373781173 -0.000752090214905981 0.000489490901873555 0.00199060213476579
"69" -0.000486252461448351 0.000338917927485848 0.000449923335379468 0.000248210825133009 0.000338350550938901 -0.000303804005344243 -0.000310213431035054 -1.7952542639952e-05 0.000828552664268123 0.000921816973315274 0.000122442119583617 -9.36388569951364e-05 -0.00124054379479617 -0.000723824718951436 0.000471863554930477 0.00198634401986745
"70" -0.000517737823601598 0.000365440149889899 0.000426090195232081 0.000211286640679776 0.000288964628409273 -0.00033284286976739 -0.000371812067077439 -1.44973934062897e-05 0.000821604048497838 0.000869367308623765 0.000105429481567951 -0.000114056404172222 -0.00123829934055401 -0.0006915635444876 0.000455316816939141 0.00197957225446407
"71" -0.000548426068637783 0.000391881758913039 0.00039967470662428 0.000174202081173943 0.000237168129177972 -0.000362030812708493 -0.000434622989391826 -1.14772176049911e-05 0.000815277387019018 0.000818340271008758 8.9174355686427e-05 -0.000135929219476442 -0.00123683070777206 -0.000655563633796367 0.000439977381041849 0.00197015686187884
"72" -0.000578087907142725 0.000418056013714959 0.000370857715532817 0.000137168248450542 0.000183303521031067 -0.000391208332534317 -0.000498255414526126 -8.93525282765063e-06 0.000809599517394353 0.000769039252643993 7.37534330175189e-05 -0.000159077356026087 -0.00123609842486963 -0.000616152557346069 0.000425949137163605 0.00195800122164679
"73" -0.000606508767373315 0.000443783043960822 0.000339835797741411 0.000100396058411194 0.000127722321065523 -0.00042022528163298 -0.000562304960744066 -6.9079503061152e-06 0.000804593042558561 0.000721744309407253 5.9243687816718e-05 -0.000183311329595 -0.00123605121981995 -0.000573675605821656 0.000413318321329086 0.0019430444597203
"74" -0.000633477395912542 0.000468878345308842 0.00030682523110184 6.40887663246847e-05 7.07873858977138e-05 -0.000448924981078343 -0.000626369087965359 -5.42428423724033e-06 0.000800266573559412 0.00067670605546216 4.57069570084147e-05 -0.000208426426978614 -0.00123661398523538 -0.000528524231813171 0.000402149332331448 0.00192525622322973
"75" -0.000658795548959739 0.000493166572335468 0.000272060351665097 2.84461957897168e-05 1.28782198230843e-05 -0.000477154923704197 -0.000690036229822247 -4.51236894149965e-06 0.00079661106578907 0.000634146641292572 3.31953242512106e-05 -0.000234204811090874 -0.00123770841114087 -0.000481120239199982 0.000392486908944997 0.00190464787748004
"76" -0.000682280460808571 0.000516477577226344 0.000235791080552454 -6.34403191272803e-06 -4.56248567805678e-05 -0.000504763985168857 -0.000752902033639506 -4.18613677505871e-06 0.00079361318450389 0.00059425407866717 2.17548803996488e-05 -0.000260426421373544 -0.001239231607061 -0.000431911231846128 0.000384361611891865 0.00188126051057674
"77" -0.000703764215175395 0.000538649737210888 0.000198274809221753 -4.00946625423076e-05 -0.00010433252307313 -0.000531607594398994 -0.000814568237658761 -4.45696161105495e-06 0.000791245037002468 0.000557186024747446 1.14139762141302e-05 -0.000286855876640564 -0.00124106657186818 -0.000381367394653208 0.000377776661919692 0.00185516857450849
"78" -0.000723086441278348 0.000559536018203199 0.00015978384499735 -7.2631339438117e-05 -0.000162862759803244 -0.000557541051961212 -0.00087464796919253 -5.32760042287056e-06 0.000789467833038654 0.000523065251217616 2.1951452261948e-06 -0.000313261349087505 -0.00124308777427155 -0.000329974076908628 0.000372722404525326 0.00182648148612714
"79" -0.000740114010402886 0.000579001659246652 0.00012058851541924 -0.000103792475697213 -0.00022082996350633 -0.00058242776767626 -0.000932765517416521 -6.79392948739167e-06 0.000788239737011898 0.000491990252858698 -5.89125726170101e-06 -0.000339404136508492 -0.00124515314552099 -0.000278213904586917 0.000369176854113684 0.00179533803323494
"80" -0.000754722270098487 0.000596931109285918 8.09703056610091e-05 -0.000133424453969483 -0.000277866670675728 -0.000606136211700749 -0.000988559063559793 -8.84085648740931e-06 0.000787509692329722 0.000464020349006684 -1.28432098014358e-05 -0.000365047891624378 -0.00124711378596268 -0.000226570634969074 0.000367100776004436 0.00176190870790661
"81" -0.000766807129145366 0.000613224586525234 4.1201898258473e-05 -0.000161387581163795 -0.000333602792976511 -0.000628544395918086 -0.00104169724425258 -1.14405486803579e-05 0.000787224816941469 0.000439187666887173 -1.86662043031692e-05 -0.000389956226608902 -0.00124880923079736 -0.000175525785801091 0.000366443401496538 0.00172638908637077
"82" -0.000776286325422622 0.000627798509107022 1.5614929319961e-06 -0.000187558417154282 -0.000387692770879558 -0.000649531402230354 -0.00109186573400186 -1.45663726152505e-05 0.000787320063029967 0.000417494910114467 -2.33831653515924e-05 -0.000413899411684005 -0.00125006656097717 -0.000125551320826818 0.000367136757090513 0.00168900053391712
"83" -0.000783093223916368 0.000640602597999889 -3.76888201758717e-05 -0.000211821025124278 -0.000439810849580296 -0.000668989707661245 -0.00113877869337822 -1.81759213913891e-05 0.000787742992113564 0.000398918809458418 -2.7014187426795e-05 -0.000436659994470317 -0.00125071857170561 -7.70655282735173e-05 0.000369120410302332 0.00164998989271081
"84" -0.000787181956141754 0.000651593501067471 -7.62886465837641e-05 -0.000234078760802864 -0.000489643115726316 -0.000686820155190552 -0.0011821791068169 -2.22179113897088e-05 0.000788424731172363 0.000383399951350981 -2.9597341051268e-05 -0.000458019997784328 -0.00125057708762572 -3.05054431473522e-05 0.0003723095477693 0.00160961799485761
"85" -0.00078852700862205 0.000660760449957788 -0.000113991173187113 -0.000254250981358612 -0.00053691004882187 -0.000702928862776566 -0.00122184450054633 -2.66332465123994e-05 0.000789310959509576 0.00037086656695525 -3.11688954337565e-05 -0.00047778035230482 -0.00124946474319554 1.37607771677808e-05 0.000376623597676833 0.00156817132176508
"86" -0.000787117947290803 0.000668112786687216 -0.000150566937810988 -0.000272269983588602 -0.00058134577981836 -0.000717237534415808 -0.00125758153560403 -3.13553396005425e-05 0.000790339578996364 0.000361212392243083 -3.17800128438406e-05 -0.000495751762754522 -0.00124719579695751 5.53879116014132e-05 0.000381977320893056 0.00152594399662414
"87" -0.000782976021087113 0.000673679714285049 -0.000185796791322077 -0.000288081845424667 -0.000622720767846015 -0.000729675530621731 -0.0012892366026646 -3.63103099436054e-05 0.000791453949888664 0.000354315383592479 -3.14828522998927e-05 -0.000511759014082334 -0.00124358876546242 9.40651330109236e-05 0.000388277109712837 0.00148324598738503
"88" -0.00077612615962339 0.00067751467822516 -0.000219485511242317 -0.000301652755434809 -0.000660834779902843 -0.000740177752553291 -0.00131669125077271 -4.14171546985434e-05 0.000792605401989275 0.000350031872396385 -3.03356758531864e-05 -0.000525646654228701 -0.00123846393810541 0.000129538955106138 0.000395437674071695 0.00144038988907797
"89" -0.000766623924224009 0.000679692061704571 -0.000251452520631017 -0.000312962681996339 -0.000695510463573882 -0.000748697891999925 -0.00133985514338727 -4.65880637318146e-05 0.000793741830595851 0.000348205611591255 -2.84034861090839e-05 -0.000537275451032289 -0.00123164593967175 0.000161591285539739 0.000403368137383016 0.00139769456525271
"90" -0.000754536334034442 0.000680306781856975 -0.000281539753420495 -0.000322003876989526 -0.000726613358257599 -0.000755194757909799 -0.0013586801355666 -5.17306105358567e-05 0.000794824389043414 0.00034865764779744 -2.57498924431925e-05 -0.00054652490414859 -0.00122297043945134 0.000190052665655402 0.000411976231047824 0.00135547808316692
"91" -0.000739950545974849 0.000679467689002139 -0.000309612579380958 -0.000328789397893242 -0.000754028235923217 -0.000759642324446557 -0.00137315866811521 -5.67516135981875e-05 0.000795810526665853 0.000351205933730733 -2.24432860851943e-05 -0.000553288967264109 -0.0012122723634764 0.000214800344198157 0.000421177962036265 0.00131405870957983
"92" -0.000722964687942356 0.000677305255661038 -0.000335556064446269 -0.000333339191616546 -0.000777682426009351 -0.000762021328587273 -0.00138330426648216 -6.15520518431744e-05 0.000796671055193783 0.000355653798132623 -1.85575640580387e-05 -0.000557491369304001 -0.00119941021286054 0.000235762421796135 0.00043088614581611 0.00127374516965055
"93" -0.000703695300914914 0.000673959420246337 -0.000359278198655231 -0.000335691986903946 -0.000797523932277323 -0.000762329658974464 -0.00138917270142884 -6.60354132684789e-05 0.00079737829682068 0.000361798451047314 -1.41620726350427e-05 -0.000559070949331771 -0.0011842436241153 0.000252904107825717 0.000441019133426992 0.00123483527918491
"94" -0.000682275888526701 0.00066957953210843 -0.000380707285201382 -0.000335900485739245 -0.000813538035023534 -0.000760571436952882 -0.00139084539387924 -7.01013771173891e-05 0.000797902988618818 0.000369428602499977 -9.32980029287412e-06 -0.000557982085757131 -0.00116664837422906 0.000266224755506608 0.00045149097387908 0.00119761026205127
"95" -0.000658843932323031 0.000664330272314234 -0.000399795423770639 -0.000334025051362121 -0.000825740802375673 -0.000756763017402528 -0.00138844012473944 -7.36582318138211e-05 0.000798233692900038 0.000378339546478221 -4.13544645723396e-06 -0.000554208317594253 -0.00114652292615588 0.0002757834026583 0.000462233746452647 0.0011623409646066
"96" -0.000633548363603453 0.000658375693300509 -0.000416519514560962 -0.00033014070547567 -0.000834172305697234 -0.000750938548684951 -0.00138209575173898 -7.66116740894715e-05 0.00079835157673589 0.000388318252129555 1.35713587651617e-06 -0.00054774772435702 -0.00112377356340679 0.000281664194169422 0.000473165437445939 0.00112927020734511
"97" -0.000606555596890709 0.000651886936438204 -0.000430873247668976 -0.000324332340828949 -0.000838901505446699 -0.000743133626793306 -0.00137197361197325 -7.88749107758997e-05 0.000798245749040611 0.000399157469942392 7.07409806375411e-06 -0.000538622048203361 -0.0010983277507836 0.000283980647054621 0.000484216604650057 0.00109861673750466
"98" -0.000578033556695903 0.000645038447301779 -0.000442870446491122 -0.000316694572593681 -0.000840021896028483 -0.000733398839680363 -0.00135826953767441 -8.03636031452895e-05 0.000797911781146654 0.000410657521574216 1.29502526040222e-05 -0.000526869837726574 -0.00107013351758163 0.000282890532036631 0.000495322962366926 0.00107057876439836
"99" -0.000548154306835483 0.000637998684596062 -0.000452548356424888 -0.000307332223572184 -0.000837655823599733 -0.000721798759079004 -0.00134118411857592 -8.10070327124733e-05 0.000797343587405555 0.000422621410304089 1.89243592052481e-05 -0.000512550905921141 -0.00103916221952872 0.00027857451601105 0.000506417228394326 0.00104531901439621
"100" -0.000517097604746496 0.000630933748019572 -0.00045996048253721 -0.000296354735497372 -0.00083194140795956 -0.000708404550545067 -0.00132094940841431 -8.07393329480577e-05 0.000796538062135818 0.000434862547988841 2.4938842943369e-05 -0.000495739737476757 -0.00100539860279006 0.000271227747271655 0.000517437447081011 0.00102296999580965
"101" -0.000485050423253657 0.000624005264876919 -0.000465175858338523 -0.000283882494839904 -0.000823046910689615 -0.000693297178079539 -0.0012978074758911 -7.94991352493231e-05 0.00079549967200207 0.000447203622568181 3.09338942200491e-05 -0.000476532509454262 -0.000968852359584085 0.000261072513130063 0.000528326755148491 0.00100363221627885
"102" -0.000452197134446529 0.000617364987825208 -0.00046828489392122 -0.000270036924849723 -0.000811148048587514 -0.000676569837800805 -0.00127200850067469 -7.72420687411909e-05 0.000794230966251584 0.000459486818360205 3.68633995218176e-05 -0.000455036529779868 -0.000929562159977991 0.000248363106371683 0.000539033284478496 0.000987370618591675
"103" -0.000418725904237542 0.000611155733161456 -0.000469390433367173 -0.00025495198628189 -0.000796447163109679 -0.000658324653957642 -0.00124382159835519 -7.39314775844809e-05 0.000792736856227166 0.000471555296742181 4.268044525555e-05 -0.000431381848057808 -0.000887580079291147 0.000233349447233902 0.000549502297165784 0.00097421727042585
"104" -0.000384827431959619 0.000605506531143955 -0.000468608806011486 -0.000238759065737258 -0.000779161313758278 -0.000638666778617973 -0.00121352227653221 -6.95407761884302e-05 0.000791024354389383 0.000483277869937137 4.83466063724919e-05 -0.000405707768121093 -0.000842984657797835 0.000216304740139116 0.00055969307862032 0.000964166349759346
"105" -0.00035068524253953 0.000600536792229145 -0.000466070956872905 -0.000221596329870428 -0.000759515894758638 -0.000617716999351273 -0.00118139138317793 -6.40585780232506e-05 0.000789103077236665 0.000494531755721891 5.38264122689406e-05 -0.000378163069508184 -0.000795882607197722 0.000197508343637764 0.000569557928304617 0.000957176052257445
"106" -0.000316490254190303 0.000596352333917532 -0.000461917300355647 -0.000203605431861664 -0.000737753411263948 -0.000595599751981296 -0.00114771762815861 -5.74789975558746e-05 0.000786985827008156 0.000505218671624348 5.90893834159684e-05 -0.000348920900837 -0.000746397380788273 0.000177258277128287 0.000579062509999987 0.000953173994338925
"107" -0.000282419869469963 0.000593039985601684 -0.000456301493298089 -0.000184926094051547 -0.000714123145002288 -0.000572443859634312 -0.00111278769038781 -4.98124345119027e-05 0.000784686258994056 0.000515248948698654 6.41130934876015e-05 -0.00031815108335642 -0.000694676964712102 0.000155846038115984 0.000588170997554831 0.000952049599599732
"108" -0.000248656967042861 0.000590669872676607 -0.000449383420322422 -0.000165704875709077 -0.000688887006932985 -0.000548387827356324 -0.00107689312308958 -4.10792882548547e-05 0.000782217018322901 0.000524554112644713 6.88825074682773e-05 -0.000286042560576006 -0.000640890890271557 0.000133561824032997 0.000596854894664152 0.000953666523742974
"109" -0.000215376852582972 0.00058930099519213 -0.000441330182377328 -0.000146081689616524 -0.000662306381388457 -0.000523572098147514 -0.00104032044180533 -3.13121065785283e-05 0.000779593516929423 0.000533080959736453 7.33792692239969e-05 -0.000252787290023454 -0.000585229925330439 0.000110713451669859 0.0006050881018382 0.000957853665787583
"110" -0.000182746797263205 0.000588969483605857 -0.000432317217592465 -0.000126202836766848 -0.000634656173083862 -0.000498144519151768 -0.00100335809678915 -2.05521877282147e-05 0.000776837248245704 0.000540791645951634 7.75988034360444e-05 -0.000218584553436661 -0.000527905946740597 8.75937405348733e-05 0.000612850884209867 0.000964418716306955
"111" -0.000150931216584776 0.0005896983547895 -0.000422521640320256 -0.000106207489818617 -0.000606205648267994 -0.000472248936797996 -0.000966282927282748 -8.85425848603739e-06 0.000773962530237117 0.000547665532678132 8.15404224094377e-05 -0.000183640635239232 -0.000469152362102315 6.44953517816492e-05 0.000620123558263055 0.000973141510270059
"112" -0.000120084505683422 0.000591492562338142 -0.00041212328532157 -8.62347066399283e-05 -0.000577228463976107 -0.000446037288608246 -0.000929375710428356 3.72380225625567e-06 0.000770993311315 0.000553699416320286 8.51995411765458e-05 -0.000148166933300565 -0.000409213201147328 4.17073522081019e-05 0.000626897863776871 0.000983784365129157
"113" -9.03589911479575e-05 0.000594337584048263 -0.000401307480801574 -6.64214806364698e-05 -0.000547996815528544 -0.000419660520719218 -0.000892897181123847 1.71079421898992e-05 0.000767947227341226 0.000558897883785286 8.85889423439937e-05 -0.000112367864327628 -0.000348356158073403 1.95017044894057e-05 0.000633161856237897 0.000996090808500316
"114" -6.18872945388333e-05 0.000598205789932571 -0.000390255079934897 -4.69003883149303e-05 -0.000518779605813718 -0.00039326687856426 -0.000857103887080925 3.12159052561617e-05 0.000764846239386791 0.000563281600050676 9.17122081509617e-05 -7.64559612146513e-05 -0.00028686098332895 -1.85355288152536e-06 0.000638909157575646 0.00100979408946318
"115" -3.48046811005078e-05 0.000603049144899777 -0.000379143201655757 -2.78021296247483e-05 -0.000489837204120429 -0.000367008000085593 -0.000822241494284252 4.59648761193969e-05 0.000761713626462445 0.00056688113709752 9.45846452459678e-05 -4.06396265172207e-05 -0.000225019593599969 -2.21051696848343e-05 0.000644137893986637 0.00102461701840096
"116" -9.23015467244339e-06 0.000608809602136274 -0.000368150659609709 -9.2448869681218e-06 -0.000461429667547373 -0.000341026228314023 -0.0007885397613474 6.12633406879758e-05 0.00075857072705793 0.000569739495755367 9.7218806256113e-05 -5.12691527580115e-06 -0.000163132033446337 -4.10139270518462e-05 0.000648848049600763 0.00104027914119861
"117" 1.47294960967078e-05 0.000615411194118217 -0.000357446656484873 8.65269240903531e-06 -0.000433802220889837 -0.000315465108254624 -0.000756213308034422 7.70100499044554e-05 0.000755437462822389 0.000571905060344743 9.96320699741191e-05 2.98835921673372e-05 -0.000101509920962597 -5.83607517675107e-05 0.000653045695641234 0.00105650204115554
"118" 3.69765495066798e-05 0.000622763562129682 -0.000347195233574482 2.57788419867707e-05 -0.000407188302178499 -0.000290460421464075 -0.000725467657486916 9.31034712480415e-05 0.000752337492245269 0.000573432723120628 0.000101844578244459 6.41979911409296e-05 -4.04716992578502e-05 -7.39512782902802e-05 0.00065673191314577 0.00107300199380678
"119" 5.74245064888916e-05 0.000630767380991824 -0.000337550790638218 4.20329980586168e-05 -0.000381812026951775 -0.000266142310733457 -0.000696478624399359 0.000109438724318333 0.000749286614407995 0.000574381014705619 0.000103870768101915 9.76270443180242e-05 1.96605181255667e-05 -8.76025374431736e-05 0.000659910811501356 0.0010895134582071
"120" 7.60071848903518e-05 0.000639306267389988 -0.000328659548180165 5.73183938944696e-05 -0.00035788009014562 -0.00024263548642535 -0.00066941154846514 0.000125911904301584 0.000746304715687732 0.000574814717605951 0.000105729761233465 0.00012999783946231 7.85650133105293e-05 -9.9166572493555e-05 0.000662593163986136 0.00110577597620465
"121" 9.2659361343577e-05 0.000648262464974927 -0.000320653544130787 7.15491214594678e-05 -0.000335580342084362 -0.000220051608893107 -0.000644410189166273 0.000142411205221484 0.000743408928882758 0.000574796388610802 0.00010744575419304 0.000161142222238731 0.000135925239881598 -0.000108506513271318 0.000664784349686692 0.00112154003176499
"122" 0.00010734158046508 0.000657498715627599 -0.000313654312367106 8.46495574601634e-05 -0.000315087710363726 -0.00019849903437301 -0.000621592501629593 0.000158833924974629 0.000740606698207224 0.000574389515323438 0.000109027567272576 0.000190908453734796 0.000191425542227936 -0.000115534482221353 0.000666487987334077 0.00113658039934338
"123" 0.000120022472288448 0.000666882644522197 -0.000307770410312909 9.65501552841095e-05 -0.000296550518936587 -0.000178073328424149 -0.000601060709759371 0.000175068071401122 0.000737915169106603 0.00057365259499418 0.000110496687851554 0.000219155371670063 0.000244752953641442 -0.000120166387237458 0.000667714017858142 0.0011506836899009
"124" 0.000130686225217153 0.00067626570569629 -0.000303090003967468 0.000107194764217988 -0.000280100254124576 -0.00015885591091298 -0.000582890421241732 0.000191017235822749 0.000735337734178371 0.000572648151037952 0.000111867859725684 0.000245761675465046 0.000295609062306512 -0.000122361848193299 0.000668467730248012 0.00116366486511106
"125" 0.000139332301577373 0.0006855055959751 -0.000299690138916231 0.000116538068781747 -0.000265845760727872 -0.000140919776462522 -0.000567135212109764 0.00020657828136943 0.000732879731460737 0.000571424247872591 0.000113153129941501 0.000270613972864633 0.00034371164953591 -0.000122107504101974 0.000668750993463807 0.00117535593136463
"126" 0.000145974912931737 0.000694450779151767 -0.000297633002989365 0.000124541391218439 -0.000253869432650714 -0.000124325910751994 -0.000553822960046721 0.000221656410399513 0.000730539620739976 0.000570027328678896 0.000114359307534549 0.000293623280682241 0.00038878865067305 -0.000119409171205094 0.000668567622641052 0.00118562070574359
"127" 0.00015064210232269 0.000702954403524946 -0.00029695695284 0.000131180341402715 -0.000244234687583132 -0.00010912209022955 -0.000542958842776345 0.000236159563273136 0.00072831815721037 0.00056849883673778 0.00011549522325084 0.0003147132906353 0.000430583960072612 -0.000114314392481345 0.000667920328381417 0.00119434591106898
"128" 0.00015337782431001 0.000710870308304439 -0.000297688187754622 0.000136442793945117 -0.000236976248517015 -9.53405652246109e-05 -0.000534527790748204 0.000250011539969482 0.000726203814395256 0.000566866682418833 0.000116564681600515 0.000333827365500701 0.000468866117630897 -0.000106893809461587 0.000666805436928525 0.00120144285524142
"129" 0.000154242036947018 0.000718056465844871 -0.00029983679642356 0.000140325910089392 -0.00023210307740046 -8.300025862763e-05 -0.000528491475640571 0.000263129275813628 0.000724190519212724 0.000565154707145136 0.000117570355544861 0.000350925250976003 0.000503425208408572 -9.72314820201942e-05 0.000665226731258601 0.00120685346004466
"130" 0.000153302038917051 0.000724374736773206 -0.000303386682484821 0.000142838780823415 -0.000229604032193577 -7.21114267727251e-05 -0.000524777171006209 0.00027545090157516 0.00072225886900493 0.000563373935335649 0.000118505508397725 0.000365987185555347 0.000534076981550111 -8.54659800911057e-05 0.000663177154519332 0.0012105422554239
"131" 0.000150644479299535 0.00072969615546571 -0.000308312111686426 0.000143998894601253 -0.000229442657413392 -6.2665811389594e-05 -0.000523310311098244 0.000286914119989251 0.000720389600592162 0.000561529094036389 0.000119371512993919 0.000379007988182751 0.000560661673335265 -7.17351260459946e-05 0.000660648559104102 0.00121250488749728
"132" 0.000146368960674167 0.000733901061662346 -0.000314571621569043 0.000143838163013862 -0.000231555611060674 -5.46434125587509e-05 -0.000523982021789388 0.000297466396697525 0.0007185675366764 0.000559610129431495 0.000120153540803025 0.000390002142662553 0.000583048936949423 -5.62003240835113e-05 0.000657643513906644 0.00121276062058063
"133" 0.000140582138174289 0.000736879130936731 -0.00032210437857018 0.000142396896321806 -0.000235861340209401 -4.80099009559056e-05 -0.000526670460335856 0.000307070580367694 0.00071676467055717 0.000557605571175079 0.00012084349842852 0.000399000175493869 0.000601139790691599 -3.90523624577368e-05 0.000654148432382864 0.00121135607154853
"134" 0.000133408841294907 0.000738534122980423 -0.000330832428417159 0.000139727385853694 -0.000242252926202397 -4.27209579585888e-05 -0.000531229696380165 0.000315693112685724 0.000714952077287006 0.000555483346748541 0.000121426633014742 0.00040605110177814 0.000614862447023212 -2.04949164214676e-05 0.000650156990308187 0.00120835725837879
"135" 0.000124976662278338 0.000738779958947046 -0.00034066766518786 0.000135888407239275 -0.00025060608666499 -3.87168905578183e-05 -0.000537510911467067 0.000323314955854549 0.000713099231269014 0.000553210413636899 0.000121888248421139 0.000411215278462082 0.000624182427939829 -7.41414835566037e-07 0.000645659884254126 0.00120385544007793
"136" 0.000115425078689827 0.000737545916531811 -0.000351507997120598 0.000130945892405668 -0.00026077973332353 -3.59302125627912e-05 -0.000545338298802385 0.000329925583399881 0.000711177805806449 0.00055074760277681 0.000122205409413011 0.000414572372295834 0.000629090744426895 1.99791155291318e-05 0.000640653972151206 0.00119796140130835
"137" 0.000104902339498115 0.000734779301137231 -0.00036324194405766 0.000124982127445744 -0.000272609896462324 -3.42811471897706e-05 -0.000554532569734254 0.00033552101056239 0.000709152292794519 0.000548037351247814 0.000122358650374832 0.000416208002580406 0.000629619678318351 4.14345910629094e-05 0.000635126165608294 0.00119080082798755
"138" 9.35579348765218e-05 0.000730441630374564 -0.000375743364629539 0.000118076893075651 -0.000285928409929922 -3.36796893011595e-05 -0.000564898195505288 0.000340110907562692 0.000706988506154813 0.000545027089425854 0.000122327242020172 0.000416225282920227 0.000625822961077475 6.33883399809008e-05 0.000629075431721195 0.00118251772870368
"139" 8.15572250782634e-05 0.000724510699870145 -0.000388882476702102 0.000110321654643215 -0.000300543039038946 -3.40274714468203e-05 -0.000576242754042479 0.000343716601426697 0.000704651867964236 0.000541652184806455 0.000122083841283769 0.000414732555363946 0.000617791467258951 8.55975911872389e-05 0.000622493540852803 0.00117326787832197
"140" 6.9056114634718e-05 0.00071697878508901 -0.000402518945085317 0.000101813753230009 -0.000316262068209963 -3.52196505665546e-05 -0.000588354871975756 0.000346362949060966 0.000702102387365397 0.000537844078486658 0.000121606695698137 0.000411855177364751 0.000605650815234886 0.000107817466487011 0.000615376799169549 0.00116321632092666
"141" 5.62182871603367e-05 0.000707857144871712 -0.000416509437373233 9.26505147423441e-05 -0.000332878758866587 -3.71456922326766e-05 -0.000601034038218502 0.000348088436190664 0.000699312520133047 0.000533535215679446 0.000120870795993056 0.000407713258579911 0.000589548993121025 0.000129824793745066 0.000607726732013902 0.00115254066085205
"142" 4.32099942045302e-05 0.000697174287437231 -0.000430711459712573 8.2936026960839e-05 -0.000350185284180213 -3.96848252061258e-05 -0.000614067389759047 0.000348935071011527 0.000696246508390914 0.000528651080535233 0.000119847106894453 0.000402441967817542 0.000569662807662402 0.000151386239715914 0.000599542490309208 0.00114141673491276
"143" 3.01914611851534e-05 0.000684974593163253 -0.000444969304154787 7.2779525723402e-05 -0.000367967641571291 -4.2720092057211e-05 -0.000627253934518962 0.000348956320246053 0.000692868170059177 0.000523119502192336 0.000118516757085222 0.000396175409867426 0.000546198400440064 0.000172277984760554 0.000590826344844337 0.00113002359717287
"144" 1.73234191852029e-05 0.000671311174701653 -0.000459140146191182 6.22865343538045e-05 -0.000386013899205618 -4.61232205648874e-05 -0.000640390085443137 0.000348215610828634 0.000689149637877177 0.000516869839595778 0.000116850329649785 0.000389048673969797 0.000519381223989317 0.000192299003546164 0.000581586382712976 0.00111854298617087
"145" 4.75976194841381e-06 0.000656264933476101 -0.00047307569026187 5.15667075505525e-05 -0.000404116821080543 -4.97722762130269e-05 -0.000653275493914613 0.000346770958649784 0.000685065028259439 0.000509833231382885 0.000114829219160264 0.000381200398570927 0.000489459404680699 0.000211266768417512 0.00057183568183414 0.00110715369965744
"146" -7.34915555028716e-06 0.000639917311171648 -0.000486632131444924 4.07255278970793e-05 -0.000422062640967573 -5.35413774902326e-05 -0.000665723459421143 0.000344695277710425 0.000680582907319639 0.000501942256694389 0.000112433827360122 0.000372762912273451 0.000456696360940919 0.000228998174386373 0.000561585070386647 0.00109602411896493
"147" -1.88609366300237e-05 0.000622365008011164 -0.000499672755819117 2.9869734276544e-05 -0.000439655770021834 -5.73053738966132e-05 -0.000677556381586157 0.0003420641804833 0.000675684364202729 0.000493138803572178 0.000109642488674151 0.000363868035413247 0.00042138152519647 0.000245338714489201 0.000550854207753588 0.00108531496858706
"148" -2.96417751306037e-05 0.000603720249915659 -0.000512061395959213 1.91031706430004e-05 -0.000456699067718526 -6.09441640285649e-05 -0.000688597428620713 0.000338951607660529 0.000670345450603898 0.000483366672668445 0.000106442414097176 0.000354645649306253 0.00038380419257309 0.000260146603927299 0.000539661314549836 0.00107518035369082
"149" -3.95688209325857e-05 0.000584099471676185 -0.000523678300258871 8.52647005172443e-06 -0.000473007700239956 -6.43373192250336e-05 -0.000698700355679376 0.000335436919090579 0.00066455363313086 0.000472582514582912 0.000102820077709985 0.000345213198996632 0.000344268693583419 0.000273314239672611 0.000528034474701669 0.00106575964934905
"150" -4.85327434012577e-05 0.000563629856127262 -0.000534404882795332 -1.76514162409647e-06 -0.00048841253153139 -6.73734572638977e-05 -0.000707716858544987 0.000331601820202901 0.000658294345639013 0.00046074688960614 9.87635615003244e-05 0.000335684589991982 0.00030308761940789 0.000284744798721068 0.000516003561999463 0.00105717650897964
"151" -5.64311402763005e-05 0.000542441569762146 -0.000544137222556328 -1.16822678013866e-05 -0.000502752842949533 -6.99428957215519e-05 -0.000715522791370352 0.000327524925643066 0.000651558567602773 0.000447830034826695 9.42710691276765e-05 0.000326164829650848 0.000260574783613593 0.000294365479491305 0.00050359987302356 0.00104954104208891
"152" -6.31746472829739e-05 0.000520672411729347 -0.000552777498827873 -2.11391230980952e-05 -0.00051588432428582 -7.19494054407443e-05 -0.000722000637034955 0.000323283709341484 0.000644340267039518 0.000433816946059179 8.93375284832496e-05 0.000316748559852576 0.000217042048215743 0.000302127218168314 0.000490859295615547 0.00104294108002181
"153" -6.87010735760281e-05 0.000498458759071061 -0.000560243703159607 -3.00565128656249e-05 -0.000527672061581429 -7.32989447645041e-05 -0.00072705720783274 0.000318956310178575 0.000636639697060909 0.000418700421975984 8.3967348925351e-05 0.000307519317493546 0.000172801392778711 0.000308003524506554 0.000477826556906444 0.00103744779944556
"154" -7.29449666075244e-05 0.000475942919915949 -0.000566468195998506 -3.83661405773615e-05 -0.000538009445118296 -7.39097008818966e-05 -0.000730617431769223 0.000314615999599433 0.000628460717111268 0.000402483999005827 7.8162740342614e-05 0.000298547777587488 0.000128156190380845 0.00031199462441846 0.000464541567044833 0.00103311284966152
"155" -7.58707372483563e-05 0.000453262188298274 -0.000571388591101619 -4.60047253928303e-05 -0.000546792598861902 -7.37064181774324e-05 -0.000732618720683819 0.000310330756763595 0.000619807811431087 0.000385186348508391 7.19370536322044e-05 0.000289896934988836 8.34053684002993e-05 0.00031411877707565 0.000451052880574588 0.00102996127705997
"156" -7.74566447969956e-05 0.00043055558821686 -0.000574966331421638 -5.29158822032357e-05 -0.000553949303939491 -7.26314451648487e-05 -0.000733016684729592 0.000306165089522991 0.000610694726548696 0.000366836343765756 6.53032216660672e-05 0.000281613042163021 3.88356802016245e-05 0.000314420219686348 0.000437412584140145 0.00102800045040588
"157" -7.76907723150652e-05 0.000407954174852769 -0.000577167141437439 -5.90557241053599e-05 -0.000559413224875439 -7.06290199645954e-05 -0.00073179013741201 0.000302178850873444 0.000601134434521326 0.000347474990821058 5.82787593479006e-05 0.000273732221183485 -5.28582802937538e-06 0.00031295531112954 0.000423672779843512 0.00102721387456937
"158" -7.65854405739708e-05 0.00038558785209323 -0.000577978756146586 -6.43871272538473e-05 -0.000563145732645379 -6.76638335395976e-05 -0.000728934603902279 0.000298424144502172 0.000591150251648665 0.000327157747172296 5.08891744601832e-05 0.000266275512047909 -4.87012187137026e-05 0.000309817157229669 0.000409889425474131 0.00102756465103315
"159" -7.4170313743919e-05 0.000363576737204508 -0.000577396188956277 -6.88807669342229e-05 -0.000565119314322584 -6.37084111783924e-05 -0.000724456552965532 0.000294942744018454 0.000580764992879132 0.000305950410367135 4.31622766539331e-05 0.000259250151652849 -9.11742747258028e-05 0.0003051074784081 0.000396122746387791 0.00102899147825509
"160" -7.04883434369283e-05 0.00034203657113378 -0.000575431338409185 -7.25204943992023e-05 -0.000565332350604546 -5.87468732424057e-05 -0.000718389595527772 0.000291777075324997 0.000570004339617961 0.000283929305198812 3.51263995595919e-05 0.00025265151609244 -0.000132486009021193 0.000298939836206142 0.000382429107361656 0.00103141301136759
"161" -6.55999797515637e-05 0.000321071856239123 -0.000572113110653526 -7.52966018971711e-05 -0.000563794841014223 -5.27803800817617e-05 -0.000710782128556142 0.000288955898528195 0.000558899006579026 0.00026118301353403 2.68178044332089e-05 0.00024646684623288 -0.000172436860202359 0.000291454738128081 0.000368869140392837 0.00103472847902966
"162" -5.9585392910443e-05 0.000300780840971044 -0.000567478753795308 -7.72109824127364e-05 -0.000560542201004981 -4.58214786734305e-05 -0.000701696223182937 0.000286497975227477 0.000547487392493481 0.000237810531585072 1.82735257858769e-05 0.000240660750190749 -0.000210852722667525 0.000282810589748615 0.000355507899211806 0.00103881598189982
"163" -5.25376391310483e-05 0.000281247230160018 -0.00056158393993493 -7.82712457565567e-05 -0.000555617708708711 -3.78935935160381e-05 -0.000691210176289221 0.00028441746413547 0.000535809938153826 0.000213921650845692 9.5387338048705e-06 0.000235198025720806 -0.000247580679876069 0.000273170220765183 0.000342407458321862 0.00104353650309537
"164" -4.45669841523355e-05 0.000262551115147646 -0.000554490972470089 -7.84982164853921e-05 -0.000549087756482741 -2.90344162678324e-05 -0.000679422502554575 0.000282721871706656 0.000523902932942286 0.000189628524514081 6.55048469927672e-07 0.000230025605328045 -0.000282494492369804 0.000262708800561981 0.000329627185782733 0.00104873573803089
"165" -3.57939424826585e-05 0.000244754320176116 -0.000546275229817333 -7.7919055840864e-05 -0.000541037198091592 -1.92915360792844e-05 -0.000666436893327741 0.000281403239268755 0.000511815032271461 0.000165057074480237 -8.33212369702877e-06 0.000225082292175157 -0.000315484347017481 0.000251606946193794 0.000317226821551526 0.00105424438947105
"166" -2.63587922132514e-05 0.000227907553723859 -0.000537027751163053 -7.65717526185875e-05 -0.000531559564142224 -8.72958487396928e-06 -0.000652380192212308 0.000280452824761949 0.000499593727455292 0.000140338233903413 -1.73698978455649e-05 0.000220295625772398 -0.000346470003098408 0.00024006384887656 0.000305269804902558 0.00105988121958651
"167" -1.64084789663694e-05 0.000212053488497179 -0.000526842105768657 -7.44994682281935e-05 -0.000520764781794965 2.58106932978383e-06 -0.000637382211356165 0.000279846994729778 0.000487287575238511 0.000115604014489403 -2.64103944411276e-05 0.000215590788784179 -0.000375396618311647 0.000228265934313864 0.000293808973836063 0.00106545849157525
"168" -6.09904526370433e-06 0.000197221643039955 -0.000515824756617394 -7.17527348650921e-05 -0.000508776562663693 1.45572445408933e-05 -0.000621592071958465 0.000279559370627219 0.000474946393349932 9.09882027999876e-05 -3.54012252882107e-05 0.000210885783068035 -0.000402224734735465 0.000216409843565115 0.000282896730812899 0.00107077233806274
"169" 4.39682489840023e-06 0.000183428380112089 -0.000504094026839038 -6.83918442772859e-05 -0.000495730686920708 2.71043749924511e-05 -0.000605158807338876 0.000279556337258491 0.000462626285100193 6.66337156388149e-05 -4.42893434805644e-05 0.00020608713317162 -0.00042694335657021 0.00020469568217227 0.00027258770177034 0.00107562825607404
"170" 1.4907413776916e-05 0.000170681952700335 -0.000491764140772616 -6.44817164867711e-05 -0.000481774633486191 4.01215549297136e-05 -0.00058825021334816 0.000279793240573195 0.000450378359220506 4.26773877949497e-05 -5.30225859010156e-05 0.0002011032904083 -0.00044956266615762 0.00019331184335034 0.000262928326368954 0.00107981800253458
"171" 2.5252032943106e-05 0.000158972578361613 -0.000478962770024503 -6.00938745524891e-05 -0.000467060491929113 5.34995031756419e-05 -0.000571026443282742 0.000280221234315175 0.000438261255918111 1.92587160976885e-05 -6.15526151608376e-05 0.000195839447199907 -0.000470108265585192 0.000182445075398675 0.000253959217870427 0.00108313874764083
"172" 3.52433928157818e-05 0.000148284401638336 -0.000465818441975356 -5.53000783062846e-05 -0.000451748958000993 6.71220439045829e-05 -0.000553663694483563 0.000280791013040397 0.000426324176403015 -3.49355721895355e-06 -6.98231754845809e-05 0.000190200518515657 -0.000488630156874333 0.000172260961421898 0.000245711965521785 0.00108539072107273
"173" 4.46978576934029e-05 0.000138591866862846 -0.000452462669347924 -5.01811179391386e-05 -0.000436011085294356 8.08694722476205e-05 -0.000536333796026288 0.000281443543349269 0.000414620845560349 -2.5442969153726e-05 -7.7789619450122e-05 0.000184091546271806 -0.000505193110937817 0.000162934653965384 0.000238221640368256 0.00108638214336527
"174" 5.34281375790467e-05 0.000129856983902342 -0.000439027936182204 -4.48208559019496e-05 -0.000420010670806067 9.46125124771036e-05 -0.000519214447433402 0.000282112913855797 0.000403206923261117 -4.64688341892078e-05 -8.54011696115632e-05 0.000177419006024904 -0.00051987624006947 0.000154613791080412 0.000231510481556989 0.00108592795639066
"175" 6.12534996286804e-05 0.000122037095500683 -0.000425643667534485 -3.92996263098297e-05 -0.000403927001320346 0.000108225708543503 -0.000502479027415604 0.000282742838114859 0.00039213056653441 -6.64535542452787e-05 -9.26142906063584e-05 0.000170092884933726 -0.000532771275595759 0.000147433252504611 0.000225597747901235 0.00108385976191464
"176" 6.7990913916704e-05 0.000115075616756001 -0.000412443008891322 -3.37043569776643e-05 -0.000387930308607993 0.000121577885952205 -0.000486297976005874 0.000283259242366891 0.000381439124175701 -8.52876260714492e-05 -9.9388912079946e-05 0.000162032630648416 -0.00054399106788662 0.000141512521067505 0.000220488819873526 0.00108001970325741
"177" 7.34706593306175e-05 0.00010891079025509 -0.000399547901005962 -2.81200706370202e-05 -0.000372189862835138 0.000134541423372069 -0.000470837867928447 0.000283601664309288 0.000371180656402438 -0.000102874513015104 -0.000105685110746927 0.000153159239982571 -0.000553645735788263 0.000136946984624843 0.000216186703170597 0.00107427132299064
"178" 7.75300124965707e-05 0.000103479629753361 -0.00038708443227355 -2.26297430777421e-05 -0.000356877066432791 0.00014698970304957 -0.00045626154595607 0.000283702509364122 0.000361396267351406 -0.000119125337735305 -0.000111469018186699 0.000143402452289609 -0.0005618629192427 0.000133819178221532 0.000212687669084845 0.0010664919162153
"179" 8.00109809504007e-05 9.87116921161571e-05 -0.000375167447178115 -1.73190157563542e-05 -0.000342155377141441 0.000158794550531521 -0.000442722833033526 0.000283491510989557 0.000352124199917638 -0.000133961372475177 -0.000116707392899648 0.000132705580384972 -0.000568772373125946 0.000132186302757042 0.000209979727403057 0.0010565827866554
"180" 8.07763586581443e-05 9.45325691575061e-05 -0.00036390636121295 -1.22637489849725e-05 -0.000328177416464646 0.000169837549095233 -0.000430365154393096 0.000282909046316644 0.000343404006752929 -0.000147318623179104 -0.000121376407022537 0.000121015198238519 -0.000574512396270731 0.000132090174109062 0.000208043366191271 0.00104447454511567
"181" 7.96956970174921e-05 9.08637417612208e-05 -0.000353401418595514 -7.54127832177383e-06 -0.000315092642696076 0.00018000592439897 -0.000419317608005782 0.000281894360372439 0.000335263912726019 -0.000159148401613609 -0.000125453808045462 0.00010829484157838 -0.000579217331090688 0.000133540546938932 0.000206848621704494 0.00103011171117905
"182" 7.66597329580421e-05 8.76294622255527e-05 -0.000343743572075576 -3.2255019828856e-06 -0.000303038614367934 0.00018918762786236 -0.000409701414776654 0.000280390152001606 0.000327729729627132 -0.000169415630086945 -0.000128921572870857 9.45182465322911e-05 -0.000583023448478676 0.000136524398868957 0.000206360083947016 0.00101346805843525
"183" 7.15730930844192e-05 8.47528052077265e-05 -0.000335016365005836 6.22617810180707e-07 -0.000292140899681823 0.000197289870509932 -0.000401626697893997 0.000278347580065527 0.000320827317661587 -0.000178089865162899 -0.000131765095308346 7.96670809548867e-05 -0.000586065839598389 0.000141021301502749 0.000206542579929147 0.000994546512738157
"184" 6.43576996586984e-05 8.21594951398304e-05 -0.000327290145658044 3.9395566572416e-06 -0.000282513187252263 0.000204218564232259 -0.000395183583926469 0.000275715259680429 0.000314571617128388 -0.000185168593771272 -0.000133978874019189 6.37433318728989e-05 -0.00058847887561724 0.0001469753921982 0.000207339609117926 0.000973372081713627
"185" 5.4961408845451e-05 7.97770307861914e-05 -0.000320627835454722 6.67329240211885e-06 -0.00027425222564201 0.000209895904780401 -0.000390442239271515 0.000272458170816363 0.000308978511774719 -0.000190653376939526 -0.000135560041399187 4.67534689290582e-05 -0.000590388272469382 0.000154317768140189 0.000208706296847416 0.000950000871883675
"186" 4.33418102623675e-05 7.75423374140909e-05 -0.000315073855529868 8.77774513846927e-06 -0.000267445053334553 0.000214254166875421 -0.000387467454640151 0.000268539727531258 0.000304054010088053 -0.000194566456340322 -0.000136511574137066 2.87287086878444e-05 -0.000591910448694197 0.000162955176759637 0.00021057989612071 0.000924507295096487
"187" 2.94861289037034e-05 7.53913786647984e-05 -0.000310669072158487 1.02160494542135e-05 -0.000262163253507155 0.000217241194813218 -0.000386303572829904 0.00026393453380334 0.000299805167964926 -0.000196940516990599 -0.000136836438960044 9.70261399397204e-06 -0.000593160312636159 0.000172787457355825 0.000212899826211307 0.000896996980427281
"188" 1.33993654180487e-05 7.32672355419486e-05 -0.000307435574213567 1.09604434418779e-05 -0.00025845216548584 0.000218811555317697 -0.000386966534982501 0.000258626363337062 0.000296226334582632 -0.000197822459943357 -0.000136547185570631 -1.02739716051145e-05 -0.000594236716215186 0.000183679278963655 0.000215596056230321 0.00086759648986367
"189" -4.89138104422368e-06 7.1130859335974e-05 -0.000305389543668202 1.09878595089659e-05 -0.000256352018788663 0.000218940101536472 -0.000389473545885945 0.000252607806809655 0.000293314950751301 -0.000197271376133157 -0.000135660235991334 -3.11380746603696e-05 -0.000595227508124535 0.000195505831489741 0.000218601926609552 0.000836457710665904
"190" -2.53428657511373e-05 6.89404629775239e-05 -0.000304529700213253 1.0288661799422e-05 -0.000255881860134678 0.000217611978198056 -0.000393807284140103 0.000245873808124129 0.00029106174308122 -0.000195359421433505 -0.000134194193944781 -5.28140330420507e-05 -0.000596213009183794 0.000208113365668283 0.000221847908974586 0.000803747386753579
"191" -4.78807084563495e-05 6.66710242599969e-05 -0.000304848634542666 8.86246178350989e-06 -0.000257041208707162 0.000214822659013993 -0.00039994130375808 0.000238434575749537 0.000289455154528526 -0.000192168809551178 -0.000132170595276825 -7.5220336888445e-05 -0.000597256989636981 0.000221350887570402 0.000225260208869787 0.000769658891101608
"192" -7.24210644142258e-05 6.43034560129053e-05 -0.000306324843562746 6.71227234867032e-06 -0.000259821774753736 0.000210590103165463 -0.000407833352116987 0.000230308407119897 0.00028847240338882 -0.000187797869423299 -0.000129618900258487 -9.82571544659814e-05 -0.000598407650791522 0.000235042307647433 0.000228760372878314 0.000734394927579581
"193" -9.88578904362219e-05 6.18327743708828e-05 -0.000308924170674051 3.85590465948418e-06 -0.000264187185518121 0.000204938680737265 -0.00041741912038489 0.000221518728900935 0.000288098688979619 -0.000182346532801727 -0.00012656822443358 -0.000121823093859234 -0.000599706597554355 0.000249030154265992 0.000232281149797116 0.000698174795657718
"194" -0.00012706110242742 5.92644688647373e-05 -0.000312610648826277 3.17157401318165e-07 -0.000270094013384276 0.000197912877530209 -0.000428628537718709 0.000212099745276372 0.000288305329032114 -0.000175928445990572 -0.000123050927170435 -0.000145808229051749 -0.000601169248374163 0.000263132417565718 0.000235748503876309 0.000661227922856544
"195" -0.000156892433915973 5.66135948430294e-05 -0.000317332344105134 -3.87104764696297e-06 -0.000277483523540569 0.00018956318985398 -0.000441366754829697 0.000202090931687672 0.000289067804420376 -0.000168662509115296 -0.000119101250813922 -0.000170090259534497 -0.000602808994498478 0.000277189392590858 0.000239090748170704 0.000623792767274269
"196" -0.000188195698048561 5.39073138961465e-05 -0.000323028898503703 -8.66678726708568e-06 -0.000286275952284026 0.000179959935657968 -0.000455529118886393 0.000191547234475146 0.000290353376840819 -0.00016067531608502 -0.000114758138848158 -0.000194547012993526 -0.000604612643152451 0.00029101713132374 0.000242239327162147 0.000586110105909988
"197" -0.000220795021047117 5.11866196018344e-05 -0.000329639734418307 -1.40236044571257e-05 -0.000296392377623437 0.000169179310744887 -0.000471003049843437 0.000180519597082737 0.000292134977783851 -0.00015209458972533 -0.00011005993960959 -0.000219053308377139 -0.000606562046581619 0.000304464362977909 0.000245132308678573 0.00054842905103211
"198" -0.000254512600192044 4.84980565133759e-05 -0.000337091484473283 -1.98829430495906e-05 -0.000307730143718079 0.000157314273067677 -0.000487660459796242 0.000169074762273551 0.000294373472944038 -0.00014305506983376 -0.000105045170068062 -0.000243476764281926 -0.000608619931199788 0.000317364118742351 0.000247703510894632 0.000510992058462815
"199" -0.000289151471276701 4.58993727789786e-05 -0.000345306440041548 -2.61865407968122e-05 -0.000320179877122343 0.000144462287202411 -0.000505365278202468 0.000157280195486052 0.000297038259568445 -0.000133692025544134 -9.97589335362875e-05 -0.000267688681900251 -0.000610739194874362 0.000329571580732015 0.000249900713678657 0.00047404354334293
"200" -0.000324511207054928 4.34601341314527e-05 -0.000354205169269113 -3.28642229159916e-05 -0.000333628291536391 0.000130733134822978 -0.000523972714565089 0.000145215365672181 0.000300089366031801 -0.000124142475821439 -9.4241693891435e-05 -0.000291554722337102 -0.000612854058861769 0.000340940406813513 0.000251667478830409 0.000437815567328251
"201" -0.000360384457336845 4.12529568591673e-05 -0.000363702202460204 -3.98462851224037e-05 -0.000347947609915548 0.000116246855898765 -0.000543336828721065 0.000132955762538893 0.000303488166181723 -0.000114540092052245 -8.8535672498602e-05 -0.000314951265957045 -0.000614897538636363 0.000351342648358901 0.000252957173447496 0.000402538874243226
"202" -0.000396557593678372 3.9365200998995e-05 -0.000373712234015058 -4.70534045638583e-05 -0.000363005656310597 0.000101123784214857 -0.000563295449894012 0.000120582651403398 0.000307196717265111 -0.000105020123327634 -8.26825522599671e-05 -0.000337749149748641 -0.000616784542600391 0.000360667858038093 0.000253730246366823 0.000368427957155004
"203" -0.000432821844779087 3.7882337986914e-05 -0.000384149773803015 -5.44079865603007e-05 -0.000378674933274495 8.54928950639783e-05 -0.000583698169371541 0.000108187036294839 0.000311180767382567 -9.57083068200603e-05 -7.67234459357626e-05 -0.000359829763639484 -0.000618421539682143 0.000368819636085078 0.000253952817134901 0.000335686950268214
"204" -0.000468958797295194 3.68985088270287e-05 -0.000394923542212957 -6.18298742683993e-05 -0.000394809530301004 6.94916727185946e-05 -0.000604382701593505 9.58494663945693e-05 0.000315395047611183 -8.67343851130044e-05 -7.07011605706892e-05 -0.000381077690443005 -0.000619715655598993 0.000375704468587369 0.000253589615577061 0.000304503526482716
"205" -0.000504759643034829 3.65122811077657e-05 -0.000405950236703174 -6.92322932190336e-05 -0.000411277771338192 5.3252363680775e-05 -0.00062519238675033 8.36639173572309e-05 0.00031980588662609 -7.82131322795784e-05 -6.46495534170982e-05 -0.000401382343530726 -0.000620554884940531 0.000381266575709424 0.000252627331790483 0.000275047374486708
"206" -0.000540014443475468 3.68191908803863e-05 -0.000417141066301224 -7.65338538283288e-05 -0.000427936054996273 3.69127865477678e-05 -0.000645965048788844 7.17155972449618e-05 0.000324372087460378 -7.02611504143145e-05 -5.86085601243373e-05 -0.000420646671080513 -0.000620834034636922 0.000385449209307939 0.000251044388015043 0.000247470382026384
"207" -0.000574522985014307 3.79206992629864e-05 -0.000428418016226203 -8.36502918677925e-05 -0.000444649087380343 2.06123391740904e-05 -0.000666544524106827 6.00925772134599e-05 0.000329064014227967 -6.29783464562405e-05 -5.26159894930832e-05 -0.000438779200599409 -0.000620440083995113 0.000388232368243948 0.000248838504682826 0.000221905920755951
"208" -0.000608090759129472 3.99137225718341e-05 -0.000439697403531212 -9.04982251699404e-05 -0.00046127972494873 4.48722966349378e-06 -0.000686785112837672 4.88778234294368e-05 0.000333839432007157 -5.64592446853881e-05 -4.67025449703121e-05 -0.000455698291985887 -0.000619262990897698 0.000389603753140328 0.000246008116070065 0.000198464651050587
"209" -0.000640532671165217 4.28920666915851e-05 -0.000450905688843405 -9.69986314936143e-05 -0.000477701747140224 -1.13326488920441e-05 -0.000706541563588032 3.8156861848806e-05 0.000338668891285438 -5.07908922256666e-05 -4.09000958417512e-05 -0.000471331916407467 -0.000617187828067724 0.000389572692857175 0.00024256225112293 0.000177233139611651
"210" -0.000671676679287019 4.69497998225171e-05 -0.000461974941391438 -0.000103071144456679 -0.000493786798758431 -2.67144140269121e-05 -0.000725672152825448 2.80066886638334e-05 0.000343522109337947 -4.60451376441685e-05 -3.52369566316494e-05 -0.000485624524907281 -0.000614106582871871 0.000388179330433938 0.000238515839766134 0.000158279351113208
"211" -0.000701357264749387 5.21728721833372e-05 -0.000472836277794819 -0.000108642929437009 -0.0005094154304475 -4.15368157275086e-05 -0.000744044375322047 1.85014915296767e-05 0.00034836879282341 -4.22841954853038e-05 -2.97374070292931e-05 -0.000498526513645377 -0.000609916064292533 0.000385469087639571 0.000233896200035864 0.000141649679625398
"212" -0.000729428748506659 5.86422981599875e-05 -0.00048343394095171 -0.000113643105487203 -0.000524477706031816 -5.5677863750773e-05 -0.000761545216259985 9.70844881058198e-06 0.000353186752554682 -3.95574331165651e-05 -2.44228769353799e-05 -0.000510008855400299 -0.000604512104648466 0.000381526314429043 0.000228736983598612 0.000127363071578459
"213" -0.000755758112794254 6.6429755328048e-05 -0.000493714885988187 -0.000118004460388561 -0.00053886969248144 -6.9028814005866e-05 -0.000778055071385474 1.69385624001238e-06 0.000357951768231886 -3.79040618301061e-05 -1.93128135051554e-05 -0.000520047008860321 -0.000597807925721878 0.000376444138607784 0.000223078926238723 0.00011541949515217
"214" -0.00078022429344823 7.56016854275406e-05 -0.000503633672462776 -0.000121667906200523 -0.000552493291270646 -8.14880615681739e-05 -0.000793473921469552 -5.48918375395006e-06 0.000362643190416706 -3.73492843003566e-05 -1.44223870621498e-05 -0.000528632580435048 -0.000589714428265079 0.000370333308830032 0.000216967664453568 0.000105796054872233
"215" -0.000802730975658022 8.6212403820947e-05 -0.000513153667668736 -0.000124578441841353 -0.000565268988383589 -9.29628756675066e-05 -0.000807716191252799 -1.17910528497677e-05 0.000367251988691197 -3.7902229486294e-05 -9.76185625591682e-06 -0.000535776724974739 -0.00058016196755878 0.000363344007573654 0.000210467241205406 9.84461769256879e-05
"216" -0.00082318630596248 9.83035166501976e-05 -0.000522239739096185 -0.000126687642780526 -0.000577114383296393 -0.000103365038694492 -0.000820697133901017 -1.71675761449041e-05 0.000371762124939749 -3.95593541332548e-05 -5.33705653589284e-06 -0.000541491814703055 -0.000569087359220065 0.00035562448268919 0.000203640621263678 9.3302660169061e-05
"217" -0.000841528051981442 0.000111912062660344 -0.00053087048542928 -0.000127950884643777 -0.000587968257076179 -0.000112630083561668 -0.000832353709193011 -2.15876962916764e-05 0.00037616719214918 -4.2314714552368e-05 -1.15796428032571e-06 -0.000545814126849945 -0.000556439365682482 0.000347345747598369 0.000196559353287401 9.02836501235378e-05
"218" -0.000857704428953459 0.000127057306360356 -0.000539029495623967 -0.000128336128418554 -0.000597777774644126 -0.000120689754823428 -0.000842629816450675 -2.50260448033762e-05 0.000380466892571131 -4.6134787878161e-05 2.7779985270531e-06 -0.000548785624845534 -0.000542182396504013 0.000338704385820328 0.000189302524064012 8.92815531230693e-05
"219" -0.000871680933662816 0.000143745466217617 -0.000546704899264584 -0.000127815034808689 -0.000606493500692229 -0.000127499389660906 -0.000851487705063988 -2.74638001197133e-05 0.000384656141814414 -5.09831452428456e-05 6.47300026757953e-06 -0.000550459463930175 -0.000526288544340916 0.000329898076353678 0.000181955886474903 9.01756394066503e-05
"220" -0.000883447520321741 0.000161975357851592 -0.000553897485264092 -0.000126362125332309 -0.000614090457954388 -0.000133020029752977 -0.000858890593222058 -2.8894478428061e-05 0.000388747234365732 -5.68092709776031e-05 9.93511048799718e-06 -0.000550910725508725 -0.000508749176520668 0.000321153649298747 0.000174616234694886 9.28345920590431e-05
"221" -0.000892998197954738 0.000181732230194663 -0.000560610232489387 -0.000123967619380049 -0.000620539793438266 -0.000137223703385822 -0.000864826466816238 -2.93191204872595e-05 0.000392746621495029 -6.35528444411963e-05 1.3169150049207e-05 -0.00055021078605783 -0.000489571485974161 0.000312696543864645 0.000167374085923479 9.71082078810757e-05
"222" -0.000900358111428994 0.000202983328375162 -0.000566852083392133 -0.000120624298456519 -0.000625837511932224 -0.000140100907559817 -0.00086928862393675 -2.87466337286303e-05 0.000396669186162158 -7.11409758345987e-05 1.61923773986933e-05 -0.000548453575375169 -0.000468770795579066 0.000304763244134113 0.000160333521748371 0.000102835112203538
"223" -0.000905559932286295 0.000225684416053511 -0.000572641529916157 -0.00011633218080587 -0.000629976106239775 -0.000141649429392342 -0.000872282759341376 -2.71985786743811e-05 0.000400530446005254 -7.94969130706918e-05 1.90148345882534e-05 -0.000545731148073956 -0.000446381490417932 0.000297594386441275 0.000153597494730919 0.000109847933053838
"224" -0.000908652221587103 0.000249782987950731 -0.000577998732766481 -0.000111097648141545 -0.000632972051423715 -0.000141880484893128 -0.000873827433105018 -2.46938696581748e-05 0.000404353476694653 -8.85284633264938e-05 2.16577071325055e-05 -0.000542153279761392 -0.000422451581804632 0.000291443730088903 0.000147273851962915 0.000117971654798645
"225" -0.000909702466588552 0.000275204992004397 -0.00058294851471237 -0.000104936789507048 -0.000634841497420289 -0.000140815271370986 -0.000873948533192942 -2.12738701567873e-05 0.000408158689343059 -9.8143372684226e-05 2.41401989226719e-05 -0.000537824838845483 -0.000397037662235165 0.000286542531243873 0.000141466012052568 0.000127025163184091
"226" -0.000908782388411615 0.00030187034529889 -0.000587522158641359 -9.7870156508554e-05 -0.000635610587672084 -0.000138492011877616 -0.000872687362064197 -1.69771942613854e-05 0.000411969516511375 -0.000108243187237817 2.64790275927327e-05 -0.000532862454852597 -0.000370215837153921 0.000283129107663421 0.000136277541024814 0.000136824115449615
"227" -0.000905984803405332 0.000329687208627197 -0.000591751148025784 -8.99224605297655e-05 -0.000635320651417865 -0.000134951672390634 -0.000870093625045909 -1.18542640259642e-05 0.000415818870363675 -0.000118719971176308 2.87018052932002e-05 -0.000527389979141075 -0.000342071745675129 0.000281448312937977 0.000131818325537554 0.000147191740376246
"228" -0.000901410052435649 0.00035854879524548 -0.00059567101787794 -8.11305145593476e-05 -0.000634015639400744 -0.00013025391464899 -0.000866218204888544 -5.96235496775234e-06 0.000419733797229189 -0.000129471256873318 3.08313686924713e-05 -0.000521524647738693 -0.000312697491832439 0.000281709701157079 0.000128180760304104 0.000157942080528248
"229" -0.000895165457476237 0.000388340470668384 -0.000599321299166838 -7.15326428292545e-05 -0.000631748468766895 -0.000124461247526509 -0.000861126880656933 6.40601516033975e-07 0.00042374227471851 -0.000140386205848937 3.28875995105759e-05 -0.00051539108450662 -0.000282202266308605 0.000284121115609233 0.000125463957666951 0.00016890357474509
"230" -0.000887371655400319 0.000418937172994978 -0.000602734183453197 -6.11688163591813e-05 -0.000628573104379072 -0.000117644983108759 -0.000854892369568767 7.88068436637572e-06 0.000427872866029603 -0.00015135696714102 3.48954247304731e-05 -0.000509109059519304 -0.000250696071771524 0.000288866978272978 0.000123752594960407 0.000179905055263424
"231" -0.000878151545519296 0.000450204277066705 -0.000605948697787812 -5.00891473770556e-05 -0.00062455903341446 -0.000109891545256272 -0.000847585838441526 1.56887700218564e-05 0.000432156864687593 -0.000162278181548959 3.6881217173424e-05 -0.000502799363190691 -0.000218305234852467 0.000296113632154549 0.000123128288979857 0.000190786007935964
"232" -0.000867630800709463 0.000481998314189187 -0.000609002779456888 -3.83444606841776e-05 -0.000619770827371504 -0.000101286813505271 -0.000839296343231677 2.39891041807667e-05 0.000436617444358088 -0.000173045134543214 3.88641355595852e-05 -0.000496574595555744 -0.000185154823437399 0.000305999102104818 0.000123659194153859 0.0002013999144553
"233" -0.000855943458338532 0.000514174564176785 -0.000611931015230629 -2.59918132223477e-05 -0.000614282721919682 -9.19232121343973e-05 -0.000830106585856373 3.27012577100401e-05 0.00044128331722047 -0.000183559066872711 4.08683530309144e-05 -0.000490547575978567 -0.000151377156402699 0.000318638315857163 0.000125409869092505 0.0002116104080115
"234" -0.000843223707979055 0.00054657566957892 -0.00061476334488957 -1.30864839994591e-05 -0.000608169659668581 -8.19052448895491e-05 -0.000820103658466735 4.1744391672258e-05 0.000446173480570184 -0.000193725976988029 4.2912292915625e-05 -0.000484816565479068 -0.000117103981435979 0.000334112379120244 0.000128423299882519 0.000221295602411745
"235" -0.000829604933654198 0.00057904521572377 -0.000617531783122683 3.06573979003151e-07 -0.000601506645416419 -7.13306761030899e-05 -0.000809377000539175 5.10329151806283e-05 0.000451306992982721 -0.000203457261949399 4.50124804742017e-05 -0.000479481294654186 -8.24779857511942e-05 0.000352470467050142 0.000132736432925158 0.000230348825372333
"236" -0.000815218820296986 0.000611425619016828 -0.000620263694464399 1.41315892392425e-05 -0.000594374000416545 -6.03080216314544e-05 -0.000798020884708358 6.04869462407665e-05 0.000456697851794534 -0.00021267283055822 4.71876978594261e-05 -0.000474630300119948 -4.76359479230179e-05 0.000373742899648052 0.000138374676274519 0.000238683208735425
"237" -0.000800193212030575 0.000643554546004287 -0.000622978285500166 2.83218938737753e-05 -0.000586842164928943 -4.89462099216165e-05 -0.000786124413837662 7.00177674913038e-05 0.000462356869509597 -0.000221300822623953 4.94487367580008e-05 -0.000470335779826194 -1.27097306110407e-05 0.000397900076490824 0.000145340364333653 0.000246226459119358
"238" -0.000784654780702547 0.000675277867182809 -0.000625700172782098 4.28171412831238e-05 -0.000578998565671462 -3.73503108500161e-05 -0.000773782242218466 7.9546602504232e-05 0.00046829227332851 -0.000229278053164894 5.18083185659901e-05 -0.000466667330177069 2.21593011671268e-05 0.000424904500242895 0.000153629280184557 0.000252932388106414
"239" -0.000768720526501755 0.000706436118988512 -0.000628437494011788 5.75506814069463e-05 -0.000570907753335213 -2.5630213212153e-05 -0.000761077930073511 8.89934694726852e-05 0.00047449662084315 -0.000236551262462193 5.42737112677992e-05 -0.000463677565320771 5.68472534406732e-05 0.000454664894976335 0.000163215761876635 0.000258762105685721
"240" -0.000752502885789179 0.000736873018818402 -0.000631199008019746 7.24634596067852e-05 -0.000562645530741967 -1.3890355081684e-05 -0.000748106927647696 9.82816877732569e-05 0.000480963084533541 -0.000243081592193158 5.684633365078e-05 -0.000461409021010852 9.12257724844045e-05 0.000487053818817138 0.000174059575765359 0.000263706410556879
"241" -0.000736108826894407 0.000766447204835016 -0.000633996241555668 8.74947039935189e-05 -0.000554284387296052 -2.23444814084062e-06 -0.00073494344060151 0.000107333669098295 0.000487690979501189 -0.00024882878209813 5.95332466739878e-05 -0.000459892619963045 0.000125168429974846 0.000521938933792056 0.000186113680722784 0.000267770684894767
"242" -0.000719631733897849 0.000795022400096785 -0.000636825039824487 0.00010258069830237 -0.000545886093369574 9.23941994254036e-06 -0.000721676354674419 0.000116083566704957 0.000494653804093988 -0.000253776226180156 6.23291342312865e-05 -0.000459147171874655 0.000158567029920094 0.000559126411467655 0.000199305275658527 0.000270977081789438
"243" -0.000703154153990424 0.000822464715416054 -0.000639681611380486 0.00011766930569259 -0.000537514055138132 2.04353602161275e-05 -0.000708378480485526 0.000124464953749056 0.000501831936638555 -0.000257912666516941 6.52293085656201e-05 -0.000459176134950464 0.000191312652878668 0.000598402809868089 0.000213551215609864 0.000273362679746017
"244" -0.00068675417897863 0.000848655939301643 -0.00064255929996227 0.000132702960168666 -0.000529223254182579 3.12637030322584e-05 -0.000695122951144054 0.000132422014079777 0.000509197063248476 -0.000261237923093845 6.82308466059163e-05 -0.00045997406132627 0.000223307413983367 0.000639534394276742 0.000228752942671576 0.000274985715916343
"245" -0.000670494142578752 0.00087349049765293 -0.000645445239665683 0.000147630435914304 -0.000521064310560845 4.16438278306315e-05 -0.000681975793659753 0.00013989829642675 0.000516714306677333 -0.000263759921215623 7.13177968532912e-05 -0.00046152094067463 0.000254456951874436 0.000682251862181979 0.000244803314976601 0.000275912040485444
"246" -0.000654426891085513 0.000896874902343095 -0.000648325433709397 0.000162404140709002 -0.000513086655493115 5.1497012693978e-05 -0.000668998247650486 0.000146849640364371 0.000524346578825111 -0.000265498524024229 7.44778029712971e-05 -0.00046378523005158 0.000284679447413818 0.000726278546172214 0.000261579467000015 0.000276223797236481
"247" -0.000638596621396111 0.000918729057276325 -0.000651179678851528 0.000176976392776205 -0.000505329460363172 6.07592839217793e-05 -0.000656245791885548 0.00015323653572349 0.000532047450996144 -0.00026648620771749 7.76982578554873e-05 -0.000466725534149448 0.000313904257238284 0.000771302838823528 0.000278942822944139 0.000276011868847697
"248" -0.000623030889398687 0.00093898684478273 -0.00065398902420988 0.000191307269200186 -0.00049782762087366 6.93698773066297e-05 -0.000643770336010241 0.000159028010691852 0.000539771341806405 -0.000266759509695212 8.09551384047754e-05 -0.000470289208250827 0.000342069202550245 0.000817012072763319 0.000296751559260808 0.000275372448680853
"249" -0.00060775193171785 0.000957602638994632 -0.000656727308052901 0.000205357307193568 -0.000490609947616303 7.72787408771034e-05 -0.000631615913226924 0.000164200856703614 0.000547466426960896 -0.000266365501552531 8.42328830847948e-05 -0.000474413398404592 0.000369114783987098 0.000863075909434743 0.000314853211966229 0.000274411904658272
"250" -0.000592766756546298 0.000974540657236331 -0.000659373905547523 0.000219091063377161 -0.000483701746831714 8.4445317704414e-05 -0.000619818002508987 0.00016873665396789 0.00055507746232689 -0.00026535936392244 8.75019133605079e-05 -0.000479027943793887 0.000395000568485344 0.000909160455794619 0.00033308800072719 0.000273235103370461
"251" -0.000578078967426333 0.000989785202967778 -0.000661899380603131 0.000232480175970116 -0.000477121186367262 9.08365451080964e-05 -0.000608412118924945 0.000172626250613618 0.000562547853271029 -0.000263802735987405 9.07450738580023e-05 -0.000484054533975602 0.000419690187786955 0.000954926355593986 0.000351286984219684 0.000271948139933903
"252" -0.000563678292423295 0.00100333566606478 -0.000664278938499562 0.000245496702015714 -0.000470879595458073 9.64305772735758e-05 -0.000597420841590973 0.000175868856597234 0.000569811438834092 -0.000261768445496094 9.39288799394679e-05 -0.00048940542170133 0.000443157368701455 0.00100002492644493 0.000369277804045088 0.00027065192812012
"253" -0.000549545214659689 0.00101521051780901 -0.000666484475161558 0.000258116985798721 -0.0004649874576905 0.000101214907442563 -0.00058686985229722 0.000178467727079966 0.000576814427431171 -0.000259326903356446 9.70299906266268e-05 -0.000494995311033666 0.000465385391881551 0.00104412865850685 0.000386885002064428 0.000269442754802759
"254" -0.000535657676352082 0.00102543871222126 -0.000668496256842541 0.000270317408499694 -0.000459453434647152 0.000105189008325602 -0.00057677425207361 0.000180439407370017 0.000583492009195842 -0.00025655717630144 0.000100014304655252 -0.000500724442922039 0.000486360939106807 0.00108691010484917 0.000403935827570649 0.000268413756499959
"255" -0.000521985402331106 0.00103406808308129 -0.00067028615825586 0.000282085445804219 -0.000454273685031092 0.000108358880235975 -0.000567146022071748 0.000181802251429396 0.000589780622896223 -0.000253544706372029 0.000102856582731473 -0.00050649766071585 0.000506088011894865 0.00112804441988503 0.000420250410154136 0.000267638474519816
"256" -0.000508495091316869 0.00104116595481304 -0.000671835633072713 0.000293404775627092 -0.000449450042842968 0.000110740179072108 -0.000557989556041464 0.000182579918790034 0.000595619708549701 -0.000250377246570588 0.000105523127122441 -0.000512214978852437 0.000524567438813746 0.00116723424168447 0.000435654364792661 0.000267186445115281
"257" -0.000495145087817874 0.00104679887537756 -0.000673119934729392 0.000304263864132223 -0.000444970371206157 0.000112355304872038 -0.000549309167371723 0.000182806039532272 0.00060094347357299 -0.000247143958774077 0.000107980501260179 -0.000517772780153058 0.00054181740974253 0.00120417883667164 0.000449969513058864 0.00026710644542209
"258" -0.000481898312110693 0.00105106361304971 -0.000674126160414135 0.000314651918462948 -0.000440838817566893 0.000113239321976944 -0.000541103520393098 0.000182521979865803 0.000605697364150291 -0.000243938129161518 0.000110200930308104 -0.000523073559830639 0.000557855792986739 0.00123862379474814 0.000463033604253924 0.000267437085901367
"259" -0.000468711928275653 0.00105405760138738 -0.000674842071983025 0.000324564200124623 -0.000437039539055783 0.000113433390107611 -0.000533372611664663 0.000181765447401534 0.000609821667676156 -0.000240852580324899 0.000112151405522498 -0.000528019962635237 0.000572705950312586 0.00127032088305983 0.000474681005856978 0.000268197324959395
"260" -0.000455542029552374 0.00105589321402909 -0.000675258185288786 0.000333991277067881 -0.000433567168344968 0.000112982324443208 -0.000526106471564379 0.000180590780383598 0.00061326273348226 -0.00023798403074951 0.000113798758829044 -0.000532518155075471 0.000586397614476968 0.0012990580097171 0.000484758248600722 0.0002693862976238
"261" -0.000442348886573789 0.00105669067945478 -0.000675369412788078 0.000342936214825906 -0.000430410494565346 0.000111942833630025 -0.000519303262368454 0.000179043070581769 0.000615971233865046 -0.000235425408895308 0.000115114658099182 -0.000536473855877934 0.000598966283376541 0.00132464120452658 0.000493116388320365 0.000270981094417646
"262" -0.000429097964768703 0.00105658335045606 -0.00067517753614503 0.0003513884829786 -0.000427566152453274 0.000110372120072196 -0.000512955299769281 0.000177183637555519 0.000617903383234692 -0.000233267041778447 0.000116068403334709 -0.000539807963707069 0.00061044490960249 0.00134692702988915 0.000499625632569344 0.000272944072597733
"263" -0.000415753711398743 0.00105569922105974 -0.000674686224819771 0.000359350383701822 -0.000425019434125323 0.00010833446176568 -0.000507048298551803 0.000175066882957266 0.000619014444680457 -0.000231608009902579 0.000116630927314489 -0.000542436997262015 0.000620879793883647 0.00136578063054608 0.00050415616589616 0.000275213988767555
"264" -0.000402284229643841 0.00105418613385092 -0.000673909280282234 0.000366823045643374 -0.000422769300042421 0.000105898173985888 -0.000501579126788925 0.000172755087927505 0.000619271740657666 -0.000230535882846642 0.000116776156132781 -0.000544295230433851 0.000630304214372953 0.00138112554579039 0.00050660639874899 0.000277708074007987
"265" -0.000388669880006955 0.00105218704964442 -0.000672862576394554 0.000373803200331897 -0.000420811009015172 0.000103132682232992 -0.000496538411389929 0.000170311833517085 0.000618650634940009 -0.000230137298161328 0.000116479329226793 -0.000545320815007415 0.000638761140634028 0.00139291377204682 0.00050687861771583 0.000280324645608236
"266" -0.000374887066848915 0.00104984807352033 -0.000671565228171779 0.000380290657956763 -0.000419141581451787 0.000100109484812176 -0.000491918134683494 0.000167795998352125 0.000617124551845205 -0.000230498216469168 0.000115716251284326 -0.000545455621727909 0.000646292567028927 0.00140113326155948 0.000504894552732165 0.000282941391236581
"267" -0.000360926612026616 0.00104732195172753 -0.000670053475378537 0.00038628562954872 -0.000417760503180475 9.69052212144267e-05 -0.000487715799913263 0.000165276682397903 0.000614689643116951 -0.000231694770056981 0.00011446607284637 -0.000544665465718904 0.000652939178659247 0.00140582635211914 0.000500601263328612 0.000285416664067689
"268" -0.000346783081073011 0.00104475794290639 -0.000668354841235494 0.000391792003466098 -0.000416675288534181 9.3592241500729e-05 -0.000483925371225195 0.000162814865352575 0.000611336486451629 -0.000233806002897604 0.00011271272407532 -0.000542916415547552 0.000658733062771598 0.00140706703553375 0.000493956227865889 0.000287595205317893
"269" -0.000332461787956272 0.00104230272229863 -0.000666512711078117 0.000396806906815249 -0.000415886351787121 9.02419519338937e-05 -0.000480542686905191 0.000160470773018159 0.000607075662281363 -0.000236896352032394 0.000110438912683509 -0.00054018769791054 0.000663716837985709 0.00140497156608325 0.000484940195876468 0.000289299254984183
"270" -0.000317968901480529 0.00104010074022641 -0.000664571418058847 0.000401334861515408 -0.000415404515016503 8.69260866501798e-05 -0.000477569192473352 0.000158303144527809 0.000601914532312249 -0.000241033057641722 0.000107635938728921 -0.000536471834471844 0.0006679199301208 0.00139969261533435 0.000473554905369793 0.000290340052874906
"271" -0.000303326031814285 0.00103829777302065 -0.000662585671566544 0.000405375987059884 -0.000415242598963788 8.37160954503975e-05 -0.000475005470392985 0.000156373750973567 0.000595888820726735 -0.000246265960758793 0.000104296486101619 -0.000531775702573354 0.00067136631513813 0.00139144685307212 0.000459829702693658 0.000290519298578521
"272" -0.000288553948196868 0.00103702276188009 -0.000660603242021341 0.000408932828559572 -0.00041541320833219 8.0676383890879e-05 -0.00047285213544794 0.000154731431199834 0.000589025042495879 -0.000252648346164516 0.000100414869546892 -0.000526114652420049 0.000674083671011229 0.001380455861306 0.000443804718876664 0.000289624769649664
"273" -0.000273689812846412 0.00103640882553862 -0.000658688513466997 0.000412008829422591 -0.000415928253848782 7.78721634384665e-05 -0.000471113020869067 0.00015343039308943 0.000581371189499009 -0.000260211840646646 9.59922201945647e-05 -0.000519517198045192 0.000676091627428194 0.00136701113348342 0.000425555345073366 0.000287441105182928
"274" -0.000258768504396668 0.00103657728347396 -0.000656900930139747 0.000414607942902526 -0.000416810912739384 7.5358963062287e-05 -0.000469794757037202 0.000152512576149479 0.000572986374960434 -0.000268996178511262 9.10347042378136e-05 -0.000512022195353818 0.000677400907675475 0.00135142269362474 0.000405173977364062 0.000283747986668037
"275" -0.00024383292210054 0.00103763268097608 -0.00065530402560747 0.00041673161059969 -0.000418073455743125 7.31928656482236e-05 -0.000468900339291936 0.000152021544873326 0.000563932471298053 -0.000279014043899544 8.55497900654712e-05 -0.000503681274925666 0.000678027127849644 0.00133403580608982 0.000382774193716342 0.000278324102589689
"276" -0.000228936098901765 0.00103968216030078 -0.000653964079359097 0.000418388847499316 -0.000419737638948076 7.14230346491404e-05 -0.000468430795785131 0.000151991668293091 0.000554285276657088 -0.000290285108779273 7.95528971449549e-05 -0.000494560458748761 0.000677967400046549 0.00131522852148922 0.000358498253411225 0.000270944896415952
"277" -0.000214130280024611 0.00104280540126577 -0.000652945939921021 0.000419585581057308 -0.000421817132505421 7.00929434275868e-05 -0.000468391109650762 0.000152452109389426 0.000544130473185411 -0.000302807466681455 7.30606594559867e-05 -0.000484723896085667 0.00067722710888242 0.00129539277663989 0.000332499382882299 0.000261398038065876
"278" -0.000199474642948557 0.00104708082462514 -0.000652311108577339 0.000420332045289125 -0.000424331931869773 6.92397904923237e-05 -0.000468785988730041 0.000153424520822658 0.000533559758250168 -0.000316574010279897 6.60958617947715e-05 -0.000474257404547103 0.000675798334739255 0.00127494822718969 0.000304959471088117 0.000249472853931909
"279" -0.00018502750751312 0.00105256481187095 -0.000652121395341472 0.000420635892393685 -0.000427293192605651 6.88989786490853e-05 -0.000469609358485971 0.000154930800324839 0.000522673310898267 -0.000331567219302595 5.86882362823794e-05 -0.000463246043239309 0.000673680234957539 0.00125432971587998 0.000276075609789689 0.000234971979647002
"280" -0.000170852411148569 0.00105929787958759 -0.000652432525147465 0.000420513947857421 -0.000430710990082232 6.90968171590893e-05 -0.000470855282487245 0.000156976918663243 0.000511572509607958 -0.000347766056891474 5.08639176179334e-05 -0.000451783818194456 0.000670856158831339 0.00123396437573682 0.000246060947122188 0.000217712944648928
"281" -0.00015701151421002 0.00106730614606516 -0.000653295727492026 0.000419979697109554 -0.00043459813045109 6.98536985033444e-05 -0.000472520630413065 0.000159564368493353 0.00050037627297341 -0.000365130616062621 4.26586498152864e-05 -0.000439966760504146 0.000667318894801866 0.00121430264402466 0.000215146224729594 0.000197529562899101
"282" -0.000143564149292456 0.00107659040137303 -0.000654754302015338 0.000419050254198562 -0.000438947209695088 7.1187906134477e-05 -0.000474584098076502 0.000162694619223844 0.000489194029625987 -0.00038361330168609 3.41149888830057e-05 -0.000427897591816898 0.000663052550536516 0.00119577232193927 0.000183573893617203 0.000174277539486702
"283" -0.000130574737956755 0.00108714147920369 -0.0006568417517097 0.000417748003188483 -0.000443760809553103 7.31096910922836e-05 -0.000477027402397709 0.000166354726464629 0.00047814699216253 -0.000403163286787283 2.52731178348695e-05 -0.00041568040386741 0.00065804796310628 0.00117879981350253 0.000151594741524913 0.000147832411867926
"284" -0.000118095517461047 0.00109892256471374 -0.000659586902268951 0.000416097853784512 -0.000449026405642043 7.56223006518171e-05 -0.00047982664431195 0.000170524216141525 0.000467351763972286 -0.000423717842128817 1.61753152095438e-05 -0.000403414463067037 0.000652287938282531 0.00116378883199456 0.000119469986236535 0.000118099638941346
"285" -0.000106181471502142 0.00111187877162961 -0.000663001677097377 0.000414123457775165 -0.000454721769277333 7.87318445930147e-05 -0.000482937178319479 0.000175184064688931 0.000456927010349563 -0.000445204371248465 6.87431577804434e-06 -0.000391201514213101 0.000645768594891442 0.00115111946794032 8.74668412091672e-05 8.50137237868594e-05
"286" -9.48837258979758e-05 0.00112593601222916 -0.000667090098916188 0.000411859620597236 -0.000460824776460634 8.2429839531296e-05 -0.000486319546872228 0.00018030121513514 0.000446990813303352 -0.000467546327863194 -2.58571679160607e-06 -0.000379139992610871 0.000638483706074469 0.00114114763294611 5.58519456052526e-05 4.85363434587036e-05
"287" -8.42389652265714e-05 0.00114099430003741 -0.000671838285928711 0.000409337368792308 -0.00046729319281562 8.6708852037813e-05 -0.000489920579573392 0.000185838670797819 0.000437654560876465 -0.00049065799218225 -1.21454137211043e-05 -0.000367319716429457 0.000630431350576614 0.00113417679328128 2.48940478267982e-05 8.66349992780875e-06
"288" -7.42809072503852e-05 0.00115693795935645 -0.000677222491934149 0.000406594252130747 -0.000474080400079336 9.15622247269461e-05 -0.000493675936533988 0.000191755423542963 0.000429023147329804 -0.00051445217722894 -2.17576258071579e-05 -0.000355827535210785 0.000621617434642301 0.00113048229575775 -5.14509326325684e-06 -3.45731308054557e-05
"289" -6.50397515338311e-05 0.00117362874040569 -0.000683204886126078 0.000403673519287932 -0.000481135684346928 9.69701847374166e-05 -0.00049751351477559 0.000198005564749837 0.000421199700019765 -0.00053883162515634 -3.13656269198442e-05 -0.000344742312651059 0.000612054938426688 0.00113029433330756 -3.40018566737212e-05 -8.11068192663584e-05
"290" -5.65265590030406e-05 0.00119091222299964 -0.000689728496110975 0.000400615401839877 -0.000488382249197683 0.000102918439250844 -0.000501355954705692 0.000204540642132879 0.000414278933132545 -0.000563691167267374 -4.09107284873801e-05 -0.000334132453399413 0.000601762968232511 0.00113379175826676 -6.14236954828259e-05 -0.000130831873909961
"291" -4.87498391806722e-05 0.00120861527598059 -0.00069672849574375 0.000397472169127883 -0.000495752772340579 0.000109385243974913 -0.000505107742143205 0.000211300964211763 0.000408343207038766 -0.000588931956771222 -5.0341062836967e-05 -0.000324059318767366 0.000590774738077548 0.00114109998390806 -8.7172588046571e-05 -0.000183605648014261
"292" -4.1705300676738e-05 0.00122654513487904 -0.000704117321044677 0.000394290380112942 -0.000503150421892934 0.000116345989312385 -0.000508666605587456 0.000218230842219497 0.000403463889019581 -0.000614439586812561 -5.95983022360889e-05 -0.000314569692101772 0.000579123816128075 0.00115228892927925 -0.000111022432691003 -0.000239249278774946
"293" -3.53774719443725e-05 0.00124450557290962 -0.000711801827290297 0.000391125994940339 -0.000510479562089036 0.000123779976231141 -0.00051193467510962 0.000225275787116041 0.000399708089967652 -0.000640100239104877 -6.86246448371274e-05 -0.000305705301198617 0.000566864009493958 0.00116738662766692 -0.000132751016439386 -0.000297539402428662
"294" -2.97334595019874e-05 0.00126227660658819 -0.000719670210766595 0.00038803551334023 -0.000517632805716596 0.000131659734866475 -0.000514783546312656 0.000232368534859452 0.000397121216299853 -0.000665807672427527 -7.73679775427263e-05 -0.00029748896959326 0.000554052638579872 0.00118634064132415 -0.000152169871106844 -0.000358222851231487
"295" -2.47362294977068e-05 0.0012796365609418 -0.000727600009111903 0.000385075258134011 -0.000524490528228013 0.000139958811795929 -0.000517102092266432 0.000239452061128144 0.000395743353760105 -0.000691437120215448 -8.5771921001812e-05 -0.000289939305996413 0.000540761539936857 0.00120907247521827 -0.000169096360298502 -0.000421003427926464
"296" -2.03289242887805e-05 0.00129636108620077 -0.000735459840516416 0.00038230565783766 -0.00053093228264959 0.000148646407941686 -0.000518754386523043 0.00024646659054465 0.000395600044575791 -0.000716874423410573 -9.37824450749871e-05 -0.000283059968574404 0.000527070104759739 0.00123543759177959 -0.00018337183476617 -0.000485554075482519
"297" -1.64457153598144e-05 0.0013122145533194 -0.00074310781510736 0.000379791841911706 -0.000536821024260991 0.00015769852179842 -0.000519613246671276 0.000253351375067354 0.000396700404478783 -0.000741994420825032 -0.000101349194869034 -0.000276846861509691 0.000513071640348371 0.00126524132268331 -0.000194857252140544 -0.000551512591118865
"298" -1.30086183249218e-05 0.00132696746712212 -0.000750390615466231 0.000377592470071109 -0.000542019182265285 0.000167082037112935 -0.000519541331913794 0.000260050201735995 0.000399041473841799 -0.000766681218009516 -0.000108419038230416 -0.000271278084163606 0.000498865255138502 0.00129823601218322 -0.000203437588892913 -0.000618485156685364
"299" -9.92195935858202e-06 0.00134039426770861 -0.000757158996273194 0.000375772297324352 -0.00054638310820003 0.000176773678907756 -0.0005184064764759 0.000266504798637059 0.000402614685901671 -0.000790804769791527 -0.000114940839910264 -0.000266331973732503 0.00048456079878166 0.00133415749556151 -0.000209014064186831 -0.000686050530140624
"300" -7.08634530944184e-06 0.00135227512120993 -0.000763253357905795 0.000374397841564599 -0.000549771951006621 0.000186740927174292 -0.000516069967352747 0.000272666490066386 0.000407389363371567 -0.000814242262913266 -0.0001208662920197 -0.000261974172681661 0.000470274218984685 0.00137267726168827 -0.000211512897083554 -0.000753763504275386
"301" -4.38364395258413e-06 0.00136239491747388 -0.000768510743551385 0.000373527685571509 -0.000552030221963431 0.000196959817571832 -0.000512394115950707 0.000278483323783323 0.000413323775832021 -0.000836872646755086 -0.000126151549165063 -0.000258156195782907 0.000456128877111742 0.0014134301467888 -0.000210891614799157 -0.000821157980818945
"302" -1.6902761197903e-06 0.00137056270190822 -0.000772772389499456 0.000373228558734988 -0.000553013103488219 0.000207404900976617 -0.000507253820670983 0.000283910444442315 0.000420374427099904 -0.000858562640864856 -0.000130748099580524 -0.000254835387192028 0.000442253829015743 0.00145604477814794 -0.00020711064387435 -0.000887742485016646
"303" 1.12664119544566e-06 0.00137658972294931 -0.000775878498008749 0.000373557276693424 -0.000552571970747795 0.000218050767554695 -0.000500512765772209 0.000288907063781934 0.000428477737582829 -0.000879183588584282 -0.000134611216260544 -0.000251950315866434 0.000428782401780268 0.00150010375834362 -0.00020017107676849 -0.000953021408350554
"304" 4.20957862542811e-06 0.00138030996296303 -0.000777675088985359 0.000374573579484593 -0.000550564428615961 0.000228874786726621 -0.000492056877788114 0.000293430438685694 0.000437565715057733 -0.000898604603281166 -0.000137701322362995 -0.000249440765273778 0.000415844218394251 0.00154516853983036 -0.000190089983302719 -0.00101648711421116
"305" 7.70415446717567e-06 0.00138158169048491 -0.000778014726051321 0.000376332673421733 -0.000546848412745796 0.000239856200466274 -0.00048176618898051 0.000297446184225206 0.000447560201821378 -0.000916690349186702 -0.000139977224931238 -0.000247242552183368 0.00040357732144531 0.00159079631070254 -0.000176905194662151 -0.00107762687839358
"306" 1.17587821728424e-05 0.00138027684584261 -0.000776753796680784 0.000378886439029706 -0.000541293947021123 0.000250978442016911 -0.00046953267280275 0.000300924421945339 0.00045837843879837 -0.000933310983236786 -0.000141400980228405 -0.000245280657794437 0.000392111488532855 0.00163651577448539 -0.000160677009127956 -0.00113593047351784
"307" 1.65269048189547e-05 0.00137629119520045 -0.000773762956184859 0.000382283765582601 -0.00053376967524502 0.00026222610706514 -0.000455263259218279 0.000303833497898955 0.000469930078491795 -0.000948324720135334 -0.00014193310605615 -0.000243491335924276 0.00038157721228854 0.00168186491366081 -0.000141484291818837 -0.00119089499084337
"308" 2.21579550283241e-05 0.00136954358795671 -0.000768914499698286 0.000386566529368813 -0.00052416345325824 0.000273583139617661 -0.000438867756027041 0.000306149196163114 0.000482113932471985 -0.000961603087832015 -0.000141545601066223 -0.000241790626241505 0.0003720968590406 0.00172634650582909 -0.000119433319374359 -0.00124202817087354
"309" 2.88006844522371e-05 0.00135998104997248 -0.000762102427747575 0.000391770049108362 -0.000512370555088392 0.000285044634664933 -0.000420274762026075 0.000307846390051872 0.000494837232579839 -0.000973002889479585 -0.000140204115988643 -0.000240110620126706 0.000363789693266317 0.00176950041800561 -9.46434397853032e-05 -0.00128885609720732
"310" 3.6598217180559e-05 0.00134756119746942 -0.00075322292118889 0.000397926033403624 -0.000498293950800138 0.000296600276213213 -0.000399420875221028 0.000308911792580807 0.000507985923636438 -0.000982396290551468 -0.000137881925336477 -0.000238367066858152 0.000356766640200197 0.00181081750360021 -6.72624700478429e-05 -0.00133092706538426
"311" 4.5686036222499e-05 0.00133227265679221 -0.000742188782859295 0.000405056875464772 -0.000481853887936606 0.000308247300556599 -0.000376254539576395 0.000309326715648536 0.000521455860161337 -0.000989650549518629 -0.000134558063850104 -0.0002364845300861 0.00035113163807207 0.00184982814156791 -3.74520548315924e-05 -0.00136781741269672
"312" 5.61843532189973e-05 0.00131412390543304 -0.000728929213764208 0.00041317731030245 -0.000462987356558631 0.0003199833686466 -0.000350749048841541 0.00030908147379255 0.000535132039772471 -0.000994642201712836 -0.000130211127930066 -0.000234385080265912 0.000346972541945088 0.00188605400305791 -5.39302759247836e-06 -0.00139913406842579
"313" 6.82065331761529e-05 0.00129313759719764 -0.000713380996318875 0.00042229048553087 -0.00044164511907212 0.000331808391051243 -0.000322884085101542 0.000308166820429373 0.000548895630839129 -0.000997253994693375 -0.000124832142752291 -0.000231984245874171 0.000344379688189609 0.00191901140871385 2.87103956598817e-05 -0.00142452865831481
"314" 8.18481231568602e-05 0.00126935981121349 -0.00069550172778642 0.000432391554774299 -0.000417796922775754 0.000343728349519218 -0.000292666762762283 0.000306581770288545 0.000562632991610377 -0.000997380058711442 -0.000118411883923258 -0.000229209941212919 0.000343420991511456 0.00194824552356028 6.46359882098623e-05 -0.00144369197000151
"315" 9.71905913755622e-05 0.00124284854604859 -0.00067525718905726 0.000443467118481375 -0.000391422969629424 0.00035574601746642 -0.000260111502903097 0.000304333825913229 0.000576211102499911 -0.000994930443656341 -0.000110952267726544 -0.000225977400625152 0.00034416274509494 0.00197328742382239 0.000102143670563869 -0.00145636056958715
"316" 0.000114292882995638 0.00121367913091555 -0.000652630546169554 0.000455486909146905 -0.000362532617124635 0.000367867874130328 -0.000225258104030612 0.000301425832400238 0.000589508638923761 -0.000989817791680977 -0.00010245709578386 -0.000222212280927457 0.000346648654426965 0.00199369858866079 0.000140979204415843 -0.00146232744686925
"317" 0.000133194510868612 0.00118193896029875 -0.00062762080716502 0.00046841407343217 -0.000331147067127371 0.000380099034484481 -0.000188163961383597 0.000297876449315897 0.000602394814553584 -0.000981987103207279 -9.29451559603836e-05 -0.000217835386730329 0.000350922079644666 0.00200904321057099 0.000180864158147119 -0.00146143657119149
"318" 0.000153910568383957 0.00114771927384543 -0.000600238610233792 0.000482196281753905 -0.000297313865977248 0.00039244680968125 -0.000148911770290354 0.000293708016946086 0.000614733988780356 -0.000971389868000185 -8.2439292680885e-05 -0.000212774035949622 0.000357013192127223 0.00201890843165317 0.000221514186485389 -0.00145359166207945
"319" 0.000176438449921402 0.00111112759005464 -0.000570508788138371 0.000496771703280557 -0.000261093503658187 0.000404917331586669 -0.000107590680396594 0.000288946686024492 0.000626388958762908 -0.000958013542013779 -7.09765374892652e-05 -0.000206954467275128 0.000364937378577505 0.00202288703326255 0.000262619398961352 -0.00143875524657225
"320" 0.000200746719181567 0.00107227295153124 -0.000538471566388964 0.000512063234300742 -0.000222571241553457 0.000417514875825096 -6.43232013396041e-05 0.000283627923869305 0.000637218969914277 -0.000941857850646262 -5.85952982180944e-05 -0.000200305526440469 0.000374699492681705 0.00202060156644843 0.000303863859272905 -0.00141694977512493
"321" 0.000226787258474891 0.00103127050120415 -0.000504180332868849 0.000527983926737003 -0.000181843004528573 0.000430242424352225 -1.92427124948483e-05 0.000277797933258064 0.000647080864500712 -0.000922954634252777 -4.53474284405247e-05 -0.000192762346836923 0.000386289633595947 0.00201170360953912 0.000344919526342868 -0.00138825792514276
"322" 0.000254484262758038 0.000988242434599575 -0.00046770406613264 0.000544433177459602 -0.000139037883049015 0.000443102124511743 2.74950591429735e-05 0.000271501187285702 0.000655830176186902 -0.000901355170702847 -3.12988617663624e-05 -0.000184265087470079 0.000399690717843886 0.00199586251171272 0.00038545087681832 -0.00135282392671751
"323" 0.000283737766333359 0.00094331154938173 -0.000429126778050128 0.000561303757571094 -9.42944264936449e-05 0.000456085413316978 7.57180995924855e-05 0.000264794221581042 0.000663328095808372 -0.000877140757486113 -1.65154528996424e-05 -0.000174761844410274 0.000414866354992852 0.00197279568432794 0.0004251189070084 -0.00131085024225659
"324" 0.000314430135487323 0.000896602780752552 -0.000388541473238226 0.000578473197897315 -4.77689458305296e-05 0.000469188435234838 0.000125243071635674 0.000257732887147093 0.000669427055083257 -0.000850413658930928 -1.07485474310355e-06 -0.000164206788041458 0.000431774457002008 0.00194224361600379 0.000463578275254407 -0.00126259757278426
"325" 0.000346427840659384 0.000848243645844699 -0.000346060698108561 0.000595813273934632 3.67152243236956e-07 0.000482398805893196 0.00017586036267186 0.000250383907400599 0.000673989541524096 -0.000821313388933962 1.49364856930503e-05 -0.000152562391674231 0.000450353561436012 0.00190399715277952 0.000500485221464933 -0.00120838131149407
"326" 0.00037956575080627 0.000798367053512307 -0.000301808034246925 0.000613188057898134 4.99212645629268e-05 0.00049569963101304 0.000227359094904978 0.000242813193364312 0.000676882244046278 -0.000789984181825818 3.14288460860544e-05 -0.000139802624772607 0.000470528919210063 0.00185789714966124 0.000535507156500677 -0.00114856616973336
"327" 0.000413674407659052 0.000747108450946763 -0.000255921642377484 0.0006304573175913 0.000100688875095782 0.000509066223701588 0.000279508587933725 0.000235092972372193 0.000677978599517758 -0.000756604536026735 4.83042595492687e-05 -0.000125918012838761 0.000492209202605305 0.00180384103794233 0.000568313556806166 -0.00108356205493211
"328" 0.000448567145384549 0.000694601029405174 -0.000208554656336405 0.000647471424018432 0.000152459535432044 0.00052247067536512 0.000332076992265351 0.000227284839633401 0.000677159012246259 -0.00072136835099133 6.54649854181019e-05 -0.000110903494632998 0.000515294228352469 0.00174177421923497 0.000598590310734178 -0.00101382303937593
"329" 0.000484040854914597 0.00064098742442162 -0.000159872423183106 0.000664084140874148 0.000204997778042283 0.000535879284077988 0.00038481986721543 0.000219466722601924 0.000674321196448634 -0.000684485519677567 8.28067489209768e-05 -9.47811000689357e-05 0.000539655550665934 0.00167172209575356 0.000626042998589822 -0.000939836528741427
"330" 0.000519887927654545 0.000586413558456696 -0.000110052732808233 0.000680141516875558 0.000258077230028596 0.000549252988750259 0.000437482707088694 0.000211701619132671 0.000669369576082709 -0.0006461783149964 0.000100223875324917 -7.75765254583e-05 0.00056516331260823 0.00159376004849267 0.000650393508904554 -0.000862126804571202
"331" 0.0005558911900865 0.000531028870963316 -5.92919232005543e-05 0.000695493984328488 0.000311446174913295 0.000562537200287867 0.000489819614517365 0.000204055571355581 0.000662228055131958 -0.000606683653512012 0.000117614587320103 -5.93405179583147e-05 0.000591663614540278 0.00150805185670621 0.000671390637920739 -0.000781238080426662
"332" 0.000591828321678468 0.000474985323930686 -7.79047144100038e-06 0.000709993997208158 0.000364858755268374 0.00057568423760472 0.000541572601429344 0.000196591432623151 0.000652837810373877 -0.000566243837715102 0.000134877133176926 -4.01361177536621e-05 0.000618987085108383 0.0014148241338543 0.000688812437123831 -0.00069773919070039
"333" 0.000627474689641195 0.000418445909921577 4.42330208219881e-05 0.000723492900891313 0.000418061934190591 0.000588631492112168 0.000592493883402079 0.000189361763241591 0.000641161565516643 -0.000525100406382799 0.000151909030480781 -2.0049032855361e-05 0.000646951918909226 0.0013143871904342 0.000702471300393175 -0.000612210066969748
"334" 0.000662606449622036 0.000361574381805002 9.65549901164516e-05 0.000735852129642396 0.000470800104236869 0.00060131498780482 0.000642324663734853 0.000182421657118828 0.000627172528991537 -0.000483509033478276 0.000168616825096744 8.25258291112674e-07 0.000675366063716185 0.00120711175997061 0.000712205676065765 -0.000525244210927816
"335" 0.000696997157806439 0.000304536171492896 0.000148938566029802 0.000746934925196319 0.000522818717829923 0.000613659565562929 0.000690824784924334 0.000175814161653249 0.000610876711439504 -0.00044171557018119 0.000184908037633121 2.23675225146461e-05 0.000704019085285993 0.00109345754400672 0.000717896035480022 -0.000437434376922622
"336" 0.000730432572343002 0.000247505868219748 0.000201144246225008 0.000756614409866652 0.000573862961608584 0.0006255925529231 0.000737755173051162 0.000169575670754318 0.000592291492205958 -0.000399967054637605 0.000200693823055526 4.44466665147026e-05 0.000732692043691134 0.000973941258477585 0.000719455118413827 -0.000349374446539088
"337" 0.000762698639750381 0.000190661057291988 0.000252924878212934 0.000764771353430549 0.0006236834335798 0.000637031924581789 0.000782881813363467 0.000163740575471785 0.000571462266598686 -0.000358506425785774 0.000215895161040755 6.69182650168702e-05 0.000761161195540911 0.000849158162492066 0.000716840981265484 -0.000261650878156473
"338" 0.000793589105585751 0.00013417416831699 0.00030402668201298 0.000771295422294947 0.000672039496549088 0.000647891986051441 0.000825986141037727 0.000158331777301798 0.000548451985742209 -0.00031757040862611 0.00023043626575204 8.96207486984374e-05 0.000789194469192975 0.000719752389563812 0.000710040244060248 -0.000174838076392934
"339" 0.0008229134267765 7.82223072723192e-05 0.000354200406155242 0.000776086672951007 0.000718688259800565 0.000658090995730492 0.000866852544103936 0.000153369310591652 0.000523344635414393 -0.000277384559946011 0.000244249325938309 0.00011238440574628 0.000816551306790392 0.000586424653152176 0.000699085893170348 -8.9494394078541e-05
"340" 0.000850482817903649 2.29813577246332e-05 0.000403199918947643 0.000779054982628029 0.000763410575806622 0.000667537725436975 0.000905287804143666 0.000148863399062998 0.000496239351739958 -0.00023817024634746 0.000257271937303946 0.00013503487358137 0.000843001692041029 0.000449914091081008 0.000684036185230183 -6.15752134221687e-06
"341" 0.000876131503664268 -3.13784583457721e-05 0.000450775454245656 0.000780121859504198 0.00080599072722733 0.000676143310768345 0.00094111072334018 0.000144814900825066 0.000467256941976307 -0.000200139996184564 0.000269446578077869 0.000157382192786021 0.000868302206587588 0.00031099657108089 0.000664992326767367 7.46593362350877e-05
"342" 0.000899700411083327 -8.46919022656949e-05 0.00049669115121858 0.000779223650921874 0.000846222011351856 0.000683821714358402 0.000974153079776112 0.0001412273703867 0.000436533210331559 -0.000163491944348678 0.000280725318530707 0.000179238843168391 0.000892227420339673 0.000170489732710345 0.000642088334495143 0.000152473694555396
"343" 0.000921055112854478 -0.000136806996367471 0.000540718545462214 0.00077630577286186 0.000883920615033388 0.000690485152268228 0.00100427063824741 0.000138089210521885 0.000404210718675895 -0.000128420041921001 0.000291059709388041 0.000200417630725098 0.000914549200424211 2.91892061323571e-05 0.000615480209743699 0.000226828469137523
"344" 0.000940066116178862 -0.00018757264127454 0.000582637157970634 0.000771329159792568 0.000918918314280727 0.00069604962212679 0.00103133103239777 0.000135390100642338 0.000370454706799758 -9.50965698014884e-05 0.000300416504699774 0.000220728158607573 0.00093505388995395 -0.000112068489646078 0.000585360554111467 0.000297307646731462
"345" 0.000956627531441045 -0.000236858137737848 0.00062224972581851 0.000764264131117409 0.000951062730101219 0.000700436271277465 0.00105522707884494 0.000133111523611952 0.000335425031360237 -6.36925361874646e-05 0.000308762488530025 0.000239987486983029 0.000953540180522379 -0.000252486166153345 0.000551937966129118 0.00036352740535244
"346" 0.000970651702852663 -0.000284541666274039 0.000659369309019516 0.00075509899021386 0.000980219058596879 0.00070356839309446 0.00107587089306503 0.000131229074399852 0.0002993066515918 -3.43610845744997e-05 0.000316064360624638 0.000258020584265233 0.000969817055175606 -0.000391255522814254 0.000515450003367093 0.000425150187865634
