"V1" "V2" "V4" "V5" "V7" "V8" "V10" "V11" "V13" "V14" "V15" "V17" "V18" "V20" "V21" "V23"
"1" 0.00106387490684137 0.000397500450135536 0.000974158174358796 0.000459610365126136 0.000523589885322673 -1.69672667992659e-05 0.00066004503077909 -0.00012737948239095 0.00108675042861179 0.00086481327967144 8.67518225143548e-05 -0.000354663260302116 -0.000302227845595016 0.000378786709572679 0.000550394538691419 0.000151667750253277
"2" 0.00106518759762637 0.000399174835541085 0.000972337985813934 0.000461027377557081 0.000523704196672323 -1.96558721751944e-05 0.000649642876925466 -0.000128925615148906 0.00109160026013962 0.000863842816824507 9.08245127729067e-05 -0.000352444152088448 -0.000298069238230478 0.00040883260028393 0.000567790787259117 0.000151629687851043
"3" 0.00106595691540385 0.000400330507244304 0.000970032868818412 0.000461898842735353 0.000523610666057417 -2.20965289925468e-05 0.000639025317244359 -0.000130803954265727 0.00109600595389409 0.000863889512804611 9.49272539098831e-05 -0.000350191408883427 -0.000293861088121405 0.000438100631195122 0.000584400153633373 0.000151609832827041
"4" 0.00106625405109137 0.000400989203625091 0.000967291509465296 0.000462267495606778 0.000523301370724203 -2.42749559773597e-05 0.000628297210258483 -0.000132966345514462 0.00109990185486651 0.000864927177300628 9.90350032537402e-05 -0.00034786473251735 -0.000289615908698743 0.00046648850491219 0.000600186352840353 0.000151611916011106
"5" 0.00106615346443356 0.000401173496330778 0.000964173628315105 0.000462184760361015 0.000522773233136133 -2.6175063810244e-05 0.000617566482320828 -0.000135365537816847 0.00110321016791399 0.000866924141946738 0.000103121282714001 -0.00034542737354749 -0.000285347235904085 0.000493894631968822 0.000615116894381799 0.000151646334352835
"6" 0.00106574201741582 0.000400925987113392 0.000960735699573052 0.00046171193885805 0.000522020740858475 -2.77863520843885e-05 0.00060694025829062 -0.000137942598689791 0.00110586987180477 0.000869833106137124 0.000107156252191573 -0.000342843066597813 -0.000281068859645135 0.000520224453908091 0.000629163054679885 0.000151722677795335
"7" 0.00106510123253303 0.000400277095540951 0.000957042071811431 0.00046090619712045 0.000521041752406872 -2.9092894356141e-05 0.000596526041181475 -0.000140639429293929 0.00110781371202688 0.000873608384507852 0.000111119296361421 -0.000340071785232348 -0.000276794314380784 0.000545386040976492 0.000642309541066074 0.000151848981385386
"8" 0.00106432443399839 0.000399278038379557 0.000953154319721033 0.000459838570376306 0.000519847191528959 -3.00809665758808e-05 0.000586425988947141 -0.000143391183399261 0.00110897986641869 0.000878186227682213 0.000114984185810064 -0.000337080805348654 -0.000272536373077177 0.000569290315226504 0.000654544031516458 0.000152033549682088
"9" 0.00106349633214701 0.000397971191337214 0.000949140241971968 0.00045857868379241 0.000518439417192964 -3.07413367577866e-05 0.00057674477252993 -0.000146135896665026 0.00110931526821138 0.000883498306420526 0.000118721956340715 -0.000333836647094027 -0.000268313945352872 0.00059185810068306 0.0006658611861734 0.000152291113711258
"10" 0.00106271102079076 0.000396415483796802 0.000945064017546796 0.000457200333355256 0.000516833242106761 -3.10621703730959e-05 0.00056757701530778 -0.000148802891189152 0.00110876321509704 0.000889472651730975 0.000122309073283001 -0.000330304827415802 -0.000264138477190356 0.000613013549693143 0.000676264710410216 0.00015262983971455
"11" 0.0010620527968126 0.000394664451556829 0.000940987693063789 0.000455779616716764 0.000515041957074635 -3.1034537701319e-05 0.000559015804837607 -0.000151325519117024 0.00110727911832009 0.000896023670226109 0.000125725921754787 -0.000326456355532294 -0.000260024161475798 0.000632687925421782 0.000685759035104604 0.000153059098703518
"12" 0.00106160843780472 0.000392778723293982 0.000936969337842732 0.000454394974575651 0.000513084904546189 -3.06490173065919e-05 0.000551146267108341 -0.000153637505280238 0.0011048237852762 0.000903067831778102 0.000128946622628545 -0.000322265002712331 -0.000255987649467984 0.00065081637109479 0.000694364089790233 0.000153593822749787
"13" 0.00106146103428111 0.000390820298151882 0.000933077227016408 0.00045312547176722 0.000510977669674746 -2.9901654532595e-05 0.000544040544169089 -0.000155674535825477 0.00110135641769417 0.000910508911039876 0.000131954633159901 -0.000317706764982599 -0.000252042682224805 0.00066734734288583 0.000702098294104134 0.000154238097958823
"14" 0.0010616777623473 0.000388852036931023 0.000929358339742865 0.000452050044478855 0.000508740810258827 -2.87839934880466e-05 0.000537769891638378 -0.000157375819369731 0.00109685298679398 0.000918254440816361 0.000134725308731074 -0.000312757550364439 -0.000248202852880863 0.000682232644590332 0.000708984448478184 0.000155005965547252
"15" 0.00106233601732225 0.000386942040390387 0.000925870755486881 0.000451244691953882 0.000506399415054077 -2.72964253579245e-05 0.000532387086304063 -0.000158679713237636 0.00109128844668505 0.000926200195800227 0.000137242728880584 -0.000307402086452332 -0.000244482765915403 0.000695433937828532 0.000715056445111285 0.000155902829836753
"16" 0.00106349088872551 0.000385152073102705 0.000922659744485463 0.000450787654399407 0.000503974849395433 -2.54390777779466e-05 0.000527942274771781 -0.000159531486502919 0.00108464668925553 0.000934246558097358 0.000139493869581464 -0.000301624557772872 -0.00024089928667404 0.000706919063795718 0.000720345999787811 0.000156937322600214
"17" 0.0010651965750313 0.000383550711434223 0.00091977081768631 0.000450748828048674 0.000501490687771496 -2.32104073550299e-05 0.000524469112926817 -0.000159883187130369 0.0010769194855945 0.00094228840196715 0.000141459384407804 -0.000295414786899752 -0.000237464519324208 0.000716667066444848 0.000724890586401633 0.000158116682082456
"18" 0.0010674978294188 0.000382200726361053 0.000917238241877115 0.000451202035085046 0.000498969843320421 -2.06181839826449e-05 0.000521988812783557 -0.000159688453168685 0.00106810775328022 0.000950225690610762 0.000143130440667877 -0.000288766100807644 -0.000234193059730819 0.000724666664194295 0.000728731350217317 0.000159443289001913
"19" 0.00107042835902131 0.0003811662005595 0.000915095340864611 0.000452209489547557 0.000496438528181798 -1.76654706683419e-05 0.000520513624162599 -0.000158911832006342 0.00105821382721893 0.000957954314184817 0.000144494543103697 -0.000281673102683264 -0.000231098269339971 0.00073091049168356 0.000731914365305025 0.000160921759549251
"20" 0.00107400867460429 0.000380507459737624 0.000913367019032723 0.000453835597063182 0.000493920811298371 -1.43633405719517e-05 0.000520043030883089 -0.000157520203809569 0.00104725537706306 0.000965379149944508 0.00014554306734806 -0.000274137251781514 -0.000228194016085315 0.000735404042770778 0.000734477480121862 0.000162556913628249
"21" 0.00107826007125695 0.000380286129876773 0.000912074064748103 0.0004561335174229 0.00049143337440776 -1.07255516350006e-05 0.00052056196404362 -0.000155490076237695 0.0010352500019247 0.000972396465224878 0.000146267101892814 -0.000266165257135897 -0.000225496914871918 0.000738159647105953 0.000736472498263375 0.000164345621856992
"22" 0.0010831779615232 0.000380554380337843 0.000911232677542355 0.000459153848899689 0.000489005056077783 -6.76284247733764e-06 0.000522049904107816 -0.000152806228743841 0.00102222870294639 0.000978919068102206 0.000146661007840005 -0.000257764177034121 -0.000223015923936215 0.000739199850506993 0.000737939377601635 0.000166288024873626
"23" 0.00108875945588473 0.000381368678825078 0.000910849008408975 0.000462940630114709 0.000486653322672767 -2.49308969661468e-06 0.000524466454239672 -0.000149459326261333 0.00100822578336893 0.00098485888370855 0.000146720778050071 -0.000248946675813701 -0.00022076729379427 0.000738554312339594 0.000738927693099435 0.000168386348311993
"24" 0.00109499212937219 0.000382772264948427 0.000910924369915636 0.00046752969607179 0.000484393044739698 2.06238051249375e-06 0.000527761281066686 -0.000145449989105535 0.000993283430738063 0.000990135095526695 0.000146443458129326 -0.000239731165158567 -0.00021876403319328 0.000736260529173581 0.000739479701958639 0.000170631342768618
"25" 0.00110184003135687 0.000384808550697035 0.000911456038851798 0.000472948153077016 0.000482247205501361 6.88182153463121e-06 0.00053187844431665 -0.000140783716643999 0.00097745363352315 0.000994676715474559 0.000145827583584019 -0.000230136171730148 -0.00021701748350771 0.000732365194352116 0.000739638983495101 0.000173020571457811
"26" 0.00110927268783794 0.000387518442584191 0.000912433243443755 0.000479217049205741 0.000480226012201102 1.19427211317671e-05 0.000536748970212561 -0.000135479880019238 0.000960791099986959 0.000998414321599646 0.000144875392549703 -0.000220185482791437 -0.000215539742070308 0.000726922010263693 0.000739443510002218 0.000175546228195914
"27" 0.00111725187078567 0.000390933085403232 0.000913843643688956 0.000486352427393163 0.000478343422560302 1.72154543070084e-05 0.000542293326776767 -0.000129561989512457 0.000943360954264002 0.00100129498883439 0.000143586830832471 -0.000209907345963743 -0.000214348882468283 0.000719990088296775 0.000738931905874234 0.000178198927918908
"28" 0.00112571322646058 0.000395077229458712 0.000915662803584354 0.000494354395639993 0.000476612139882201 2.26721551364908e-05 0.000548422148492199 -0.00012306325774914 0.00092523316104406 0.00100327221667639 0.000141963549553829 -0.000199331675590664 -0.000213450858283043 0.0007116375772276 0.000738138220769953 0.000180970062029472
"29" 0.0011346029615828 0.000399976503583188 0.000917868691929853 0.000503220946320006 0.000475036672266552 2.82827190931189e-05 0.000555045880740636 -0.000116021816841037 0.000906483912046144 0.00100430636750414 0.000140010490385199 -0.000188493236210535 -0.000212859657543883 0.000701940508328849 0.000737092612299138 0.000183843989427189
"30" 0.00114385578515418 0.000405641174525439 0.000920432022325963 0.000512939744781192 0.000473620495536092 3.40120168534102e-05 0.000562058061220466 -0.000108486436001381 0.000887192115474384 0.00100437612969212 0.00013773270470247 -0.00017742758352801 -0.000212589772792913 0.00069097517361048 0.000735819160885574 0.000186813435710093
"31" 0.00115339439322552 0.000412079646206951 0.000923317840181393 0.000523491034030042 0.00047237531720051 3.98273400819374e-05 0.000569359542789688 -0.000100510676630503 0.000867443253302788 0.00100346555556402 0.000135133802769949 -0.000166173063548774 -0.000212649710734844 0.000678828925062898 0.000734340303147806 0.000189857521698989
"32" 0.00116315278696037 0.000419302119262058 0.000926493041930597 0.000534846477545636 0.000471291986064355 4.56907299357205e-05 0.000576834649557809 -9.21574435074137e-05 0.00084733433736747 0.00100157472212755 0.000132225697029611 -0.000154771934082705 -0.000213050069051594 0.000665587122262225 0.000732671649740242 0.00019296180806291
"33" 0.00117304024828758 0.000427295820535948 0.000929918315950188 0.000546967206137392 0.000470373596898764 5.15687299707825e-05 0.000584372418275868 -8.34929736676994e-05 0.000826953721179728 0.000998706532231263 0.000129010974552298 -0.000143266156636382 -0.000213805410856057 0.000651342965577538 0.000730822465738535 0.000196110815695703
"34" 0.00118298242534399 0.000436054836424453 0.000933550012098151 0.000559809645372185 0.000469616637418244 5.74204509441275e-05 0.000591862679955264 -7.45858276831403e-05 0.000806402322017053 0.000994885091615323 0.00012550089449015 -0.000131699150312295 -0.000214922850091243 0.000636194386885347 0.000728798875513639 0.000199281232575382
"35" 0.00119289822077715 0.000445561595009301 0.000937348711202574 0.000573324374662543 0.000469015663340916 6.3209870525947e-05 0.00059918739532346 -6.55161247523705e-05 0.000785780795376687 0.00099013887982218 0.000121704170453612 -0.000120116600884186 -0.000216412343583018 0.000620238670313685 0.000726603693620143 0.000202455683306764
"36" 0.00120270298528423 0.000455799317718432 0.000941268621575475 0.000587451924047377 0.000468557813918693 6.8897806995545e-05 0.000606239794137715 -5.6363010786426e-05 0.000765188070475268 0.0009845117482962 0.000117625857123815 -0.000108562983396439 -0.000218286541507249 0.000603576870847403 0.00072422655938918 0.00020561252224521
"37" 0.00121232054378201 0.000466734963689125 0.000945269555206578 0.000602127910694947 0.000468240368998733 7.44450580922155e-05 0.00061290643016131 -4.72089709732681e-05 0.000744728059969025 0.000978057874330709 0.000113280566846485 -9.70889540919804e-05 -0.000220550973010538 0.000586307182025862 0.000721660976710149 0.000208731155302977
"38" 0.00122166680498359 0.000478338790677569 0.000949309382484849 0.000617283099946516 0.00046804850294735 7.98143875146554e-05 0.000619085850301464 -3.8139340050071e-05 0.000724503909580803 0.000970833676991124 0.0001086774366513 -8.57359730731479e-05 -0.000223215780000949 0.000568531513716627 0.000718885011739116 0.000211786067403304
"39" 0.00123067118209267 0.0004905719371186 0.000953339622075136 0.000632840671925598 0.000467966655392725 8.49693546850128e-05 0.00062467683314518 -2.92388206433019e-05 0.000704622168995544 0.000962916424862141 0.000103826917706662 -7.45526840494084e-05 -0.000226286950916604 0.000550352067042405 0.000715881153784698 0.000214751922776454
"40" 0.00123926919477245 0.000503395874789549 0.000957324412005512 0.000648724126210714 0.000467987235009045 8.98744351941185e-05 0.000629588184791823 -2.05975568710468e-05 0.000685179002934089 0.000954383336595458 9.87368376944209e-05 -6.35830747609841e-05 -0.000229772502690366 0.000531869336831598 0.000712619133780639 0.0002176065805602
"41" 0.00124738957025204 0.00051675879106365 0.000961222023812167 0.000664848628186264 0.00046809349856001 9.44949198306066e-05 0.000633735738692169 -1.22970986120756e-05 0.000666273833948682 0.000945321332490244 9.34169261855792e-05 -5.28719093689992e-05 -0.000233678417343341 0.000513179780670207 0.000709073450506378 0.000220325069215922
"42" 0.00125498125860524 0.000530614732135372 0.000964998232558438 0.000681129814900409 0.000468266627867963 9.8795626112399e-05 0.00063704192653247 -4.42500824269599e-06 0.000648000921238018 0.000935820967999737 8.78819043814293e-05 -4.24622085668742e-05 -0.000238009490990182 0.000494380375505399 0.0007052033535337 0.000222880001993373
"43" 0.0012619836599003 0.000544906175732167 0.00096861764684397 0.000697481062754916 0.000468493631523964 0.000102747556800076 0.000639439851846499 2.93800773525882e-06 0.000630455201000933 0.000925983356294396 8.21396669188226e-05 -3.23917288594327e-05 -0.000242768428802931 0.000475563220918932 0.000700969765353793 0.000225247102087185
"44" 0.0012683633693553 0.000559574331580933 0.00097204551229969 0.000713813450355683 0.000468759721139001 0.000106321973562873 0.000640875217301583 9.71413461029701e-06 0.000613717759616308 0.00091590812240512 7.62004256915476e-05 -2.27028120837084e-05 -0.000247959969257026 0.000456820381952221 0.00069633331539449 0.000227400327151382
"45" 0.00127408019772748 0.000574565862590119 0.000975260631192991 0.000730038299470543 0.0004690454636933 0.00010949240852673 0.000641304781681561 1.58256685032513e-05 0.000597869701753671 0.000905700816713726 7.00742118939242e-05 -1.34287930189876e-05 -0.000253584751237016 0.000438232771499796 0.000691247380191743 0.000229311370567979
"46" 0.00127910730404694 0.000589812057914727 0.000978232536799584 0.000746069017388326 0.000469333995204096 0.000112234008853289 0.000640694270811938 2.12062384813301e-05 0.00058298831413009 0.000895467058456108 6.37703406870359e-05 -4.6052157872308e-06 -0.000259640912854909 0.000419884027331848 0.000685665528628397 0.00023095603173936
"47" 0.00128342800123769 0.000605251570242422 0.000980945466109861 0.000761819497983455 0.000469614431614904 0.000114526415723257 0.000639024038022401 2.57923301161637e-05 0.000569135286489711 0.000885311542908539 5.72969879340949e-05 3.738209990469e-06 -0.000266129605540857 0.000401849162949216 0.000679535139109595 0.00023230833273093
"48" 0.00128702525358726 0.000620817364693898 0.00098337910523094 0.000777205843950616 0.000469865996509074 0.000116352164372521 0.00063628167382557 2.95241156321235e-05 0.000556367608061009 0.000875337002902301 5.06663456866856e-05 1.15749887113444e-05 -0.00027304422016874 0.000384200002167559 0.000672813241435945 0.000233342322147909
"49" 0.00128989742128244 0.00063644349159782 0.000985520220773205 0.000792144242993359 0.000470074650448749 0.000117695776414014 0.000632470917671845 3.23517637348878e-05 0.000544734974939776 0.000865643989194515 4.38824599973838e-05 1.88810762677003e-05 -0.000280382239649351 0.000366998084619642 0.000665442587797391 0.000234033391898594
"50" 0.00129205244942369 0.000652060788563735 0.000987364146794127 0.000806562581803716 0.000470231822780231 0.000118546671049358 0.000627614989913083 3.42326904723528e-05 0.000534275406992192 0.000856330625128225 3.69540697299411e-05 2.56368819171189e-05 -0.000288139247128312 0.00035030529547511 0.000657380779892621 0.000234359699274343
"51" 0.00129349880825207 0.000667600141156008 0.000988901258153065 0.000820384435460777 0.000470317125908795 0.000118898167287443 0.000621733833555159 3.51363755570109e-05 0.000525021579840955 0.00084748656766822 2.98911006323959e-05 3.18229592502841e-05 -0.000296301711869313 0.000334170558039944 0.000648577514251112 0.000234292441187697
"52" 0.00129426138514202 0.000682996429883692 0.000990134884625407 0.000833544146537206 0.0004703233594836 0.000118742618349314 0.000614869517577549 3.50320863225497e-05 0.000516984534728864 0.000839196927925209 2.26993492753748e-05 3.7428527399245e-05 -0.000304861229964213 0.000318642045917341 0.000638986406129187 0.000233814263651213
"53" 0.00129435317565821 0.000698176613450669 0.000991062977189358 0.000845978119626168 0.000470237231710111 0.000118079506741139 0.000607075203674421 3.39040370982945e-05 0.000510179387865822 0.000831539668901231 1.53830737650847e-05 4.24467659971839e-05 -0.000313805179171686 0.000303757496659209 0.000628567067380385 0.000232899875600222
"54" 0.00129381250910308 0.000713076464102493 0.000991692316612792 0.000857634238341706 0.000470050220326014 0.00011691164896908 0.000598407296021748 3.17475323230405e-05 0.000504596836847901 0.000824580208696547 7.94812171837325e-06 4.68690112548269e-05 -0.000323116766375299 0.000289549978635631 0.000617276474179546 0.000231533307080391
"55" 0.0012926705379978 0.000727627546232928 0.000992032854230801 0.000868460230951285 0.000469752789203356 0.000115244058636136 0.000588942784939119 2.85624526693031e-05 0.000500225474607382 0.000818378488570766 4.04334485244398e-07 5.06949185024815e-05 -0.000332781120192205 0.000276043908183552 0.000605081281966989 0.000229693430635715
"56" 0.00129096770933212 0.000741762644947743 0.000992093981545286 0.000878416525342358 0.00046934086039555 0.000113086134694769 0.000578756380917034 2.43593867661235e-05 0.000497040413770248 0.000812982092176391 -7.24920149355168e-06 5.39310587859388e-05 -0.000342778503369953 0.000263261093459716 0.000591952481210578 0.000227362809691382
"57" 0.00128874408300965 0.000755420627665912 0.000991890712122525 0.000887466674086915 0.000468805228403771 0.00011045004433075 0.000567940763881633 1.91592949497647e-05 0.000495004695512926 0.000808427727691098 -1.5003863569495e-05 5.65796335684269e-05 -0.000353082695646857 0.00025121087983645 0.000577860872213233 0.000224529001807344
"58" 0.001286043859629 0.000768536498241273 0.000991437466193092 0.000895585260687547 0.000468141325637193 0.000107349672999935 0.000556585092452091 1.29929273544074e-05 0.000494076884117868 0.000804743976236963 -2.28568294948023e-05 5.86529918346002e-05 -0.00036367509861782 0.000239899044571596 0.000562790997602696 0.000221172846127227
"59" 0.00128291073295293 0.000781050266162852 0.00099075289644711 0.000902750336693114 0.000467347640248697 0.000103805336192342 0.000544794126832577 5.89796403338226e-06 0.000494195963003141 0.000801942648908978 -3.08025817139631e-05 6.01642672461154e-05 -0.00037452496301866 0.000229326843374272 0.000546731209563047 0.000217290491515115
"60" 0.00127939111159157 0.000792902737165461 0.000989854334649701 0.000908950918167502 0.000466417793597706 9.98360193601089e-05 0.000532669399783343 -2.07704835172551e-06 0.000495297547585852 0.000800024338085343 -3.88398516818659e-05 6.11326373292741e-05 -0.000385605333182915 0.00021948879816587 0.000529673222618346 0.000212863176732335
"61" 0.00127552692059745 0.000804043085578521 0.000988764051059604 0.000914182963469865 0.000465357103345528 9.54655819829203e-05 0.000520325426980864 -1.08782404927592e-05 0.000497312394955553 0.000798983243135218 -4.69617585410487e-05 6.15779617367252e-05 -0.000396883550736293 0.000210372153742258 0.000511618673133693 0.000207888827695866
"62" 0.00127136465423727 0.000814415675134703 0.000987498641403325 0.000918447999789393 0.000464158511120782 9.07207096419977e-05 0.000507865628337525 -2.0438996779262e-05 0.000500159327389759 0.000798795127208938 -5.51651417153384e-05 6.15225215567556e-05 -0.00040832484645739 0.000201958616140478 0.000492574095498867 0.000202359484572565
"63" 0.00126693976735392 0.000823974001409919 0.000986079045150553 0.000921756491423547 0.000462826831287579 8.56286053312568e-05 0.000495406679547297 -3.06931332218357e-05 0.000503747699061432 0.000799429001930911 -6.34462642743406e-05 6.09942935283824e-05 -0.000419898255782134 0.000194227320649699 0.000472561865804888 0.00019627212399114
"64" 0.00126229570368546 0.000832674355643952 0.000984528089799007 0.00092412588020754 0.000461362514108053 8.0220031601666e-05 0.000483057825673587 -4.15593866007746e-05 0.000507987702860702 0.000800841408651407 -7.18025312477963e-05 6.00215666048457e-05 -0.000431561549517526 0.000187152496483402 0.000451600682002928 0.00018962440691302
"65" 0.00125746344257698 0.000840475131472219 0.000982860405302626 0.00092557839199848 0.000459767038178762 7.45261461604182e-05 0.000470932620814293 -5.29589707799758e-05 0.000512777328243931 0.000802976006944711 -8.02251555845184e-05 5.86371221080816e-05 -0.000443277860286999 0.000180701674419945 0.000429727473879552 0.000182420913703314
"66" 0.00125247292241289 0.000847338536943206 0.000981097253488052 0.000926144858003301 0.000458042945911619 6.85799731555718e-05 0.000459134649818817 -6.47973874235263e-05 0.000518015960580004 0.000805771281986638 -8.87100234443405e-05 5.68737379795276e-05 -0.000455002622893776 0.000174842862654649 0.00040698099300824 0.000174660247367913
"67" 0.00124735262403667 0.000853236699286845 0.000979251874406196 0.000925857376476987 0.000456199168876978 6.2416697887592e-05 0.000447769179355229 -7.69895157105769e-05 0.000523602687784807 0.000809154250581544 -9.72532229276502e-05 5.47640083714403e-05 -0.000466695599206861 0.000169537508417343 0.000383411657484372 0.000166352361114451
"68" 0.00124211779422865 0.000858142533237999 0.000977342282778667 0.0009247578052523 0.00045423262194787 5.607023347699e-05 0.000436933265270048 -8.94325297720364e-05 0.000529429430490417 0.000813043337569036 -0.000105843352800944 5.2349070809458e-05 -0.000478314606545309 0.000164746228855444 0.000359072536470867 0.000157504345620276
"69" 0.00123678270096006 0.000862034237818059 0.000975382592081022 0.000922891206630493 0.000452151127481357 4.95788294115544e-05 0.000426722981691986 -0.000102032114433082 0.000535388509026028 0.000817350263559269 -0.000114479676270931 4.96625749555817e-05 -0.00048980921256956 0.000160425882655773 0.000334028432052757 0.000148129805992057
"70" 0.00123135833756635 0.00086489366191703 0.000973376100556295 0.000920304905703129 0.000449959674941653 4.29755416891539e-05 0.000417223367788311 -0.000114686926984308 0.000541380566201322 0.00082198592652465 -0.000123146869676317 4.67453211934051e-05 -0.000501136474215524 0.000156536589756073 0.000308350386720492 0.000138239765565469
"71" 0.00122585073707547 0.00086671195602159 0.000971338368998756 0.000917051507181187 0.000447662442096515 3.63006249888907e-05 0.000408512338783949 -0.000127295902365895 0.000547295663878145 0.000826844712479086 -0.000131842975556692 4.36332449904206e-05 -0.000512248838777396 0.00015303054404811 0.000282120886000584 0.000127855456410462
"72" 0.00122025207327679 0.000867486358771268 0.000969274330117722 0.000913183792013062 0.000445260819573989 2.95859386854578e-05 0.000400659185460751 -0.000139754542731234 0.000553038014084993 0.000831830209197461 -0.000140552750763794 4.03687800766534e-05 -0.000523097354510734 0.000149865458533118 0.000255417786634904 0.000116995830789169
"73" 0.00121455420359139 0.000867215469259427 0.000967187511590287 0.00090876023205451 0.000442767006697221 2.28702030967615e-05 0.000393727047568454 -0.000151965860445753 0.000558511009327065 0.000836835098608159 -0.000149264773660619 3.69887818516103e-05 -0.000533635906645995 0.000146995065358077 0.000228336281113952 0.000105683294033129
"74" 0.00120873894882685 0.000865906083757073 0.000965075158826481 0.00090383755857132 0.000440176165879159 1.61877465251282e-05 0.00038776507783186 -0.000163828499614369 0.000563622137382498 0.00084175870358135 -0.000157970405062793 3.35320514173804e-05 -0.00054381556153424 0.00014437745469431 0.000200968639557654 9.39468467865951e-05
"75" 0.001202790818272 0.000863569497195332 0.000962938218663653 0.000898472043462834 0.000437498633370792 9.57090431109265e-06 0.000382814562835054 -0.000175245661262434 0.000568290332867693 0.000846490863733713 -0.000166654737100399 3.00377512033976e-05 -0.000553592839953682 0.000141969233435164 0.000173419788010624 8.18172812138229e-05
"76" 0.00119667930304656 0.000860227038553692 0.000960770329407309 0.000892723427545722 0.000434735417749599 3.05475260535916e-06 0.000378909341932762 -0.000186128042759344 0.000572431774561763 0.000850930102439277 -0.000175304762210268 2.65412531033165e-05 -0.000562916379556555 0.000139730164236309 0.000145788445217763 6.93236763482849e-05
"77" 0.00119037731770404 0.000855897728338815 0.00095856883775286 0.000886648035233476 0.000431890013001873 -3.33006293921844e-06 0.000376065199558742 -0.000196382964210948 0.000575980311500501 0.000854974289539551 -0.000183905769051751 2.30798941010964e-05 -0.00057174308157269 0.00013762245572443 0.000118187992572448 5.65053015099416e-05
"78" 0.00118384514659911 0.000850613947184603 0.00095632154432897 0.000880303940344065 0.000428966988418141 -9.55406301701777e-06 0.000374292796618983 -0.000205927093729737 0.000578870360652849 0.000858528080721424 -0.000192441006055595 1.96856619485768e-05 -0.000580027562960308 0.000135610473765039 9.07270036176472e-05 4.34018261194538e-05
"79" 0.00117704719209292 0.000844404797589179 0.000954016296923136 0.000873741408901557 0.000425966993422818 -1.55892894908771e-05 0.000373592122908764 -0.000214683013217864 0.00058105191213473 0.000861498815802201 -0.000200893302037192 1.6392001926376e-05 -0.000587728466448401 0.00013365950313174 6.3518087777758e-05 3.00560073139195e-05
"80" 0.00116993669539579 0.000837314353944998 0.000951643972834859 0.000867014681388058 0.000422894056619426 -2.14085531337837e-05 0.000373948949615809 -0.000222577608682078 0.000582476657519838 0.000863798714065707 -0.000209247422832871 1.32306090069438e-05 -0.000594806477555323 0.000131742322890321 3.66735292384365e-05 1.65139615480006e-05
"81" 0.00116247310850496 0.000829382008945024 0.000949186147669519 0.000860170866860683 0.000419747046690313 -2.69893336738995e-05 0.000375338173236523 -0.00022954553117833 0.00058311097431116 0.000865352308754438 -0.000217483313536141 1.02287613867223e-05 -0.000601220454616378 0.000129831840619508 1.03097787024298e-05 2.82460453399948e-06
"82" 0.00115460375651879 0.000820660683227815 0.000946629396255479 0.000853253429622665 0.000416531929424302 -3.23081188405538e-05 0.000377726904940119 -0.000235528481141539 0.000582931875144823 0.00086608869571457 -0.000225582512641346 7.41328559071248e-06 -0.000606938820450522 0.000127907484036487 -1.54645332155275e-05 -1.09622165709748e-05
"83" 0.00114628702312464 0.000811199537863841 0.000943953172849243 0.000846306239515018 0.000413241394132729 -3.73464360250802e-05 0.000381070522435702 -0.000240474510029252 0.00058192302456587 0.000865947407147108 -0.000233523821553567 4.8072454121784e-06 -0.000611926456092343 0.00012594916635721 -4.05316959902636e-05 -2.47903114171211e-05
"84" 0.00113747104448869 0.000801053604782024 0.000941138512503471 0.000839364417467002 0.000409880536858728 -4.20859802406507e-05 0.000385319367329836 -0.000244343042047131 0.000580085121976269 0.000864877526973331 -0.000241291355890985 2.43120223853545e-06 -0.000616155531664999 0.000123946182745004 -6.4790333001374e-05 -3.86038623591501e-05
"85" 0.00112810850298976 0.000790283915504098 0.000938167853572162 0.000832457142748842 0.000406450705570558 -4.65127347246772e-05 0.000390408303326975 -0.000247100927998908 0.000577422177497805 0.000862840197745897 -0.000248859780418778 3.07313929184517e-07 -0.000619598848992742 0.000121889927575676 -8.81300668475111e-05 -5.23494460232901e-05
"86" 0.00111815479468645 0.000778953157432467 0.000935022206633833 0.000825614273033342 0.000402946582080427 -5.06124567330419e-05 0.000396267014070774 -0.000248721458257616 0.000573949334743 0.000859804860513182 -0.000256209864386097 -1.55308611695572e-06 -0.000622237537387624 0.000119771513141022 -0.000110448234544726 -6.5960427405121e-05
"87" 0.00110756870809833 0.0007671251405863 0.000931677651853908 0.000818857273207482 0.000399363914381048 -5.43777879473605e-05 0.000402818615949926 -0.000249189637949278 0.000569701245915468 0.000855758920622786 -0.000263319359016775 -3.13545653743397e-06 -0.000624052900944021 0.000117593191617211 -0.000131651719942394 -7.93790067100332e-05
"88" 0.00109630400013432 0.000754863927073332 0.00092812071673228 0.000812199666186324 0.000395708092494091 -5.78001689278828e-05 0.000409977754633125 -0.000248500333575055 0.000564707940586492 0.000850696960479143 -0.00027016700658294 -4.42727418679556e-06 -0.000625030141194097 0.00011535859598483 -0.000151646933531299 -9.25430613624191e-05
"89" 0.00108432706535057 0.000742238185021027 0.000924324540658631 0.000805656139919495 0.000391969667469703 -6.08756191769601e-05 0.000417655019647184 -0.000246654509505502 0.000559023826926879 0.000844626028132473 -0.00027673034414715 -5.42547017767918e-06 -0.000625163027642414 0.000113077196503739 -0.000170348919692295 -0.000105389857241077
"90" 0.00107161229688826 0.00072932000521728 0.000920275086225735 0.000799229598678761 0.000388148213428476 -6.35986053468774e-05 0.000425753321015417 -0.000243660260946592 0.000552701313277694 0.000837568588923784 -0.000282991231382849 -6.12084018316956e-06 -0.000624446796986646 0.000110758288171192 -0.00018768053349636 -0.000117860364906566
"91" 0.00105811950944473 0.000716173158555178 0.000915952171320754 0.000792921031480113 0.000384239169939123 -6.59729192848525e-05 0.00043417430723235 -0.00023954474481492 0.000545809560883021 0.000829560621209015 -0.000288922548060403 -6.51666381110812e-06 -0.000622882607623416 0.000108416812755721 -0.000203571724531737 -0.000129890315081123
"92" 0.001043838767738 0.00070286534112543 0.000911340717359823 0.000786724067615456 0.000380238415461825 -6.79988327273978e-05 0.000442815290679402 -0.000234335149054432 0.000538418090408712 0.000820641491944586 -0.000294508197732104 -6.6124165256346e-06 -0.000620474800472081 0.000106075475380729 -0.000217958616993515 -0.000141422853962768
"93" 0.00102874883539152 0.000689467721870967 0.000906424581413516 0.000780630320150715 0.000376140608141728 -6.96830592743673e-05 0.000451573242426561 -0.000228068783426117 0.000530607786518193 0.000810873125789318 -0.000299726413228313 -6.41026905495218e-06 -0.00061724070202913 0.000103752955565328 -0.000230789789421058 -0.000152396260354136
"94" 0.00101284893505316 0.000676047073127119 0.00090118446079073 0.00077462216845013 0.000371943669510813 -7.10294160101112e-05 0.000460339327046416 -0.000220797369730811 0.000522472476056943 0.000800322016809633 -0.00030455804897971 -5.92063542121059e-06 -0.000613192191159038 0.000101473710955766 -0.000242021256038321 -0.000162759224338415
"95" 0.000996130665014386 0.000662660442393186 0.000895611806966629 0.000768680907976895 0.000367640586516294 -7.20506202452907e-05 0.000469015516344219 -0.000212574271760868 0.000514094601091184 0.000789068462976656 -0.000308980420087946 -5.15119825657562e-06 -0.000608351597506904 9.92646513757334e-05 -0.000251616832722681 -0.000172458188776212
"96" 0.000978605321395445 0.000649376353734828 0.000889693807039294 0.000762784382132001 0.000363225350167042 -7.27543556335812e-05 0.000477489248668096 -0.000203463606988157 0.00050557783412701 0.000777198755192384 -0.00031298096895733 -4.11351140027084e-06 -0.000602746844431604 9.71565356977168e-05 -0.000259553566964717 -0.000181443608048316
"97" 0.000960281382682806 0.000636251207144057 0.000883426027173545 0.000756900313531313 0.000358692164486081 -7.31581089665775e-05 0.000485666660465491 -0.000193535922933401 0.000497014790938162 0.000764810993001383 -0.000316540474414336 -2.82431352978846e-06 -0.000596412250333798 9.51747377862142e-05 -0.000265814664028498 -0.000189667000838079
"98" 0.000941185648043732 0.000623335070582462 0.000876793673153718 0.000751001218872098 0.000354036844653001 -7.32731750107867e-05 0.000493444837157758 -0.000182869755976923 0.000488509619176736 0.000752010055818124 -0.000319645980780856 -1.29847967684524e-06 -0.000589380857552162 9.33519913385023e-05 -0.000270396304142451 -0.000197093312768692
"99" 0.000921340231735642 0.000610683794607851 0.000869793948697962 0.000745050336448627 0.000349253998718731 -7.31174201662364e-05 0.000500733747058037 -0.00017155139859049 0.000480162995626884 0.000738900321840706 -0.000322282941350881 4.43864078943649e-07 -0.000581696301429589 9.17185565319093e-05 -0.000273303229225168 -0.000203681802566718
"100" 0.000900788064589845 0.000598343759364369 0.000862426718407369 0.000739010850756183 0.000344336658118838 -7.27117194571188e-05 0.000507439646982182 -0.000159669845708163 0.000472074985438685 0.000725605412449456 -0.000324442895495026 2.37994049599153e-06 -0.000573409563208215 9.03032606644847e-05 -0.000274553501453388 -0.000209406467202921
"101" 0.000879565150846214 0.000586349648372405 0.000854689926450176 0.000732842658215044 0.000339280796287674 -7.20735794963143e-05 0.000513482310658702 -0.00014732161581235 0.000464342003621571 0.000712236093023072 -0.000326116852348802 4.4894902215516e-06 -0.000564565501059061 8.91365817309953e-05 -0.000274171020179919 -0.000214237144323554
"102" 0.000857720217465974 0.000574745041151565 0.000846579621101363 0.000726508304109145 0.000334082460539431 -7.12230289147539e-05 0.000518782635983194 -0.000134604344202693 0.000457064595082691 0.000698917085576487 -0.000327295626206635 6.7436953107166e-06 -0.000555224332648555 8.82451378398278e-05 -0.000272193570478999 -0.000218159495889263
"103" 0.000835314279723317 0.000563553915278997 0.000838106855594097 0.000719962923704067 0.000328733953945594 -7.01869664437385e-05 0.00052327457730005 -0.000121625383466258 0.000450330802466016 0.00068576544116481 -0.000327977468301828 9.1188967817671e-06 -0.000545441517736801 8.76535641199126e-05 -0.000268663030719924 -0.000221158912311256
"104" 0.000812403766051778 0.000552802885270571 0.00082927168032726 0.000713165725795752 0.000323232827501152 -6.89846149761061e-05 0.000526896239022445 -0.000108488083642041 0.000444220720219915 0.000672904103269259 -0.000328159359891957 1.15847904167777e-05 -0.000535282322975302 8.73881734843008e-05 -0.000263633491842779 -0.000223231658312542
"105" 0.000789052777201973 0.000542508466695033 0.000820086707648701 0.000706075587329043 0.000317575515061996 -6.76437249326441e-05 0.000529595480749587 -9.53000627284226e-05 0.000438812274348002 0.000660450061689308 -0.000327848352121245 1.41133259418352e-05 -0.000524812311939954 8.74681669543602e-05 -0.000257168492839778 -0.000224373714680546
"106" 0.000765331336524333 0.000532682662419411 0.000810559184958581 0.000698649192093395 0.000311759783422914 -6.61877651068339e-05 0.000531329453505349 -8.21696738678823e-05 0.000434177371533528 0.000648511898443322 -0.000327046255045113 1.66729432654903e-05 -0.000514098723332745 8.79095329988142e-05 -0.000249336920411529 -0.000224597445963735
"107" 0.000741316137257207 0.000523328611513152 0.000800702111206344 0.000690850966597235 0.000305781798282184 -6.4641114436752e-05 0.000532062820440586 -6.92080573903779e-05 0.000430374694345635 0.000637203184813556 -0.000325760641434368 1.92318611739337e-05 -0.000503210254730288 8.87281777715414e-05 -0.00024021870987368 -0.000223913706193551
"108" 0.000717080243631824 0.000514444641623752 0.000790532084193536 0.000682640846971529 0.000299640757585121 -6.30335896074894e-05 0.000531772781241381 -5.65236369306161e-05 0.000427449600525826 0.000626618162385707 -0.000324005094227212 2.17582294522123e-05 -0.000492222883518687 8.99317949678323e-05 -0.000229898084163379 -0.000222344759579902
"109" 0.000692703442117229 0.000506023489845033 0.000780066361696147 0.000673984006582323 0.000293334462394493 -6.13864654172329e-05 0.000530445456908756 -4.42182157184294e-05 0.000425443592833287 0.000616854613035975 -0.000321793463512393 2.42172607552275e-05 -0.000481203448777119 9.15279058052828e-05 -0.000218462105690323 -0.000219915665397293
"110" 0.000668265257690219 0.000498047032516046 0.000769325810378371 0.000664847249412752 0.00028686822694974 -5.97299411657401e-05 0.00052807528489467 -3.23986064665117e-05 0.000424384572114223 0.000607995096758251 -0.000319142933589025 2.65781436938921e-05 -0.000470230637159513 9.35170343546421e-05 -0.000206010292439582 -0.000216661419906264
"111" 0.000643848330243586 0.00049049827448427 0.000758328226480896 0.000655205224965225 0.000280236107513654 -5.80896756808037e-05 0.0005246705641954 -2.11626718416744e-05 0.000424283010905363 0.00060010967195111 -0.000316076615357097 2.8806771864692e-05 -0.000459374964720409 9.58957724761902e-05 -0.000192641100727842 -0.000212621057784192
"112" 0.00061953222913635 0.000483347421706401 0.000747099524949731 0.000645029638901863 0.000273447139379878 -5.64887186662443e-05 0.000520241988874897 -1.06052145123499e-05 0.000425144166063741 0.000593263460050667 -0.000312616500748594 3.08669021714565e-05 -0.000448709325856152 9.86554942583892e-05 -0.000178457611393198 -0.00020784187554352
"113" 0.000595396607595106 0.000476560402955516 0.000735669015142921 0.000634301330243551 0.000266505274684982 -5.49543871057384e-05 0.00051481604807214 -8.15214144933453e-07 0.000426955778970543 0.000587504733097856 -0.000308794386798805 3.27289771487522e-05 -0.000438307304546047 0.000101784523140921 -0.000163562006080744 -0.000202373997082403
"114" 0.000571520234166005 0.000470097383526612 0.000724058113920089 0.000623002626900125 0.000259411739579873 -5.35103127295625e-05 0.000508429244178763 8.12792870476836e-06 0.000429695845419186 0.000582870031310417 -0.000304637513613872 3.43568611012119e-05 -0.000428234752913279 0.000105264802208576 -0.000148069099055788 -0.000196276474629471
"115" 0.000547976989458448 0.000463915484166317 0.000712298309150109 0.000611122318866336 0.000252176664235172 -5.21792162935529e-05 0.000501119130292844 1.61460789370675e-05 0.000433330002924164 0.00057938793945931 -0.000300178513335546 3.57192518435842e-05 -0.00041856034055293 0.000109075585141027 -0.000132076788711706 -0.000189610048693606
"116" 0.000524842132891325 0.000457964489843151 0.00070042124308772 0.00059865380334378 0.000244805319503111 -5.09826002340641e-05 0.000492941306101308 2.31758402366226e-05 0.000437810827637123 0.000577068223886456 -0.000295455084730955 3.67841942207799e-05 -0.000409346929403567 0.000113188648029184 -0.000115698553215765 -0.000182443910980493
"117" 0.000502186221968375 0.000452200047522048 0.000688461940962473 0.000585597109992759 0.000237309603294576 -4.99407926955094e-05 0.000483951838915811 2.91586831715747e-05 0.000443079412301217 0.000575909904078898 -0.000290504071699902 3.75215308339945e-05 -0.000400658683203297 0.000117576460601809 -9.90359248649208e-05 -0.000174846232603952
"118" 0.000480078250001376 0.000446554887853847 0.000676447150560155 0.000571953097137354 0.000229700301788864 -4.90731544462594e-05 0.000474218943259219 3.40489967646089e-05 0.000449070143345152 0.000575896344757036 -0.000285365110513975 3.79011236651275e-05 -0.000392547928087808 0.000122203018862981 -8.21947333851797e-05 -0.000166896384454267
"119" 0.000458575502930029 0.00044098118877902 0.000664420158809503 0.000557733399869198 0.00022199352306066 -4.83983700266393e-05 0.000463809637975453 3.78077904365186e-05 0.000455705443385271 0.000577001637118298 -0.000280079017947714 3.78946004048605e-05 -0.000385070591342077 0.000127032934130326 -6.52712185244335e-05 -0.000158667088645019
"120" 0.000437741203760501 0.00043541278707706 0.000652414620298472 0.000542952132248719 0.000214199336933234 -4.79285904234541e-05 0.000452807243145914 4.04093620164527e-05 0.000462890953577083 0.000579182463180461 -0.000274690695796774 3.74746639542059e-05 -0.000378271283518782 0.000132024721819155 -4.83631761309151e-05 -0.000150240883059376
"121" 0.000417627075624922 0.00042979137563424 0.000640468527883556 0.000527627009381047 0.000206334231363083 -4.767753978595e-05 0.000441288346703395 4.18395194312893e-05 0.000470539691729094 0.000582389412833944 -0.000269236381597126 3.66171877300731e-05 -0.000372191868917701 0.000137134489935104 -3.1562143029306e-05 -0.000141703554658998
"122" 0.000398280908539852 0.000424052898798285 0.000628614284092618 0.000511785431272458 0.000198420908167559 -4.76566956786646e-05 0.000429345335905022 4.20932465583667e-05 0.000478549885833025 0.000586556320123982 -0.000263766041046529 3.52989182849223e-05 -0.000366866106244145 0.000142316917894317 -1.49492854042509e-05 -0.000133134274541177
"123" 0.000379741650920296 0.000418136105269735 0.000616899173025187 0.000495455370287579 0.000190470983935855 -4.78742898533937e-05 0.0004170624591387 4.11769955901626e-05 0.00048681148631544 0.000591611469886712 -0.000258319427547854 3.34975678583364e-05 -0.000362328440975544 0.000147527976619063 1.39564441498635e-06 -0.000124620840337545
"124" 0.000362051705987476 0.000411988257042466 0.000605358561046346 0.000478672377896634 0.000182509256854595 -4.83378695831054e-05 0.000404535450539672 3.9109942656042e-05 0.000495211690438999 0.000597466517550694 -0.000252940861231935 3.11944718410112e-05 -0.000358597668673935 0.000152718713250711 1.74035276763921e-05 -0.000116246110655811
"125" 0.000345239567902271 0.00040554187390957 0.000594033184944217 0.000461476260630506 0.000174558039603727 -4.90477255888126e-05 0.000391854961099258 3.59206003044294e-05 0.000503641042717546 0.000604028382500369 -0.00024767363853548 2.83733596855057e-05 -0.000355691606476389 0.000157841670345589 3.30091769219584e-05 -0.000108091207005007
"126" 0.000329332214453169 0.000398748907648545 0.000582962264301015 0.00044391169319728 0.000166638553082111 -5.00087682295587e-05 0.000379114621219095 3.16522387322921e-05 0.000511985605308513 0.000611197397348016 -0.000242554256331758 2.50209977700162e-05 -0.000353620429799229 0.000162850364455035 4.81570542103615e-05 -0.000100243207999971
"127" 0.000314349854372875 0.000391550608262772 0.000572185587089785 0.000426022135088301 0.000158774735394631 -5.12174183360203e-05 0.000366411018835731 2.63562557613456e-05 0.000520120654269029 0.000618859219244386 -0.000237626429074242 2.11232920934798e-05 -0.000352384484952165 0.000167697196965211 6.28074521040044e-05 -9.27747754036117e-05
"128" 0.000300305990250675 0.000383902202831641 0.000561740004694989 0.000407861937911624 0.000150992081043902 -5.26711557091324e-05 0.000353832256139156 2.00912065622772e-05 0.000527941843481112 0.000626906033676892 -0.000232922953250651 1.66722239889642e-05 -0.00035198220704238 0.000172337985853594 7.69156164408686e-05 -8.57698566526236e-05
"129" 0.000287211076044648 0.000375761790807837 0.000551666798942784 0.000389485075907982 0.000143316639375318 -5.43603061675108e-05 0.000341469934580421 1.29310525661735e-05 0.000535330286419313 0.000635214254298351 -0.000228482286003614 1.1663407906444e-05 -0.000352400889502323 0.000176729596986878 9.04569566360068e-05 -7.92974080724193e-05
"130" 0.000275070062090468 0.000367087495753067 0.000542002153035353 0.000370945837378091 0.000135775867388202 -5.6280094341957e-05 0.000329411414901917 4.95443159133674e-06 0.000542176638259722 0.000643659805758873 -0.000224337085679498 6.09306454876352e-06 -0.000353620057855439 0.000180830869585057 0.00010341376806675 -7.34240118621145e-05
"131" 0.000263875029734373 0.000357848992649122 0.000532782377052119 0.000352306472602469 0.000128394252705403 -5.8417378325921e-05 0.000317740220399531 -3.74900839277207e-06 0.000548376819117464 0.000652122465949536 -0.0002205139753398 -3.97331881428149e-08 -0.000355615724872302 0.000184610421943144 0.000115772635618461 -6.82126907958282e-05
"132" 0.000253629808945293 0.000348018966751921 0.000524044511263577 0.000333624803177911 0.000121202378499901 -6.07577924633031e-05 0.000306535975264421 -1.30840718787333e-05 0.000553833789187649 0.000660475579633095 -0.000217041795719775 -6.72971811237094e-06 -0.000358357047385764 0.000188028260098086 0.000127532859225577 -6.37215919810803e-05
"133" 0.000244315244331867 0.000337576668505069 0.000515825280576005 0.00031496537895925 0.000114225622643294 -6.32886564571596e-05 0.000295875082489633 -2.29481337677341e-05 0.000558449133394738 0.00066858948315899 -0.000213940936582245 -1.39702831549358e-05 -0.000361801149034876 0.000191062400786997 0.000138702721792913 -5.99969079893077e-05
"134" 0.00023591491114715 0.000326509623052116 0.000508151590837155 0.00029638854713867 0.000107492903982337 -6.59889337844086e-05 0.000285823710471268 -3.32346082944018e-05 0.000562141340517186 0.000676345226122776 -0.000211231684505357 -2.17528390605651e-05 -0.00036590759985823 0.000193686078024204 0.000149297780718752 -5.70840093881833e-05
"135" 0.000228414622595671 0.000314807753009288 0.000501056985189078 0.000277957561023893 0.000101031534852354 -6.88439006492189e-05 0.000276449124857967 -4.38302281704136e-05 0.000564828106685451 0.000683619858302793 -0.000208933942674005 -3.00644266348289e-05 -0.000370624245406703 0.000195880423050417 0.000159340300309114 -5.50132124098533e-05
"136" 0.000221790335398615 0.00030247835262035 0.0004945679779008 0.000259736035988454 9.48689980342463e-05 -7.18265159353769e-05 0.00026780347523757 -5.46222532093771e-05 0.000566449168454096 0.000690298617118804 -0.000207052014718174 -3.88860248977774e-05 -0.000375893673224898 0.000197633252164924 0.000168859560720399 -5.38117689582229e-05
"137" 0.000216012464292244 0.000289526381768279 0.000488713664298127 0.000241785196246183 8.90321224713458e-05 -7.49184486980224e-05 0.000259939699130502 -6.54914280420876e-05 0.000566935822760639 0.000696268614732416 -0.000205598538938372 -4.81981620021109e-05 -0.000381659273655219 0.000198937388440294 0.00017789450303054 -5.34935278149252e-05
"138" 0.00021105444294661 0.000275968208980028 0.000483514619042163 0.000224166456667228 8.35458477417318e-05 -7.80960158756047e-05 0.000252900663234898 -7.63191763721239e-05 0.000566245221886017 0.00070142440957334 -0.000204577723160453 -5.79787477686777e-05 -0.000387853424333708 0.000199788876445491 0.000186486742415259 -5.4063421601467e-05
"139" 0.00020687869596231 0.000261820818397731 0.000478992154321923 0.00020693655283159 7.84330253951616e-05 -8.13306922542403e-05 0.000246717745711232 -8.69886792230291e-05 0.000564337664348771 0.000705674171265622 -0.000203986154303552 -6.81991856889181e-05 -0.000394408964200033 0.000200193765665845 0.000194681585543704 -5.55256008878558e-05
"140" 0.000203455875823859 0.000247117789385894 0.000475164276475684 0.000190150814702958 7.37213912288572e-05 -8.46013397519187e-05 0.00024142361768759 -9.73805560015573e-05 0.000561185938182496 0.000708924111338454 -0.000203823657478126 -7.88303933367374e-05 -0.000401253219332555 0.000200160589812594 0.000202531866531897 -5.78585909895596e-05
"141" 0.000200743975564383 0.000231895779015022 0.000472044342890535 0.000173865371245408 6.94308676721947e-05 -8.78790255433239e-05 0.000237035284102045 -0.000107382579175572 0.000556772144420079 0.000711097003147666 -0.000204078228179399 -8.98383113680214e-05 -0.000408313776116457 0.000199704771732463 0.000210090337186627 -6.10427661190358e-05
"142" 0.000198709225501754 0.000216195028283676 0.000469643685663434 0.000158130254789726 6.5582255353181e-05 -9.11373129783062e-05 0.000233564245038184 -0.000116883116989125 0.000551093059054594 0.000712123912239639 -0.000204742138023706 -0.000101188802962851 -0.000415513857690717 0.000198844241307414 0.000217413904958993 -6.50478299525236e-05
"143" 0.000197306408171904 0.000200061491696292 0.000467971231130493 0.00014298853758882 6.21928911923355e-05 -9.43476831842079e-05 0.000231017420107163 -0.000125774266477648 0.00054415716393044 0.00071194686661973 -0.000205796881537537 -0.000112838219545684 -0.000422781281111796 0.000197610399733119 0.000224558557989042 -6.98290708495339e-05
"144" 0.000196496654722624 0.000183550176778817 0.000467026362376259 0.000128485815451253 5.92809454082028e-05 -9.74853413544857e-05 0.000229385860113479 -0.000133956592711255 0.000535981004043195 0.000710525630543061 -0.000207221959581955 -0.000124747810174744 -0.000430034234093136 0.000196028840223463 0.000231582953750781 -7.53358933322339e-05
"145" 0.000196234848167279 0.000166721316303583 0.000466809421018794 0.000114658619076198 5.68627385961091e-05 -0.000100523458550857 0.000228662593686966 -0.000141332629466938 0.000526598359551323 0.000707823334067328 -0.00020899819605888 -0.000136871298231408 -0.000437198845933554 0.000194137227394379 0.000238539768337894 -8.15084627344839e-05
"146" 0.000196485953512168 0.00014963929370637 0.000467320444547955 0.000101541435941641 5.49465528332435e-05 -0.000103435753595899 0.000228826570232465 -0.000147818618528546 0.00051604684590966 0.000703823244331671 -0.000211099218902622 -0.000149160945842905 -0.000444202283351734 0.000191972928500527 0.000245487296582554 -8.82785817414809e-05
"147" 0.000197199038113859 0.000132364794652551 0.000468542621515049 8.91608370925227e-05 5.35440831229603e-05 -0.0001061953318711 0.000229854775353876 -0.000153335713306395 0.000504380581251979 0.000698515824429884 -0.000213494972317878 -0.000161569648865332 -0.000450967714923713 0.00018958120104992 0.000252475637381133 -9.55702211225574e-05
"148" 0.000198337250413027 0.000114973112469426 0.000470467723497758 7.75418633716623e-05 5.26644470635209e-05 -0.000108777562736885 0.000231711865594037 -0.000157812220941566 0.000491659576409357 0.000691911627611762 -0.000216155011330707 -0.000174042472883466 -0.000457428485836979 0.00018700629464179 0.000259553258782714 -0.000103300872468552
"149" 0.000199854450615453 9.75329744571098e-05 0.000473079151622335 6.67031612245507e-05 5.23052667462648e-05 -0.000111161249400881 0.000234359145226055 -0.000161190007791991 0.000477961113141838 0.000684030998058615 -0.00021904511608434 -0.000186528833699089 -0.000463514875627123 0.000184298953780379 0.000266759045018482 -0.00011138384286287
"150" 0.000201711879393463 8.01246263723841e-05 0.000476350862289922 5.66567336050865e-05 5.24730127675464e-05 -0.00011332219851089 0.000237754079845515 -0.000163419840916315 0.000463362357147486 0.000674909071931636 -0.000222131003840127 -0.000198973011795316 -0.000469165127786012 0.000181504921361302 0.00027413350302015 -0.000119723974560851
"151" 0.000203867323238606 6.2819051763066e-05 0.000480257927190606 4.74091430912813e-05 5.31643288683535e-05 -0.000115241160380289 0.000241847957648376 -0.000164463751466224 0.000447958773489436 0.000664591469093864 -0.000225371276747175 -0.000211319976445326 -0.000474321951128588 0.000178679291551029 0.000281711169070388 -0.000128227330780287
"152" 0.000206280309466504 4.56934347399344e-05 0.000484767818282284 3.89647103010946e-05 5.43774321602128e-05 -0.000116898355667588 0.000246581815471947 -0.000164291865691277 0.000431846027109 0.000653144187669225 -0.000228731805814716 -0.000223511658193024 -0.000478928698593525 0.000175870265055775 0.000289509225539213 -0.000136792419728016
"153" 0.000208908605008726 2.88263445421406e-05 0.00048984772232308 3.13164228455201e-05 5.60982549613659e-05 -0.000118277264947932 0.000251898846482114 -0.0001628948861003 0.00041512891335146 0.000640634292576802 -0.000232172340176489 -0.000235493795717089 -0.000482940319813089 0.000173130205040789 0.000297549981869137 -0.000145318622412155
"154" 0.000211719510390796 1.22882104332085e-05 0.000495458813060945 2.44589836792762e-05 5.83170490451969e-05 -0.000119364269838216 0.0002577375159697 -0.000160264192266191 0.000397918830328247 0.000627151161019954 -0.000235650493741711 -0.000247206818523135 -0.000486311377858987 0.00017051185804437 0.000305839865703825 -0.000153708941151985
"155" 0.000214669003141278 -3.84626501661851e-06 0.000501553240436628 1.83772617003565e-05 6.10253655860918e-05 -0.000120145326724379 0.000264030528210805 -0.000156411730857895 0.000380330091308858 0.000612783743755853 -0.000239128113389431 -0.00025859451217738 -0.000489009930471592 0.000168061240577681 0.00031438490088573 -0.000161857038323008
"156" 0.000217722755312745 -1.95031380937782e-05 0.000508090325848472 1.30527000962366e-05 6.41989049331422e-05 -0.000120611028949821 0.000270710799008706 -0.000151358101694324 0.000362484585078504 0.000597648628471683 -0.000242564225595872 -0.000269602543091536 -0.000491005494713127 0.000165829199675597 0.000323176059914899 -0.000169667693082259
"157" 0.000220848251605191 -3.46122802905212e-05 0.000515016875412527 8.46225746783286e-06 6.78201364213345e-05 -0.000120753928166101 0.000277711260271701 -0.000145134377197801 0.000344502958052324 0.000581850619378506 -0.000245921405429963 -0.000280172169208092 -0.000492277602931272 0.000163855883690292 0.000332199148802862 -0.000177047399288123
"158" 0.000224006062286819 -4.91163113181133e-05 0.000522279365353234 4.57749603698077e-06 7.18683236498974e-05 -0.000120569157353613 0.000284956622322581 -0.000137788692688084 0.00032650633256696 0.00056551528976429 -0.000249161108579265 -0.000290253376495864 -0.000492810033841883 0.000162181265008985 0.000341428178844733 -0.000183902963393081
"159" 0.00022716872339323 -6.29470364957462e-05 0.000529821495874097 1.36774404030472e-06 7.63127944068574e-05 -0.000120052524313261 0.000292383104666939 -0.000129375661766845 0.000308615295972773 0.00054877008917028 -0.000252247921182724 -0.00029979089471063 -0.000492593609783974 0.00016084651773463 0.000350838102176557 -0.000190150783459864
"160" 0.000230300749512699 -7.60556658130054e-05 0.000537583719959519 -1.20254517749823e-06 8.11295482655255e-05 -0.000119207620166066 0.000299914223014207 -0.000119963821523591 0.000290955286183176 0.00053174593227403 -0.00025514831173978 -0.000308736102499605 -0.00049163266145419 0.000159883269258391 0.000360387898028354 -0.000195711912106536
"161" 0.000233369460789347 -8.83857696282551e-05 0.00054550837350484 -3.17231168402234e-06 8.62852676237366e-05 -0.000118035397292097 0.000307485798771517 -0.000109632915712589 0.000273640675876672 0.000514584000082105 -0.000257830827296225 -0.000317040107986135 -0.00048992844234097 0.000159316669455993 0.000370028824522766 -0.00020051500362971
"162" 0.000236347129049012 -9.98973804429407e-05 0.000553532728190535 -4.58294513925548e-06 9.17471701186418e-05 -0.000116541950781814 0.000315027756691898 -9.84666506039859e-05 0.000256785701514724 0.000497419906662283 -0.000260263682941624 -0.00032465892146294 -0.000487499505268049 0.00015917229878551 0.000379714727295822 -0.000204495998442326
"163" 0.000239204022509087 -0.000110549141445842 0.000561587254354223 -5.47870583400682e-06 9.74786851376087e-05 -0.000114735500216669 0.00032247547887414 -8.65639339900809e-05 0.000240500322094043 0.0004803916998583 -0.000262424749516287 -0.000331550202946559 -0.000484364394268809 0.00015946832759268 0.000389379581089658 -0.000207603149738167
"164" 0.000241912359048793 -0.00012030701457836 0.000569617537386636 -5.90403878243077e-06 0.00010344633063973 -0.000112629096592231 0.000329770379465277 -7.40295267927008e-05 0.00022488750030088 0.000463639374153904 -0.000264288590625333 -0.000337674837646605 -0.000480549526209395 0.000160212703556121 0.000398961758970125 -0.000209786692725008
"165" 0.00024443855938428 -0.000129147112697971 0.000577555107249464 -5.90632576914258e-06 0.000109610031485226 -0.000110236677905935 0.000336849912175391 -6.09787342180213e-05 0.000210036548958604 0.000447298009687915 -0.00026583955390707 -0.000342997466271676 -0.000476090706236448 0.000161416642734219 0.00040839676483652 -0.000211015889011655
"166" 0.000246763433163685 -0.000137049235405636 0.00058533507919195 -5.53481347077635e-06 0.000115933325459017 -0.000107572064537237 0.000343659946421651 -4.75260462069849e-05 0.00019603844038268 0.000431498093881876 -0.000267063628505611 -0.000347487642440445 -0.000471023722408264 0.000163076288304179 0.000417606408083853 -0.000211260625556133
"167" 0.000248855747428027 -0.00014400353232033 0.00059289500789173 -4.83744464362707e-06 0.000122367955139395 -0.000104657356245713 0.000350152943431711 -3.37980891232523e-05 0.000182967145606037 0.000416365014212846 -0.000267945020254171 -0.000351116190000894 -0.000465393024065137 0.000165187588882388 0.00042651737823798 -0.000210509527699684
"168" 0.000250691878683009 -0.000150001609949408 0.000600176633712971 -3.86188965122224e-06 0.000128884297412603 -0.000101510879153787 0.000356280308625291 -1.99200086771591e-05 0.000170889295651784 0.000402023005954638 -0.000268478212834291 -0.000353862674509468 -0.000459250565557622 0.000167739225910108 0.000435052730106859 -0.000208758854105759
"169" 0.000252246101070417 -0.000155047759515342 0.000607118381538587 -2.65654649924825e-06 0.000135431824606245 -9.81582184654115e-05 0.000362002969016503 -6.02304073830795e-06 0.000159862852731962 0.000388581189445184 -0.000268664479519923 -0.00035570801918458 -0.000452647456867769 0.000170713651826682 0.000443134857883327 -0.000206012378322651
"170" 0.000253490930861956 -0.000159144758467776 0.000613666033495094 -1.26603784629945e-06 0.000141972941667469 -9.4623943724768e-05 0.000367284941456308 7.7639638013681e-06 0.000149928717044497 0.000376142492946309 -0.000268500390368674 -0.000356638280124674 -0.000445639668301736 0.000174088135329884 0.000450686548425878 -0.000202286870422888
"171" 0.000254408465000783 -0.000162310700750291 0.000619760521060922 2.6381719710042e-07 0.000148470613012459 -9.09335701732681e-05 0.000372098579011298 2.13075886826336e-05 0.00014111579710578 0.000364795144180821 -0.000267995002584186 -0.000356641860111316 -0.000438287649045177 0.000177834904868173 0.000457634230713656 -0.000197607970351659
"172" 0.000254970149373062 -0.000164564096640412 0.000625357661557023 1.88838385413961e-06 0.000154881231632836 -8.71155273664129e-05 0.000376417529413342 3.4480268528151e-05 0.000133452572540192 0.000354625449501136 -0.000267156179851771 -0.000355717657647096 -0.000430650460259736 0.000181922680165499 0.000463899499583021 -0.000192015191698881
"173" 0.000255154708556246 -0.000165937129432586 0.0006304065941066 3.56784305382447e-06 0.000161165723056368 -8.31992801552277e-05 0.000380221833056781 4.71586033025424e-05 0.00012693783612606 0.000345700615262259 -0.000265996743322711 -0.000353864687826848 -0.000422790814807484 0.000186312638820731 0.000469416306041986 -0.00018555183202356
"174" 0.000254942405258394 -0.000166455204688495 0.000634867844960126 5.26600561898672e-06 0.000167289821735568 -7.92134596415837e-05 0.00038350021223319 5.92212349745904e-05 0.000121573616388066 0.000338076675554178 -0.000264532654065675 -0.000351086069045411 -0.000414772031839443 0.000190964578412786 0.000474121510218848 -0.000178272727353131
"175" 0.000254311765788246 -0.000166160873375829 0.00063870172683375 6.94684591998935e-06 0.000173217101401617 -7.51896266759163e-05 0.000386244535753478 7.05531122114425e-05 0.000117337597865881 0.000331796351098237 -0.000262784640162682 -0.00034739329739628 -0.000406657841643882 0.00019583534995544 0.000477952815476228 -0.000170240553064509
"176" 0.000253237292807508 -0.000165094689064494 0.000641876624449174 8.57909109712855e-06 0.000178915245042654 -7.11590897994029e-05 0.000388452732833785 8.10471124138918e-05 0.000114206942778034 0.000326890498137225 -0.000260774200163674 -0.000342799685249516 -0.000398507504329723 0.000200877216734675 0.000480862629805829 -0.000161527416646772
"177" 0.000251710256756401 -0.000163300181547548 0.000644365154836545 1.01363227272881e-05 0.0001843487824832 -6.71493953319259e-05 0.000390127278639226 9.0604040207231e-05 0.000112140883876067 0.000323375378405309 -0.000258527685402053 -0.000337326256885542 -0.000390382145911964 0.000206039346101695 0.000482803087516061 -0.000152209973126469
"178" 0.000249709226866734 -0.00016082911996504 0.000646147053556172 1.15935049614521e-05 0.000189492591654204 -6.31921100083496e-05 0.000391276289388224 9.91387258810945e-05 0.000111091723852167 0.000321252369740739 -0.000256071187667255 -0.000330994617467394 -0.000382338621627787 0.000211275025579773 0.000483740462021253 -0.00014237229624213
"179" 0.000247210219332368 -0.000157734878721068 0.000647200407716359 1.29328226721116e-05 0.000194315526006623 -5.93173045341753e-05 0.000391914164069532 0.000106572941099323 0.000110999288696977 0.000320506847438451 -0.000253432351040365 -0.000323833160351607 -0.000374428524651494 0.000216528557461879 0.000483649628885703 -0.000132103197539106
"180" 0.000244210803041116 -0.000154071712619085 0.000647522243052488 1.41362812228306e-05 0.000198799002695712 -5.55502397061696e-05 0.000392056777629209 0.000112844826209683 0.000111794442265469 0.000321113725550142 -0.000250644334714358 -0.000315872060481297 -0.000366702641888604 0.000221754008802056 0.000482514253443113 -0.000121497837209127
"181" 0.000240688938850589 -0.000149899959968658 0.000647100789977199 1.51943867032005e-05 0.000202917617309423 -5.19188030656578e-05 0.000391721822570669 0.000117900435852747 0.000113403968127855 0.000323034576600194 -0.00024773564010138 -0.000307148438801227 -0.00035920719787606 0.000226895453750771 0.000480326947701977 -0.000110649791601778
"182" 0.000236639722347908 -0.000145272584636069 0.000645941754681965 1.61010427523175e-05 0.000206660260554266 -4.84474853396109e-05 0.000390935051544082 0.000121708854318279 0.000115747554311184 0.000326219619047672 -0.00024473614637662 -0.000297701823690471 -0.000351980249775057 0.000231907066321992 0.000477096785118398 -9.96627923484483e-05
"183" 0.000232049676323466 -0.000140252104902368 0.000644051224694786 1.68527401065524e-05 0.00021000449724834 -4.51593930371133e-05 0.00038972403906796 0.000124241811385968 0.000118733765337882 0.000330599952223532 -0.000241680593397085 -0.000287571153781576 -0.000345059038783873 0.000236741422916978 0.000472836938248368 -8.86338199958617e-05
"184" 0.000226917437198341 -0.000134895276269698 0.000641441587388807 1.74524142863457e-05 0.000212945050023138 -4.2075348819017e-05 0.000388120779304035 0.0001254962192426 0.000122269077966798 0.000336100141394593 -0.00023859767692867 -0.000276805335357277 -0.000338468593538614 0.000241355337519665 0.000467576394501222 -7.7668362011714e-05
"185" 0.000221229846613772 -0.000129261891322909 0.000638134306239462 1.79034444107822e-05 0.000215469628006884 -3.92129993370659e-05 0.000386148170633995 0.000125481059539254 0.000126262627411476 0.000342634492585018 -0.000235513953448297 -0.000265449719714661 -0.000332232077779246 0.000245705650607611 0.000461355361322498 -6.68639214154044e-05
"186" 0.000214994246555821 -0.000123407897723602 0.000634153938306474 1.82170843901683e-05 0.000217573918865956 -3.65877137890289e-05 0.000383845724438022 0.000124220591781779 0.000130608037918447 0.000350101260639468 -0.000232462017876006 -0.000253555779181816 -0.000326365484364177 0.000249758289819478 0.000454223871877454 -5.63219629668799e-05
"187" 0.000208207655810218 -0.000117391652404421 0.000629526783883315 1.84070039295691e-05 0.000219260027904411 -3.42131325649432e-05 0.000381246815242702 0.000121755232756155 0.000135205845753746 0.000358396363128651 -0.000229465945655623 -0.000241177442619059 -0.000320873488073074 0.000253480880556545 0.000446239403515183 -4.61377506720027e-05
"188" 0.000200876959916161 -0.000111262721130087 0.000624293091077393 1.8487666009647e-05 0.000220523159800816 -3.20980749518799e-05 0.000378384517935148 0.000118139435496884 0.000139959140653028 0.000367403781251765 -0.000226547524029628 -0.000228365771712026 -0.00031576403274431 0.000256846352784215 0.000437478178032055 -3.6406750696559e-05
"189" 0.000193014016781965 -0.000105073391324132 0.000618492685883933 1.84809556975761e-05 0.000221373162529821 -3.02492373798406e-05 0.000375290999120074 0.000113446680077304 0.000144760055869755 0.000377000068297507 -0.000223732007276755 -0.000215177035982198 -0.000311025817007842 0.000259833382198661 0.000428022166709901 -2.7214985388409e-05
"190" 0.000184620354903814 -9.88730996915269e-05 0.000612166153248596 1.84070317669437e-05 0.000221814927378899 -2.86721169064841e-05 0.000372000681592893 0.000107756655829319 0.00014951655320106 0.000387059565528144 -0.000221034906197826 -0.000201668610508179 -0.000306645339560141 0.000262427610044814 0.000417955027161221 -1.86498697033824e-05
"191" 0.000175719006989041 -9.27063560547053e-05 0.000605366237345989 1.82930308515054e-05 0.000221857976849932 -2.73661306532862e-05 0.00036854541499254 0.000101171680300695 0.000154129477564131 0.00039744291737356 -0.000218474051028525 -0.000187896656766053 -0.000302609423235805 0.000264623140225521 0.00040737919692172 -1.0786605240859e-05
"192" 0.000166324250812756 -8.66156727397163e-05 0.000598145267065989 1.81634108321821e-05 0.000221517527890816 -2.63284273572254e-05 0.00036496078894713 9.3800623559949e-05 0.000158503706146977 0.000408019291172532 -0.000216060706570946 -0.000173918168632663 -0.000298886307621642 0.000266414261578974 0.000396401923000496 -3.69546773255794e-06
"193" 0.000156462776561095 -8.06374774844838e-05 0.000590562464930164 1.80491237460143e-05 0.000220807226120584 -2.55562507170341e-05 0.000361267612648634 8.57641349377127e-05 0.000162560407266148 0.000418645969227702 -0.000213805975446402 -0.000159789842023896 -0.00029544762324071 0.000267805798575128 0.000385134885673096 2.55947029292798e-06
"194" 0.00014615820577634 -7.48053659355982e-05 0.000582670433077038 1.79790425098318e-05 0.000219743599139454 -2.50390583836821e-05 0.000357501721437031 7.71944069240511e-05 0.000166207075799328 0.000429185767263156 -0.000211711278314378 -0.000145567420221606 -0.000292254333637954 0.000268811365268996 0.000373691565255598 7.92399862958967e-06
"195" 0.000135439420306721 -6.9148706861806e-05 0.000574537636811434 1.79821444947548e-05 0.000218347973113266 -2.47646867393214e-05 0.00035368010867062 6.82317281418953e-05 0.000169372505521009 0.000439494072892855 -0.00020978343218605 -0.000131309132416184 -0.000289267488646095 0.000269446462224788 0.000362197174665587 1.23546988299086e-05
"196" 0.0001243421094549 -6.36968682238926e-05 0.000566223947692198 1.80882910330935e-05 0.000216639860968053 -2.47223533795072e-05 0.000349830561110342 5.90253014015039e-05 0.000171988534843144 0.000449439408797865 -0.00020801728687093 -0.00011706883100457 -0.000286434319846555 0.000269736351219752 0.000350773267162612 1.58129799844121e-05
"197" 0.000112907726498623 -5.84668121061424e-05 0.00055779465660913 1.83289973864914e-05 0.000214642967625347 -2.48939414561069e-05 0.000345966846461398 4.97265557381946e-05 0.000173989961576764 0.000458881349391235 -0.000206409453870047 -0.000102899809739512 -0.000283709125587118 0.000269709359297973 0.000339545188397443 1.82774942151804e-05
"198" 0.000101170510595316 -5.34825801209473e-05 0.00054931266363545 1.87326596760459e-05 0.00021238160226168 -2.52596389798577e-05 0.000342105352177368 4.04937361445191e-05 0.000175325145911801 0.00046769201503778 -0.000204950442183032 -8.88522649178594e-05 -0.000281034703872465 0.00026940404915364 0.00032863837553458 1.97299783743568e-05
"199" 8.91799564560399e-05 -4.87491417685045e-05 0.000540847956379816 1.93292801834226e-05 0.000209883755456699 -2.58013280759732e-05 0.000338261299826461 3.14863490137866e-05 0.000175949821780617 0.000475745021868264 -0.000203631187276679 -7.49799304183165e-05 -0.000278357481748418 0.000268859166782402 0.000318176091551644 2.01671038216494e-05
"200" 7.69832155761137e-05 -4.42815810903811e-05 0.000532461975900488 2.01445645546919e-05 0.000207169091560114 -2.64958562044922e-05 0.000334439317555682 2.28658008965995e-05 0.000175825612627133 0.000482921418413909 -0.000202435046971237 -6.13273197762938e-05 -0.000275618194640681 0.000268121256713988 0.000308280909023787 1.95964425466567e-05
"201" 6.46336194787276e-05 -4.00848772886867e-05 0.000524216807356768 2.12032491847842e-05 0.000204268677401199 -2.73181094598825e-05 0.000330648660878262 1.47911225711848e-05 0.000174926813307293 0.000489112813312073 -0.000201343942252223 -4.79413450207674e-05 -0.000272760510718878 0.000267241056736785 0.000299065254712994 1.80317105619002e-05
"202" 5.21875343233119e-05 -3.61578888835532e-05 0.00051617729096343 2.25280109517395e-05 0.000201203792992062 -2.82407572688893e-05 0.000326887108044075 7.42007920611839e-06 0.000173241078803074 0.000494220408302956 -0.000200337058270218 -3.48659720657303e-05 -0.000269721514714896 0.000266272546685443 0.000290643503600773 1.55015772032921e-05
"203" 3.96976933931888e-05 -3.2499996872948e-05 0.000508400287045249 2.41367920632156e-05 0.000198007018223993 -2.92390840735625e-05 0.000323155015140329 9.05952104303558e-07 0.000170752202198337 0.000498148838034366 -0.000199392648796869 -2.21407118318889e-05 -0.000266449543093301 0.000265270462861798 0.000283119770293862 1.20436307694673e-05
"204" 2.7230324922724e-05 -2.9103286387701e-05 0.000500946874627281 2.60509739900175e-05 0.000194697945314563 -3.02869142144161e-05 0.00031944893456596 -4.60372906950835e-06 0.000167471128330518 0.000500821556601443 -0.000198485521648534 -9.80491437376261e-06 -0.000262887330538094 0.000264295545370666 0.000276589558152911 7.70515226949272e-06
"205" 1.48396277678771e-05 -2.59644420175183e-05 0.000493868600495078 2.8278201667801e-05 0.000191306331349765 -3.13559512103085e-05 0.000315760342572829 -8.97102521405162e-06 0.000163404597379264 0.000502170810083494 -0.000197589231662813 2.10599450928108e-06 -0.000258979786032713 0.000263406857764811 0.000271139494316566 2.54276415877366e-06
"206" 2.59532062782175e-06 -2.30689739378091e-05 0.000487216912930516 3.08296860575885e-05 0.000187853019588133 -3.24161458651723e-05 0.000312080536599754 -1.20613872771081e-05 0.000158576863623419 0.000502140998401377 -0.000196674799188073 1.3559632847949e-05 -0.000254682123612353 0.000262664668244734 0.000266848648795631 -3.37899426516487e-06
"207" -9.43894180992213e-06 -2.04003758670521e-05 0.000481035235787351 3.37147369912871e-05 0.00018436394671331 -3.3441684850256e-05 0.000308391793853499 -1.37573504362156e-05 0.000153018195471076 0.00050068963658056 -0.000195712789826494 2.45276239269801e-05 -0.000249947005590774 0.000262130315001907 0.000263779934340982 -9.98739314253158e-06
"208" -2.11973321933245e-05 -1.79410457333402e-05 0.000475365724214866 3.6931788410433e-05 0.00018085980109288 -3.44073653888072e-05 0.000304683981740783 -1.3947459540753e-05 0.000146766508206267 0.000497790659558665 -0.000194675646589894 3.49796350127602e-05 -0.000244735296960852 0.000261860711515941 0.00026199111316785 -1.71988337954673e-05
"209" -3.26133122374835e-05 -1.56779753508709e-05 0.000470247844776627 4.04802865334259e-05 0.000177358431387466 -3.52842300983767e-05 0.000300936946842896 -1.25383344323204e-05 0.000139870614010533 0.000493430454433512 -0.000193531716876622 4.48945876650733e-05 -0.000239013225071335 0.000261914790163877 0.00026152025772852 -2.49306513760232e-05
"210" -4.36217553698589e-05 -1.35837270842708e-05 0.000465709833393682 4.43545492994504e-05 0.000173882499406182 -3.60492886852873e-05 0.000297137953646057 -9.44347846095184e-06 0.00013238469396595 0.000487604637827871 -0.000192251293500812 5.42484129934571e-05 -0.000232755173219452 0.000262346518859607 0.000262397355430284 -3.30851632468953e-05
"211" -5.41553233046541e-05 -1.16378825894945e-05 0.00046178421814026 4.85435041152843e-05 0.00017044547838422 -3.66796441702425e-05 0.000293261582210334 -4.59904883837152e-06 0.000124369522008877 0.000480330905029811 -0.000190808277121493 6.30244435895233e-05 -0.000225940422997321 0.000263207426816586 0.000264638623179369 -4.15692471159761e-05
"212" -6.41505932108463e-05 -9.8155439849882e-06 0.000458486372293885 5.30346475760122e-05 0.000167063819389064 -3.71510601039113e-05 0.000289289816406841 2.04995015508845e-06 0.000115896669299207 0.000471637526029532 -0.000189172838748127 7.12061891259053e-05 -0.000218552873225402 0.000264544807672142 0.000268239590735908 -5.02854373984225e-05
"213" -7.35439029926565e-05 -8.09483960988623e-06 0.000455833452227032 5.78072120825668e-05 0.000163751201289518 -3.74475031781651e-05 0.000285201984970466 1.05382503445993e-05 0.000107035431382463 0.000461563025232065 -0.000187320334755694 7.8778541770197e-05 -0.000210591422964479 0.000266400424068881 0.000273190031218657 -5.91264739359761e-05
"214" -8.22757291104e-05 -6.45054135894888e-06 0.000453837761288606 6.28429004749256e-05 0.00016051573908393 -3.75511662914754e-05 0.000280979113552485 2.08836419236968e-05 9.78656386116811e-05 0.000450164448760403 -0.000185225221555964 8.57323359938262e-05 -0.000202054129224383 0.000268810194372782 0.000279458732270276 -6.79970660495726e-05
"215" -9.02828049702763e-05 -4.85346188696861e-06 0.000452503497145477 6.81135522011817e-05 0.00015737080400532 -3.74483590622218e-05 0.000276604435868195 3.30855952664857e-05 8.84632690720266e-05 0.000437503173110396 -0.000182869680368297 9.20600897167085e-05 -0.000192956632019382 0.000271805592598168 0.000287008151615207 -7.67894048420218e-05
"216" -9.75166381651956e-05 -3.2818537214957e-06 0.000451827618193675 7.35895637073856e-05 0.000154319028031662 -3.71258995676968e-05 0.00027205386293989 4.71309213450806e-05 7.8915918686718e-05 0.000423659683421804 -0.000180232367984777 9.77533659802967e-05 -0.000183314012727716 0.000275414782734851 0.000295778697376657 -8.54059882869308e-05
"217" -0.000103918902017544 -1.70792695351962e-06 0.00045180898934357 7.92409299282805e-05 0.00015136543597061 -3.65765257511428e-05 0.000267315144245186 6.29813830937213e-05 6.93036088114772e-05 0.000408720144759611 -0.00017730206626821 0.000102808539671845 -0.000173154595602026 0.000279649333771917 0.000305705103338577 -9.374996270745e-05
"218" -0.000109449313542784 -1.11303059853206e-07 0.000452429232452926 8.50296394468207e-05 0.000148518121291284 -3.57940822536257e-05 0.000262372365781833 8.05875153311422e-05 5.97136698177883e-05 0.000392784540850595 -0.000174063618496261 0.000107225569431122 -0.000162515231626296 0.000284524100952362 0.000316699079554406 -0.000101727195544411
"219" -0.000114054799004341 1.53881516579316e-06 0.000453678000325949 9.09213601764538e-05 0.000145771627352208 -3.47771450066962e-05 0.000257213567476266 9.98733194429011e-05 5.02222216664488e-05 0.000375957262576213 -0.000170511464712875 0.000111004450418793 -0.000151437512887436 0.000290041775357957 0.000328670398633237 -0.000109246685582072
"220" -0.000117706897381602 3.25706570894831e-06 0.000455532780019125 9.68761689094271e-05 0.00014312918893804 -3.35272736896404e-05 0.000251829080266391 0.000120754764024117 4.09159378443882e-05 0.000358352716602759 -0.000166641762266225 0.000114149532930703 -0.000139974496267256 0.000296195340889095 0.000341515710572737 -0.000116229566137772
"221" -0.000120366353230804 5.06745512872248e-06 0.000457965898742884 0.00010285127037067 0.000140588447593526 -3.20488886882061e-05 0.000246209840217207 0.000143125121503376 3.18691318875254e-05 0.000340091187354395 -0.000162458466709759 0.000116665297870203 -0.000128178774315621 0.000302976495098163 0.000355115930040826 -0.000122597564920099
"222" -0.000122008219133334 6.99014191818778e-06 0.000460951174752692 0.000108802918107789 0.000138147303419536 -3.03481658272475e-05 0.000240354676845025 0.00016686300872333 2.31564996700524e-05 0.000321295195863569 -0.00015796221802916 0.000118556175812572 -0.000116117220549065 0.000310366131775311 0.000369346033713767 -0.000128283446102638
"223" -0.000122609511389607 9.0418719731347e-06 0.000464451482146715 0.000114689735800546 0.000135797953076004 -2.84386215605031e-05 0.000234265148662349 0.000191830101121097 1.48464573871904e-05 0.000302094920144506 -0.000153163976409915 0.000119835462442679 -0.000103860902226633 0.000318332910557398 0.000384075482970109 -0.000133226464901445
"224" -0.000122152626451436 1.12394161451251e-05 0.000468435222001918 0.00012046525664555 0.000133534656991445 -2.63330133688883e-05 0.000227941222725502 0.000217877560640073 6.99791086176068e-06 0.000282618324306521 -0.000148082102409568 0.000120512351500157 -9.14809902701554e-05 0.000326846600539334 0.000399166967827849 -0.000137373674747195
"225" -0.00012062924208093 1.35978575597904e-05 0.000472856127844726 0.000126087786571712 0.000131355809634749 -2.40507308938076e-05 0.000221392338667189 0.000244835956584077 -3.30362271403931e-07 0.000262996401072315 -0.000142734105794799 0.000120600657346781 -7.90571031452201e-05 0.000335865480911713 0.000414473006184668 -0.000140684820436264
"226" -0.000118040525633737 1.61238991268489e-05 0.000477676963313419 0.000131510591022873 0.000129247975748444 -2.16100860021656e-05 0.000214629694562441 0.000272529882637551 -7.0919632492753e-06 0.000243361839802933 -0.00013714063017723 0.000120114370781161 -6.66720019402734e-05 0.000345338929758022 0.000429844816216091 -0.000143125986657538
"227" -0.000114386587414674 1.88336953971356e-05 0.000482851353014448 0.000136691320830491 0.000127210480247397 -1.90357914283345e-05 0.000207669381508151 0.000300771753378644 -1.32441274776961e-05 0.000223841695528459 -0.000131332641867668 0.00011907245794421 -5.44088865454568e-05 0.000355215151476741 0.000445134380823588 -0.000144673953849546
"228" -0.000109679964977129 2.17287030617138e-05 0.000488334218405299 0.000141588840355376 0.000125230156336767 -1.6351818163058e-05 0.000200531393696933 0.000329365826235929 -1.8756845085928e-05 0.000204560782245238 -0.000125340203873314 0.000117493857849932 -4.23545342029783e-05 0.000365433136841162 0.000460190672899508 -0.000145315860453564
"229" -0.000103933133563173 2.4822390644938e-05 0.000494079162727788 0.000146163922199836 0.00012330160638663 -1.35880822363782e-05 0.000193238343356427 0.000358103412126605 -2.36021463770305e-05 0.000185643567332198 -0.000119199712939951 0.000115400234394999 -3.05910868150376e-05 0.000375926806882599 0.000474861830216743 -0.000145045014096053
"230" -9.71686686768188e-05 2.81130529851095e-05 0.000500040060315434 0.000150378107124389 0.000121419977098371 -1.07728807618976e-05 0.000185816991459008 0.000386777040829149 -2.77677443388432e-05 0.000167209475098903 -0.000112948755394627 0.000112816165284509 -1.92079423218672e-05 0.000386628652652953 0.00048900278845105 -0.000143869961511505
"231" -8.94223365520431e-05 3.16017317200742e-05 0.00050616408778798 0.0001541948766293 0.000119575647205309 -7.94015146149597e-06 0.000178300153768854 0.000415174535931126 -3.12501213417636e-05 0.000149365401853479 -0.000106628357942794 0.00010976653929695 -8.28636901113906e-06 0.000397461552395937 0.000502471100953216 -0.000141800468374314
"232" -8.07254623106603e-05 3.52890202932626e-05 0.000512409476924405 0.000157580785962189 0.000117763428002182 -5.11815951972419e-06 0.000170722034835205 0.000443076152334706 -3.40456811411127e-05 0.000132221396675539 -0.000100283076113917 0.000106279581181248 2.0962336311414e-06 0.000408351799243691 0.0005151251699695 -0.000138861500947883
"233" -7.11203802090789e-05 3.91759598748168e-05 0.0005187235797869 0.000160510848224275 0.000115980145072682 -2.34239567818955e-06 0.000163120430452323 0.000470271175834925 -3.61661689430316e-05 0.00011587278489219 -9.39587956109674e-05 0.00010238700585841 1.18619317222666e-05 0.000419217485064259 0.00052683852075205 -0.00013508501101176
"234" -6.06534957796402e-05 4.3256626841318e-05 0.000525063113539028 0.000162955411413583 0.000114219587196711 3.52853205702629e-07 0.000155536369530483 0.000496547055693111 -3.76299929062188e-05 0.000100407456274902 -8.77039455736561e-05 9.81194424579923e-05 2.0942544923477e-05 0.000429977211062186 0.000537489609488533 -0.000130507670095793
"235" -4.93769452667701e-05 4.75294856477923e-05 0.000531387569513816 0.000164894577921608 0.000112477895844486 2.93488180552576e-06 0.000148013045166162 0.000521698061436612 -3.84630541405073e-05 8.5912781404605e-05 -8.15645537881525e-05 9.35114320784503e-05 2.92705577335062e-05 0.000440552003081579 0.000546963607218305 -0.000125173012877764
"236" -3.73452745332463e-05 5.19841058543878e-05 0.000537650836198224 0.000166311104479834 0.000110758163748441 5.3692530085871e-06 0.000140595833340702 0.000545523747597978 -3.8699687536075e-05 7.24544137379838e-05 -7.55890792864128e-05 8.86024125265233e-05 3.67911514443334e-05 0.000450856926633966 0.000555166539122485 -0.000119132407694855
"237" -2.46247649384786e-05 5.66161147671474e-05 0.000543811161912189 0.000167187779740218 0.000109053801869391 7.62509297586494e-06 0.000133333674464614 0.000567834244987125 -3.8375800340104e-05 6.01038510448747e-05 -6.98267989733134e-05 8.34274310355192e-05 4.34525597660164e-05 0.000460812048622911 0.000562004419686645 -0.000112446600502401
"238" -1.12739629111191e-05 6.14161027851645e-05 0.000549837580708134 0.000167520590898355 0.000107369258227376 9.66839083944134e-06 0.000126275951825539 0.0005884502734241 -3.75407591402181e-05 4.89078896076709e-05 -6.43220083168597e-05 7.80304322937319e-05 4.92143222300037e-05 0.000470338742317331 0.000567406105804036 -0.000105170348227745
"239" 2.63692540133246e-06 6.63778515467566e-05 0.000555688501667346 0.000167303178559448 0.000105711430389659 1.14710669366115e-05 0.000119471182225833 0.000607208726594869 -3.62440569729371e-05 3.8911056622953e-05 -5.91201887814909e-05 7.24539672509356e-05 5.40467841853693e-05 0.000479359524200717 0.000571312508277853 -9.73691620496504e-05
"240" 1.70311603145209e-05 7.14863581529885e-05 0.000561335010111927 0.000166534530399887 0.000104074529036919 1.30051528057377e-05 0.000112973123982061 0.000623961093809197 -3.45350412928077e-05 3.01529017829023e-05 -5.42647437751642e-05 6.67418965437898e-05 5.79243650917322e-05 0.000487799444992225 0.000573673061704432 -8.91136953186697e-05
"241" 3.18460844679014e-05 7.67335981926808e-05 0.000566752082813075 0.000165222237672977 0.000102471042466498 1.42435963040116e-05 0.000106832227677793 0.000638573157552249 -3.24825085760345e-05 2.26522250144705e-05 -4.98000780394464e-05 6.0939415985035e-05 6.08391504980016e-05 0.000495593258087424 0.000574467064318224 -8.04678904362255e-05
"242" 4.69999406508384e-05 8.21111888644067e-05 0.000571912661830326 0.000163373754792105 0.000100908430709698 1.5167659493854e-05 0.000101095147868327 0.000650931025910864 -3.01360282452014e-05 1.64275090180778e-05 -4.57553021508925e-05 5.50961299230813e-05 6.27883828715872e-05 0.000502675117871328 0.000573672840351071 -7.15065069404402e-05
"243" 6.24212698786914e-05 8.7610313524794e-05 0.000576797762858811 0.000161004423235776 9.93880272726038e-05 1.57524310882781e-05 9.58173636128038e-05 0.000660944073438237 -2.75676910455605e-05 1.1482076344378e-05 -4.21704120461972e-05 4.92605328342705e-05 6.37812723150319e-05 0.000508985661549321 0.000571298290678361 -6.22965719031092e-05
"244" 7.80351951566511e-05 9.32134128724309e-05 0.000581391199519327 0.000158133235949859 9.79242479635629e-05 1.59856605526126e-05 9.10438649279822e-05 0.000668537884700802 -2.48378908714747e-05 7.814170748756e-06 -3.90723979916865e-05 4.34824582625333e-05 6.38372149975381e-05 0.000514473292276338 0.000567359409148366 -5.29073177694736e-05
"245" 9.37644026164202e-05 9.8911275282969e-05 0.000585676970718215 0.000154784207962591 9.65260147420826e-05 1.58531598996572e-05 8.68215621296187e-05 0.000673661858747161 -2.20052898077801e-05 5.41576044750243e-06 -3.64835977545801e-05 3.781270145649e-05 6.29889841125237e-05 0.000519094207391594 0.000561886788691381 -4.34121683075634e-05
"246" 0.000109534978051721 0.000104693073906206 0.000589651360212177 0.000150984838694767 9.52028024746126e-05 1.53439026098051e-05 8.319673022559e-05 0.000676293480810925 -1.91398541273871e-05 4.25723704494041e-06 -3.44251579224659e-05 3.23041633765736e-05 6.12779233245681e-05 0.000522807569377695 0.000554934440047763 -3.38715693017684e-05
"247" 0.000125278711783787 0.000110547764896268 0.000593305035373018 0.000146765766435365 9.39695647170211e-05 1.44565756184225e-05 8.02109529803686e-05 0.000676425207265682 -1.62966171576917e-05 4.32031629195469e-06 -3.29128877357714e-05 2.70055000701536e-05 5.87550168283117e-05 0.000525584947622069 0.000546561733454608 -2.43547322472655e-05
"248" 0.000140922443722251 0.000116462882113718 0.000596643002524338 0.000142163363863582 9.28348672717044e-05 1.31863383222242e-05 7.79034297752205e-05 0.000674077395361619 -1.35357700578549e-05 5.56363480756642e-06 -3.1954022684039e-05 2.19711273271125e-05 5.54825459948481e-05 0.000527405438726208 0.000536849972622462 -1.4920043676297e-05
"249" 0.000156404781991899 0.000122426802012094 0.000599660871897046 0.000137214301886267 9.18129692477964e-05 1.15400275195816e-05 7.63067205797599e-05 0.000669293128457335 -1.09102007330875e-05 7.95169236083835e-06 -3.15531938264739e-05 1.72514379097625e-05 5.15293157191606e-05 0.000528251013551149 0.000525887325724597 -5.62443587630073e-06
"250" 0.000171655803618496 0.000128426888521854 0.000602369946734274 0.000131965232321926 9.09171508277401e-05 9.5213864123673e-06 7.54562324474416e-05 0.000662134359319642 -8.47454334929779e-06 1.14291139847516e-05 -3.17063313792381e-05 1.2895138694176e-05 4.69738581115063e-05 0.000528122192288746 0.000513779211305819 3.47948080489573e-06
"251" 0.000186620495657106 0.00013445295706907 0.00060477964867088 0.000126457295369911 9.01598438577762e-05 7.14139057249043e-06 7.53777810821736e-05 0.000652688699931444 -6.27124892892938e-06 1.59489674823116e-05 -3.24080588399141e-05 8.95225647876122e-06 4.19029750904385e-05 0.00052701993645339 0.000500635480134304 1.23428116889241e-05
"252" 0.000201246604200372 0.000140491608902798 0.000606901388270551 0.000120737886172423 8.95505369130002e-05 4.41840941778302e-06 7.60936910490111e-05 0.000641064472119708 -4.34212347273836e-06 2.14483832550761e-05 -3.36435172569627e-05 5.47141698532013e-06 3.64079986814317e-05 0.000524954900662236 0.000486580397919257 2.09247881646446e-05
"253" 0.000215481469055147 0.000146531917541375 0.000608752446978 0.000114858531922337 8.91091469368384e-05 1.37116684015859e-06 7.76216711627609e-05 0.000627387029967284 -2.72099061982939e-06 2.78685016461567e-05 -3.53939354969473e-05 2.49744432617988e-06 3.05892758754099e-05 0.000521948891157288 0.000471747413577406 2.9190298017538e-05
"254" 0.000229283792644447 0.000152562823474463 0.000610353970297869 0.000108869002330016 8.88383138302654e-05 -1.97888915931538e-06 7.99767046917266e-05 0.000611801359290934 -1.43446107640943e-06 3.5144927040865e-05 -3.7636343949008e-05 7.2740015976539e-08 2.45470851081348e-05 0.000518029572978482 0.000456269977422218 3.71029664305128e-05
"255" 0.000242616094702321 0.000158570721472991 0.000611722732113417 0.00010282161178782 8.87517027356173e-05 -5.60214060700176e-06 8.31655991440246e-05 0.000594463314958785 -5.05416831850311e-07 4.3209448065473e-05 -4.03391385273031e-05 -1.7605949347229e-06 1.83870053798825e-05 0.000513236284870617 0.000440294550285879 4.46410030346795e-05
"256" 0.000255446999145427 0.000164544021609321 0.000612879732631508 9.6767278467702e-05 8.88587546713833e-05 -9.47091212606038e-06 8.71921522787741e-05 0.000575551474280659 5.35918212648981e-08 5.19898452608231e-05 -4.34720997705333e-05 -2.96666638309735e-06 1.22203708405718e-05 0.000507606474809786 0.000423967614463567 5.17869797285733e-05
"257" 0.000267749280355275 0.000170469243485741 0.00061385433354786 9.07618844373433e-05 8.9166776975975e-05 -1.35508193484705e-05 9.20505490144222e-05 0.000555250710185908 2.35859485140292e-07 6.14194217169852e-05 -4.69927135151801e-05 -3.51020618728075e-06 6.15299853616228e-06 0.000501195502593257 0.000407431917157123 5.85220949148805e-05
"258" 0.000279509561196993 0.000176337646444734 0.00061467330285215 8.48553864943679e-05 8.96824078254851e-05 -1.78053292092566e-05 9.77345751042054e-05 0.00053375510983107 3.85784207480483e-08 7.14245907452459e-05 -5.08623636378001e-05 -3.36296320047929e-06 2.95033677472751e-07 0.000494058586961402 0.000390841581309355 6.48471599053074e-05
"259" 0.00029071138285303 0.000182134887145586 0.000615360095148734 7.91030995656085e-05 9.04152455267831e-05 -2.21968389889696e-05 0.000104234177680579 0.000511272026495286 -5.2395125139379e-07 8.19352437159028e-05 -5.50329470137519e-05 -2.49562908525444e-06 -5.24550017255776e-06 0.000486259591478488 0.000374342241649698 7.07554169022772e-05
"260" 0.000301348198420067 0.000187846734830406 0.000615938662244233 7.35553340324511e-05 9.1359298108642e-05 -2.66822911497434e-05 0.000111525360764397 0.000488010086864626 -1.43699262874975e-06 9.2886216457726e-05 -5.94567011172541e-05 -8.89276505145532e-07 -1.0364352763982e-05 0.00047786309368093 0.00035807774329317 7.62538946751524e-05
"261" 0.000311425102070291 0.000193461997604091 0.00061644015976522 6.82601225743464e-05 9.25236946326409e-05 -3.12199694507476e-05 0.000119583566642909 0.00046418119214904 -2.67827021492915e-06 0.000104200026676464 -6.40837891691512e-05 1.47354765607515e-06 -1.49607177608503e-05 0.000468945185547361 0.000342185176720776 8.13540734176207e-05
"262" 0.00032094537957041 0.000198970427378437 0.000616894749450101 6.32689646706381e-05 9.39056374866625e-05 -3.57661609566691e-05 0.000128383044025651 0.000440001168467499 -4.21570281103139e-06 0.000115818432046885 -6.88586148549865e-05 4.60452299069068e-06 -1.89357726926663e-05 0.000459575748255264 0.000326800760239183 8.60723803641294e-05
"263" 0.000329923525056053 0.000204355357542573 0.000617321156295814 5.86227027391448e-05 9.54999565195949e-05 -4.02769033059951e-05 0.00013788676873077 0.000415681569512856 -6.01219755623131e-06 0.000127674099187737 -7.37289763091989e-05 8.51066014143443e-06 -2.22009489923114e-05 0.000449834842695333 0.000312054420781845 9.04290724070209e-05
"264" 0.000338380299910303 0.000209609559029043 0.000617747002668333 5.43692729199217e-05 9.73067842913585e-05 -4.47047641179282e-05 0.000148056968506384 0.000391435761685809 -8.02568004771122e-06 0.000139703580742037 -7.86359150353301e-05 1.31931912503286e-05 -2.46734446925856e-05 0.000439803865737727 0.000298060527230019 9.44548738709452e-05
"265" 0.000346340102805354 0.000214717342968492 0.000618199740721482 5.05453798098475e-05 9.93186316785413e-05 -4.900672172802e-05 0.00015884934062333 0.000367465138569419 -1.02038435569118e-05 0.000151854105698029 -8.35251711882971e-05 1.86486747418768e-05 -2.62738083500296e-05 0.000429561404498017 0.000284931066970574 9.81768219451518e-05
"266" 0.000353825483715437 0.000219668587115882 0.000618696924087371 4.7190019551172e-05 0.000101520460812405 -5.31335524697816e-05 0.000170212224620477 0.000343969810311748 -1.24850908849628e-05 0.000164071643407183 -8.83412516507636e-05 2.48651452698971e-05 -2.69402011711757e-05 0.000419187317842355 0.000272765289898785 0.000101627736464598
"267" 0.000360876144367509 0.000224451064337028 0.000619259034502402 4.43364227705131e-05 0.000103911503570487 -5.70452092947764e-05 0.000182098782576999 0.000321137675782037 -1.48212013906377e-05 0.000176298929383966 -9.30304447870508e-05 3.18273835474796e-05 -2.66085818417091e-05 0.000408761372461384 0.000261648533268358 0.000104852003522916
"268" 0.000367527802483501 0.000229053208706891 0.000619907790532586 4.20127671099586e-05 0.000106470770623321 -6.06975620850039e-05 0.000194448096680944 0.000299147634565514 -1.71379491970782e-05 0.000188498936695351 -9.75389667806134e-05 3.95134173032665e-05 -2.5234908218762e-05 0.000398363936497244 0.000251657349802415 0.000107889110690944
"269" 0.000373819889176123 0.000233465362550142 0.000620652343663496 4.02463827407749e-05 0.000109189080723737 -6.4047627432584e-05 0.000207205542346797 0.000278166948285993 -1.93736358083906e-05 0.000200620365948636 -0.000101813329725358 4.7898714800396e-05 -2.27798886668223e-05 0.000388068492406901 0.000242853313288984 0.000110781366633962
"270" 0.000379794607685893 0.000237676740344799 0.000621510374069849 3.90596414947544e-05 0.000112046888945383 -6.70589228103014e-05 0.000220305943365824 0.000258350420042533 -2.14558080036589e-05 0.00021263180245425 -0.000105809102489172 5.69480169744982e-05 -1.92168002899035e-05 0.000377949509722414 0.000235288847760592 0.00011357653414408
"271" 0.000385500115223498 0.00024168273886197 0.000622491075408114 3.84681475753925e-05 0.000115026645673204 -6.96923485524208e-05 0.000233688679841388 0.000239835574696242 -2.33134159343906e-05 0.000224496498498953 -0.000109473513808591 6.66248073552808e-05 -1.45324707936982e-05 0.000368076521096711 0.000228995334459148 0.000116318087174836
"272" 0.000390977046714942 0.000245468696190455 0.000623599932614303 3.84847541004706e-05 0.000118110272818575 -7.19174313550763e-05 0.000247286206547415 0.000222746493910893 -2.4879193057285e-05 0.000236182514663515 -0.000112769984710572 7.68839518689961e-05 -8.71884651712034e-06 0.000358513894175235 0.000224000881478644 0.000119057984051095
"273" 0.000396281663044071 0.000249031753014577 0.000624844898776297 3.91208140856749e-05 0.000121277121486104 -7.37002114653721e-05 0.000261030633786188 0.000207189203857077 -2.60761670482006e-05 0.000247665784315752 -0.000115659117955485 8.76776961799886e-05 -1.78639816563584e-06 0.000349321836016544 0.000220307480473609 0.000121839754595357
"274" 0.000401452248078397 0.000252368187628351 0.000626225538246056 4.03811698715227e-05 0.000124501146945696 -7.50173836841828e-05 0.000274856976827346 0.000193259661158435 -2.68378668336988e-05 0.000258923220657566 -0.000118104535944564 9.89540815624915e-05 6.24959685015787e-06 0.000340557333054786 0.000217917986558446 0.000124712887371115
"275" 0.00040654122282351 0.000255468763205787 0.000627741130841457 4.22639769051087e-05 0.000127765451784422 -7.58426525588226e-05 0.000288693348416174 0.000181025185353802 -2.71015842499778e-05 0.000269932381675603 -0.00012007969823799 0.000110654211095497 1.53585058581396e-05 0.000332268923976385 0.000216809516937 0.000127721238164324
"276" 0.000411592435227511 0.000258331545149178 0.000629388895193808 4.47650704666481e-05 0.000131046584472007 -7.61575376763973e-05 0.000302473198683819 0.000170545212099741 -2.68010502825852e-05 0.000280675296959602 -0.000121556950910957 0.000122718155544464 2.55003918421511e-05 0.000324498788478412 0.000216950763428642 0.000130909625362927
"277" 0.000416651347604673 0.000260957138266603 0.000631163087830283 4.78795232479126e-05 0.000134313947058113 -7.59485877537736e-05 0.000316128855897412 0.000161858999208532 -2.58781557704525e-05 0.000291139090006681 -0.000122516016287846 0.000135079175477049 3.66242328548929e-05 0.000317285320918695 0.000218304039786463 0.0001343190986227
"278" 0.000421757737591187 0.000263343712886035 0.000633053645372353 5.15920373710111e-05 0.000137550905824591 -7.52040520600087e-05 0.000329595908408973 0.000154984673943448 -2.42831886141331e-05 0.000301309488739816 -0.000122946333379245 0.000147670797207115 4.86720495993376e-05 0.000310660508437904 0.000220808140512568 0.000137987875608735
"279" 0.000426953469739747 0.00026549353280105 0.000635048680634026 5.58882979645591e-05 0.000140733085723312 -7.39194907402491e-05 0.000342808246298666 0.000149928732063732 -2.19692413430965e-05 0.000311177174861801 -0.000122835327162876 0.000160422547675997 6.15764085543928e-05 0.000304645019847586 0.000224404357577621 0.00014194980347114
"280" 0.00043227193426891 0.000267412786098711 0.000637137172239036 6.07492094545355e-05 0.000143833243619954 -7.20935129273463e-05 0.000355701095339606 0.000146677495070569 -1.88960514998196e-05 0.000320733628986913 -0.000122182448534236 0.00017326000518605 7.52544114502521e-05 0.000299260998948431 0.000229015713529681 0.000146235384973405
"281" 0.000437745318623601 0.000269103420276874 0.000639303955742959 6.61494396326577e-05 0.000146829403589985 -6.97285413165788e-05 0.000368219225846428 0.000145198539465492 -1.50346821547436e-05 0.000329967248078421 -0.000120986570132446 0.000186112180996774 8.96262761536932e-05 0.000294516059357489 0.000234554884008958 0.000150872793149944
"282" 0.000443406618081214 0.00027057535226491 0.000641526537047483 7.20652973160252e-05 0.000149705113631864 -6.68335741758056e-05 0.000380303435216004 0.000145450086055926 -1.03591396943421e-05 0.000338872949056243 -0.000119257513231328 0.00019890589462233 0.000104600129968818 0.00029041582500745 0.000240935850251786 0.000155881685813889
"283" 0.00044927560810796 0.000271832806298779 0.000643797101150725 7.84678621912902e-05 0.000152437526523457 -6.34196255118462e-05 0.000391898998693784 0.000147368136685093 -4.86175797045528e-06 0.000347441647477262 -0.000117008714066199 0.000211562979106272 0.00012008158112069 0.000286958618977414 0.000248054957899939 0.000161279574925425
"284" 0.000455372075829449 0.000272891070451928 0.000646086404188927 8.53228266468681e-05 0.000155008542559055 -5.95069349098747e-05 0.000402957117972914 0.000150881498593034 1.46627921945754e-06 0.000355664198867319 -0.000114255641752849 0.000224014409555506 0.000135963886037929 0.000284137471776407 0.000255813565532153 0.000167075362536279
"285" 0.000461716603729266 0.000273760829432195 0.000648379031857234 9.25977910866455e-05 0.000157398095272244 -5.51135752559396e-05 0.00041342979442991 0.000155900834803676 8.61767671794381e-06 0.000363538108296411 -0.000111021811205146 0.000236184192011401 0.000152149822426203 0.00028193892057097 0.000264098922078101 0.000173275612973245
"286" 0.000468316506499914 0.000274461167188599 0.00065065257862983 0.00010025502414362 0.000159599323612633 -5.02646107794042e-05 0.000423280520854837 0.000162328534918452 1.65794405130633e-05 0.000371051930686905 -0.000107335909627796 0.000248006521551263 0.000168531256813187 0.000280341734538411 0.00027280636782867 0.000179880310358462
"287" 0.000475177122774598 0.000275003232474304 0.000652882701329452 0.000108256998789624 0.000161592153268191 -4.499168810825e-05 0.000432466673287108 0.000170052548845092 2.53232229455283e-05 0.000378193651509666 -0.000103228503506746 0.000259410741130261 0.000185000387564935 0.000279325752144705 0.000281819068805958 0.000186884977525258
"288" 0.00048229797168624 0.000275409333326399 0.00065505508104171 0.000116562231660812 0.000163373007433359 -3.9323104205296e-05 0.00044095737984606 0.000178954064095128 3.4819274429531e-05 0.000384965923872829 -9.87352089768309e-05 0.000270334662124106 0.000201450775025818 0.000278861118982832 0.000291025218688854 0.000194276309430786
"289" 0.000489675252977939 0.000275697150748704 0.000657142593236426 0.000125129860065774 0.000164929309203801 -3.3300132858692e-05 0.000448726235736098 0.000188908866498362 4.50179467390651e-05 0.000391349847928187 -9.38938894475513e-05 0.00028071863863758 0.000217778666283526 0.00027891502986751 0.000300315235005746 0.000202040043411289
"290" 0.000497309529930949 0.000275895124892712 0.00065912399088509 0.000133918961121194 0.000166258627057006 -2.69554769290035e-05 0.000455750478023586 0.000199778361318485 5.58761794874383e-05 0.000397339041469472 -8.87458364959628e-05 0.000290505910143564 0.000233878834462095 0.000279451568249645 0.000309578433195681 0.000210153195803923
"291" 0.000505180139101936 0.000276017884039001 0.000660981660819843 0.000142885143145273 0.000167362478412536 -2.03338864775983e-05 0.000462011217598449 0.000211427029415352 6.73294483624616e-05 0.000402924221001306 -8.33348186831996e-05 0.000299649513762457 0.000249652249296595 0.000280429470039645 0.000318705812504833 0.000218587666493058
"292" 0.000513274450598683 0.000276093465612118 0.000662691021784763 0.00015198455298526 0.000168234151670602 -1.34750609994622e-05 0.000467497536809211 0.000223712870421133 7.9309939214806e-05 0.00040809597194987 -7.77065748628045e-05 0.000308101833410515 0.000265007989506771 0.00028180821691369 0.000327601805077581 0.00022731450408693
"293" 0.000521571573294651 0.00027615003372662 0.000664239777819757 0.000161174494241253 0.00016888688939934 -6.42711988451518e-06 0.000472199866932219 0.00023649075912334 9.17432897239269e-05 0.000412839601319982 -7.19073504854124e-05 0.000315828434411903 0.000279851879739175 0.000283545901055955 0.000336166451832336 0.000236299993061132
"294" 0.000530050631108093 0.000276211146758209 0.000665609544817501 0.000170409301384784 0.000169323234798882 7.68250330914143e-07 0.0004761164648219 0.000249618303657542 0.000104553960441121 0.000417150816536001 -6.59868650615739e-05 0.00032279448170738 0.000294104735901744 0.000285592180344478 0.000344312117185088 0.00024550057855406
"295" 0.000538683617337023 0.000276306183928767 0.000666777657866675 0.00017964797237093 0.000169549056206154 8.06184844574924e-06 0.000479250513155835 0.000262947795614625 0.000117655983764281 0.000421020465074089 -5.99896579630509e-05 0.000328975506874389 0.00030769096706303 0.000287904579863271 0.000351956243990473 0.000254874611953174
"296" 0.000547446635026274 0.000276464131085823 0.000667739588862175 0.000188846285142282 0.000169584948143174 1.54096616463661e-05 0.000481607252858184 0.000276340677665837 0.000130958928290582 0.000424439115835776 -5.396228956094e-05 0.000334354331311242 0.000320546405686496 0.000290433646561458 0.000359022339861169 0.000264378749597227
"297" 0.00055630740989797 0.000276709948137059 0.000668472934128105 0.000197963042879644 0.000169439534231089 2.27651812264492e-05 0.000483196170552319 0.000289663203130094 0.000144372533733407 0.000427395698393904 -4.79549723976734e-05 0.00033892222532731 0.000332607700971689 0.000293132492702489 0.000365449828415889 0.000273964237128954
"298" 0.000565235421301476 0.000277073085522914 0.000668976242690744 0.000206958232960391 0.000169134165676238 3.00813487146052e-05 0.000484037545890926 0.000302776646251519 0.000157810130320865 0.000429889633054541 -4.20107994493728e-05 0.000342675148818841 0.000343827312154869 0.000295953110128326 0.000371182808825163 0.000283581686663053
"299" 0.000574202611161293 0.000277583180878369 0.00066923439805482 0.000215789405799031 0.000168686365085981 3.7316916903887e-05 0.000484144875310096 0.000315564781415126 0.000171174797286047 0.000431915075878515 -3.61687682013221e-05 0.000345615312584013 0.000354168146755507 0.000298851681236209 0.000376174304021259 0.000293182303184905
"300" 0.000583169942688723 0.000278259475588349 0.000669243249001418 0.000224421882451406 0.00016811792620171 4.44265775133156e-05 0.000483545254726196 0.00032790410397578 0.000184372777073748 0.000433470991102208 -3.04733626797844e-05 0.000347757943684373 0.00036359866015707 0.000301783546414783 0.000380392808145819 0.000302710476970703
"301" 0.000592111008964187 0.000279133057213862 0.000668996273844027 0.000232816023911519 0.000167451965193877 5.13714744428242e-05 0.000482265469442958 0.000339690024427912 0.000197315652377181 0.000434556232940592 -2.4962076058586e-05 0.000349117219532784 0.000372096033954741 0.000304704563890931 0.000383807158521069 0.000312120173755026
"302" 0.000600995220063282 0.000280227709397101 0.000668493430505508 0.000240938301436159 0.000166714918043556 5.81107722143577e-05 0.000480331414149626 0.000350822006927758 0.000209918117742385 0.000435176770805331 -1.96686212864139e-05 0.000349722408837183 0.000379654790118158 0.00030757556527652 0.00038640608082305 0.0003213556711516
"303" 0.000609788376400955 0.000281561287172243 0.000667733084507502 0.000248755219453471 0.000165928462847361 6.4611811370325e-05 0.000477776485528025 0.000361214647548389 0.000222091093040086 0.0004353394352014 -1.46225725041981e-05 0.000349602239125018 0.000386272538047606 0.000310358189383631 0.000388184355914546 0.000330370837880567
"304" 0.000618468177426894 0.000283158983551699 0.000666716665760216 0.000256237757858904 0.000165124017539503 7.08392417318443e-05 0.000474637682400706 0.000370792873849632 0.000233762281544112 0.000435051529234693 -9.85311622106393e-06 0.000348794403670992 0.000391957134455013 0.000313017945378982 0.000389149310071778 0.000339113257935981
"305" 0.000627005581540075 0.000285033656872001 0.000665450444667094 0.000263355498609325 0.000164327017381772 7.67655133477757e-05 0.000470950204081004 0.000379489762941368 0.000244855170818421 0.000434326909206813 -5.38323163923225e-06 0.000347345675677995 0.000396725239128572 0.000315521389222614 0.000389316332692114 0.000347536185489606
"306" 0.000635383608970458 0.000287202883694926 0.000663936680792213 0.000270080450876531 0.000163563549952023 8.23629989740707e-05 0.000466751811415167 0.000387256995412928 0.000255298527160564 0.00043318081246809 -1.23578794021742e-06 0.000345298678304569 0.000400604249052724 0.000317837799449944 0.00038870723819116 0.000355597746601113
"307" 0.000643578264195038 0.000289674335051755 0.000662188170896821 0.000276390110887547 0.000162859479130767 8.76109605090198e-05 0.00046208147355741 0.000394053147706776 0.000265035865157798 0.000431635948762447 2.5798398808283e-06 0.000342710375022023 0.000403629263900206 0.000319943344669224 0.000387357782446167 0.000363253255717623
"308" 0.000651575481582034 0.000292464650637446 0.000660209942954755 0.000282263377369827 0.000162243653520728 9.24892444082346e-05 0.000456984602175799 0.000399853534495965 0.000274016618611697 0.000429716855587341 6.04585579586481e-06 0.000339633867940893 0.000405837164517541 0.000321813811929385 0.00038530688784431 0.000370460909787847
"309" 0.000659365766911637 0.000295568928380139 0.000658014466026389 0.000287676399634196 0.000161742323696717 9.69829418378581e-05 0.000451497377394764 0.00040464275141426 0.000282197064863556 0.000427450456064395 9.15698954182105e-06 0.000336130678573384 0.000407278904944485 0.000323432142709258 0.000382601915095667 0.00037718528460394
"310" 0.000666935985885968 0.000298999036955961 0.00065561349552034 0.0002926173616169 0.000161375141710567 0.000101082318127948 0.000445664018728159 0.000408419421912746 0.00028953456923961 0.000424863124253332 1.19093078004361e-05 0.000332257963940013 0.000408005137860899 0.000324779010819756 0.000379300801363851 0.000383395821514513
"311" 0.000674284012349371 0.000302748918713789 0.000653025052385171 0.000297067822957332 0.000161164755599939 0.000104781522257874 0.000439526423408574 0.00041119664133397 0.000296012873820598 0.000421998518672638 1.43042688286761e-05 0.000328080957037633 0.000408071954881463 0.000325843276181664 0.000375461987910101 0.000389056703525086
"312" 0.000681410559726893 0.000306811422055296 0.000650262727770776 0.000301016614842284 0.000161134820428215 0.00010807429833698 0.000433126240938697 0.000412993374487014 0.000301611968043618 0.000418888991564465 1.63397882514506e-05 0.000323661313160547 0.000407538278193734 0.000326615766377976 0.000371144547145767 0.000394143029019607
"313" 0.000688323645149262 0.000311185181870807 0.000647342949475463 0.000304454533189663 0.00016129984772317 0.000110966126475821 0.000426502794132946 0.000413841623931076 0.00030632079351725 0.000415577316205352 1.80289720100658e-05 0.000319060641937367 0.000406469691061724 0.000327087173058923 0.000366424506176969 0.000398634924463392
"314" 0.00069502302325575 0.000315852324745188 0.000644285224133603 0.000307370955711633 0.000161680388494693 0.000113457983821878 0.00041970105680471 0.000413784571106606 0.000310144384447983 0.000412107360239508 1.93767547791413e-05 0.00031434196754568 0.000404925198333202 0.000327257773783545 0.000361363294428485 0.00040251012097111
"315" 0.000701529130844384 0.000320798640539985 0.000641102263289489 0.000309763654838726 0.000162281665821808 0.000115559714909059 0.000412753993262451 0.000412873738927202 0.000313093498504196 0.00040852781545018 2.03977833159208e-05 0.000309563976439951 0.000402973356074365 0.0003271216902435 0.000356036624043742 0.000405749548190125
"316" 0.000707854368582483 0.000326007769843859 0.000637813858841855 0.000311627632690263 0.000163121095821504 0.000117284687638642 0.000405701538491797 0.000411167544308112 0.000315191520284472 0.000404884190065439 2.11073855322948e-05 0.000304782183447093 0.000400672836331526 0.000326682606984314 0.000350512948651709 0.000408345151490646
"317" 0.000714013579663206 0.000331457803568107 0.000634441811292042 0.000312961173822726 0.000164200887186425 0.000118645516640511 0.000398577798641008 0.000408733351310973 0.000316461271818903 0.000401230607803216 2.15223659944753e-05 0.000300052917573828 0.000398086156122771 0.000325941111211064 0.000344862841179135 0.000410286689060804
"318" 0.000720039476390646 0.000337124824106004 0.000630999255803237 0.000313765352493247 0.000165523921081322 0.00011966435033422 0.000391418588772727 0.000405640714218725 0.000316948946207325 0.000397620155796703 2.1663532320446e-05 0.000295422067137886 0.000395274069905006 0.000324902928058134 0.000339156132699097 0.000411567059912059
"319" 0.000725951140880316 0.000342983003545884 0.000627504779969623 0.000314044476424021 0.000167092287451989 0.000120357559761564 0.00038425692788598 0.000401966093731264 0.000316695355508532 0.000394100118286376 2.15483234815462e-05 0.000290937034734363 0.000392285474026121 0.0003235744397261 0.000333458385589535 0.000412182499570981
"320" 0.00073177121964103 0.000348994540511863 0.000623976712519399 0.000313800240716304 0.000168899399784149 0.000120751226005432 0.000377116514723568 0.000397793572496602 0.000315757065770301 0.000390729134674831 2.11999111429672e-05 0.000286636093480548 0.000389176381608174 0.000321963497297289 0.000327830301124012 0.000412132863435291
"321" 0.000737541253985744 0.000355142378367372 0.000620428915147346 0.000313042016759106 0.000170942529425936 0.000120869202765794 0.000370029844638951 0.000393202188640803 0.000314195326817926 0.000387559746847156 2.06403846382741e-05 0.000282552925349952 0.000385986461325368 0.000320075155165188 0.000322331445826014 0.000411422623764483
"322" 0.00074328280598666 0.000361381450745992 0.000616872764080363 0.000311772008290374 0.000173204631387216 0.000120740888772992 0.000363017193539166 0.00038827654209685 0.000312076196054673 0.00038464538437751 1.98940727779338e-05 0.000278713511446181 0.000382758896735116 0.000317920675364241 0.000317008007243923 0.000410052673512826
"323" 0.000749025786269461 0.000367678779359642 0.000613325829450405 0.000310005819397164 0.000175675034332971 0.000120394217208322 0.000356103353123486 0.000383099333788456 0.00030947063106206 0.00038203450614665 1.89812087301765e-05 0.000275139643626556 0.000379521311967889 0.000315507049194909 0.000311910751833581 0.000408033531107303
"324" 0.000754806076765187 0.000374004846746531 0.000609797838139177 0.000307750645446861 0.00017833472923585 0.000119858911509373 0.000349304840051755 0.000377756019455266 0.000306460491271094 0.000379779864146652 1.79281222586456e-05 0.000271843732995873 0.000376301780142845 0.000312843887059702 0.000307077462233161 0.000405369659589615
"325" 0.000760651959344365 0.00038031572777023 0.000606294966389889 0.000305019674728169 0.000181164689041466 0.000119164002601428 0.000342638441281305 0.000372322416850455 0.000303118405357845 0.000377920748923782 1.67529092498432e-05 0.000268834349077025 0.000373116659123732 0.000309937192289675 0.000302540270915066 0.000402078309189243
"326" 0.000766592971954492 0.000386572267565338 0.000602825947029815 0.000301824122732143 0.00018413655575247 0.000118342388629832 0.000336113352533189 0.000366877934210801 0.000299533811685637 0.00037650787138761 1.54774474301092e-05 0.000266109130654624 0.000369978287385459 0.000306799890712729 0.000298324460880881 0.000398167796127969
"327" 0.000772657615272151 0.000392744134349802 0.000599397557057196 0.000298179273463194 0.000187224802692615 0.000117426077392926 0.000329746118268046 0.000361496254815631 0.000295789740158304 0.00037557340525215 1.41234014156252e-05 0.000263660239747554 0.000366886852642796 0.000303436117143572 0.000294444213237642 0.000393653042701637
"328" 0.000778870384604964 0.000398782327764242 0.000596009409647065 0.000294099141179217 0.000190398945309966 0.000116441013875406 0.000323536633482776 0.000356244386968205 0.000291971379138364 0.000375153081166077 1.27083321832502e-05 0.000261474627420423 0.00036383760724027 0.000299851414910013 0.000290915201656789 0.000388547114786557
"329" 0.000785256754951436 0.000404657553055623 0.00059266046741038 0.000289600552678203 0.000193626502096823 0.000115421286258448 0.000317492702294404 0.00035118591941516 0.000288160212708322 0.000375277055243421 1.12468383209032e-05 0.000259527528598599 0.000360819974956374 0.000296055115010111 0.000287733329153114 0.000382869269694855
"330" 0.000791827803951281 0.000410323885470551 0.000589352525505713 0.000284699908694162 0.000196868277481256 0.000114392761762238 0.000311613827937957 0.000346378484590718 0.000284437559586514 0.000375960391503858 9.75483024116833e-06 0.000257791326060496 0.000357813922961201 0.00029204966158033 0.00028489322127029 0.000376636470268893
"331" 0.00079860052574305 0.000415747919796355 0.000586079476451058 0.000279414422078912 0.000200089075558831 0.000113382922415989 0.000305899142476466 0.000341867474580346 0.000280884866554133 0.000377222519724634 8.24512312504784e-06 0.000256232175214266 0.000354790448377401 0.000287837208155699 0.000282384229930964 0.000369868456132915
"332" 0.000805590577201154 0.000420894658224365 0.000582834947712548 0.000273763492298288 0.000203250746606773 0.000112417465675744 0.000300343964616672 0.000337697562701954 0.000277578396562728 0.00037906734255971 6.72909559858152e-06 0.000254807200350311 0.0003517198178345 0.000283423335911134 0.000280180529864959 0.000362584422365745
"333" 0.000812798534478845 0.000425725204978136 0.00057960440219912 0.000267765092194916 0.000206310959201337 0.000111520222546192 0.000294940439725658 0.000333903623081263 0.000274582195694967 0.000381494755333483 5.21015045396881e-06 0.000253471897097263 0.000348561308686556 0.000278808335271329 0.000278259630055809 0.000354802878559601
"334" 0.000820221727516757 0.000430204615635874 0.000576384801965232 0.000261436835098571 0.000209228596055249 0.000110709940086963 0.000289677459072007 0.000330512542464787 0.000271963639539075 0.000384492732544933 3.6951263680144e-06 0.000252173296830615 0.000345274737183698 0.000273993215619863 0.000276583042891131 0.000346547657833646
"335" 0.000827853663955294 0.000434297107281151 0.00057315680532516 0.000254801553988501 0.000211959892381095 0.000110007392402046 0.000284544837766881 0.000327543722356731 0.000269772491928508 0.000388042201276755 2.1849889768205e-06 0.000250856495320083 0.000341812522790082 0.000268980491315322 0.000275116701916875 0.00033784334781417
"336" 0.000835687942272071 0.000437979425592917 0.000569908471777708 0.000247881056975056 0.000214464836292696 0.000109424446695684 0.000279530005112697 0.000325006415421772 0.000268059978266838 0.000392113371483951 6.8140671272081e-07 0.000249464743577673 0.000338121504737333 0.000263766516476663 0.000273810910891316 0.00032871537432503
"337" 0.000843699908817716 0.000441218969671197 0.000566620820793286 0.000240694354069371 0.000216700397016508 0.000108977332178354 0.000274615474805103 0.000322908382317576 0.000266861484607243 0.000396671540757866 -8.16225930369105e-07 0.000247933158266613 0.000334149736775076 0.000258351158853687 0.000272619827689964 0.000319187434751275
"338" 0.000851868838030951 0.000443985007768261 0.000563276210757154 0.000233265773230434 0.000218625548877036 0.000108673034498256 0.000269783039539102 0.000321241418810089 0.000266204492198247 0.000401663350007127 -2.31787304814012e-06 0.000246203339540095 0.000329844256831612 0.000252736212145695 0.000271492608842792 0.000309285659277732
"339" 0.000860159243981707 0.000446250334597255 0.000559855234115842 0.000225615431952049 0.000220195810497303 0.000108517310788492 0.000265016146789651 0.000319995869851738 0.000266103906396048 0.000407032359288203 -3.83023412256856e-06 0.000244206213922373 0.000325148565328981 0.000246916153020316 0.000270373304964068 0.000299042003712563
"340" 0.00086853398627494 0.000447999324013152 0.000556342249347206 0.000217772114245999 0.000221372693928115 0.00010851191804237 0.000260291670017009 0.000319154187818688 0.000266562749482867 0.000412709712809106 -5.36248999217021e-06 0.000241883291526847 0.00032001090316819 0.000240893331070415 0.00026920681070944 0.000288490159642571
"341" 0.000876951043339509 0.000449205135363383 0.000552708655279797 0.000209755881750433 0.000222124629448877 0.000108658290261285 0.000255590011082123 0.00031868997003716 0.00026757603655747 0.000418618598392134 -6.92623311730033e-06 0.000239167049374482 0.000314378074042289 0.000234668523396446 0.000267939512992654 0.00027765619604832
"342" 0.000885357627224598 0.000449852265893245 0.000548937377244479 0.000201594431085408 0.000222412207277898 0.000108951392202748 0.000250889549896368 0.000318574433445073 0.000269124931949559 0.00042466936606595 -8.53740055948086e-06 0.000235997746886668 0.000308201754774064 0.000228239745500391 0.000266517253944881 0.000266581118926103
"343" 0.000893699073148539 0.000449925363553909 0.000545004277675349 0.000193311876624927 0.000222200439132553 0.000109383014086232 0.000246170054057796 0.000318769392643404 0.000271175502407137 0.000430769439278816 -1.02094676327437e-05 0.000232317779292282 0.000301438721796977 0.000221611516560698 0.000264879999138628 0.000255300509819609
"344" 0.000901917667835833 0.00044941451508059 0.000540894852712314 0.000184937901554326 0.000221465061745278 0.000109941287725674 0.000241405180344498 0.000319238527918518 0.000273685692754734 0.000436814301887539 -1.19601765457008e-05 0.000228072372723193 0.000294044906056064 0.000214785181740299 0.000262984141678703 0.000243855185611788
"345" 0.000909941092177262 0.000448308394340129 0.000536586375739745 0.000176500026135432 0.000220179119977535 0.000110612585436736 0.000236576831493117 0.000319931823414759 0.000276594414046565 0.000442690488021443 -1.38086773647604e-05 0.000223209386729866 0.000285991107687192 0.000207766379407026 0.00026077644330324 0.000232288660162035
"346" 0.000917701295448444 0.000446600852679264 0.000532056420813386 0.000168026914951914 0.000218318734151476 0.000111383310949938 0.000231663046324884 0.000320804667026744 0.00027984151605149 0.000448281924538102 -1.57717479004815e-05 0.000217687010854454 0.000277245302527032 0.000200564528024042 0.000258214574156178 0.000220642688877713
"347" 0.000925126306267136 0.00044429151128579 0.00052729145541601 0.000159547738959466 0.000215864656470679 0.000112230531163018 0.000226639588386296 0.000321806125609355 0.000283347514621304 0.000453469269023715 -1.78693972812983e-05 0.00021146384694736 0.000267788541881169 0.00019318631937332 0.000255262210905839 0.000208963551285779
"348" 0.000932132122882112 0.000441379116928154 0.000522274974601181 0.000151092899201022 0.000212802810363761 0.000113131910931087 0.00022148912155783 0.000322886377550793 0.000287020724339109 0.000458119779450772 -2.01201900456845e-05 0.000204509687612179 0.000257611933243545 0.000185646409644693 0.000251881576516755 0.000197305177250304
"349" 0.000938642732354011 0.000437870876927749 0.000516988812350334 0.000142694711310684 0.000209130152470668 0.000114063365549977 0.000216194138635569 0.000323988434583637 0.000290764744753893 0.000462108503412297 -2.2541515613084e-05 0.000196798479198663 0.000246710991186237 0.000177957400980336 0.000248053995393145 0.000185716622564891
