"V1" "V2" "V4" "V5" "V7" "V8" "V10" "V11" "V13" "V14" "V15" "V17" "V18" "V20" "V21" "V23"
"1" -0.00192413976544354 0.000155348003615789 0.00305946371580932 -0.000899048062789678 0.000183480795901708 5.94921593779508e-05 -0.000659991998769342 -0.00122776592504307 -0.000346463067333771 0.00220217038528094 0.000777553008110793 -0.000516408120579565 -0.0022436705983814 -0.00273822636168073 -0.000405061414071774 6.32169091712203e-05
"2" -0.00191353017874039 0.000118856154069673 0.00305483631448218 -0.000922487224862685 0.000167071458832 4.30550344502143e-05 -0.000694901924090104 -0.0011782291820099 -0.000366880130450458 0.00202988596389518 0.00075942416158032 -0.000470745876548632 -0.00219855181310356 -0.00279034612935537 -0.000430476701696026 -1.40341836842486e-06
"3" -0.00190551438554545 8.44423720385275e-05 0.00304820143936673 -0.000944962383343932 0.000163856414231249 2.79789841744321e-05 -0.000723508490608544 -0.00113618546806244 -0.000386673544852263 0.00187058241943069 0.000740897513670434 -0.000424953514577102 -0.00215204771172029 -0.00284392048766278 -0.000452844751509885 -6.08161567809176e-05
"4" -0.00190037565786945 5.20284570944896e-05 0.00303984671227263 -0.000966369431653454 0.000173780278771056 1.43000017113481e-05 -0.000745232714792835 -0.0011018052590128 -0.00040566999975999 0.00172497878333866 0.00072220505810581 -0.000379338993108638 -0.00210448746376864 -0.0028985131189717 -0.000472037443418401 -0.000114564312878465
"5" -0.00189838097733454 2.15083262766167e-05 0.00303006728256952 -0.000986610426642033 0.000196691312955554 2.03473911255115e-06 -0.000759537127563008 -0.00107516390589371 -0.000423689601144235 0.00159365007078186 0.000703563583940569 -0.000334210797116073 -0.00205619628793487 -0.00295363570034901 -0.000487940687818084 -0.000162237305474076
"6" -0.00189976696966396 -7.26562574696798e-06 0.00301916907707751 -0.00100559284365926 0.000232348696806994 -8.80603068248291e-06 -0.000765956993773611 -0.00105624831396774 -0.000440568932930701 0.00147703519520014 0.000685170168786227 -0.000289885306872657 -0.00200750042468871 -0.00300875698271722 -0.000500458276197637 -0.000203483350896633
"7" -0.00190474851976588 -3.44617617443496e-05 0.00300745475587178 -0.00102323295910694 0.000280425967459611 -1.82249286663034e-05 -0.000764072418134662 -0.00104496460578704 -0.000456140895617548 0.00137545343023632 0.000667215688502975 -0.000246670667361132 -0.00195872214770114 -0.00306329314797788 -0.000509507789094406 -0.000238002737222484
"8" -0.00191350555569577 -6.02850823913095e-05 0.00299523264206134 -0.00103945445356789 0.000340502489593283 -2.62362646910466e-05 -0.000753532144163956 -0.0010411334626913 -0.000470251188950258 0.00128911285034001 0.000649865435993156 -0.000204878477749088 -0.00191018927879796 -0.00311663248137187 -0.000515018168407731 -0.000265551334686484
"9" -0.00192619090450818 -8.49668202597408e-05 0.00298282261428573 -0.0010541895013973 0.000412078775956425 -3.28647905855407e-05 -0.000734052645161499 -0.00104449891665662 -0.000482761620098826 0.00121810715699272 0.000633272338079044 -0.000164807646082434 -0.00186220778019035 -0.00316815810314192 -0.00051695200396675 -0.000285939956389583
"10" -0.00194291773847556 -0.000108750511637213 0.0029705324925843 -0.00106737784373128 0.000494563134509462 -3.81414270828886e-05 -0.000705411059295425 -0.00105473961498514 -0.00049353636796037 0.00116243810061357 0.000617568282963308 -0.000126758244333744 -0.00181509342554091 -0.00321720721674315 -0.000515271357747935 -0.00029903382260498
"11" -0.00196376880378873 -0.000131907600883504 0.00295867837179566 -0.00107897201984211 0.000587284472466134 -4.21078177106417e-05 -0.000667456613049828 -0.00107146740042331 -0.000502457269404652 0.00112200823380671 0.000602864993563966 -9.10093066433734e-05 -0.00176914053967097 -0.00326312957698135 -0.000509970215385838 -0.000304759987762207
"12" -0.00198878314133236 -0.000154712059774773 0.00294757630952518 -0.00108893129315486 0.000689493901935246 -4.48125763222132e-05 -0.000620101333477319 -0.00109423672473796 -0.000509428706810092 0.00109661821848033 0.000589259581037407 -5.78293710120747e-05 -0.00172464018438304 -0.00330528366180319 -0.000501066110511445 -0.000303101341647653
"13" -0.0020179633930339 -0.000177449199685312 0.00293753219732297 -0.00109722312732072 0.000800351926480407 -4.63100970507107e-05 -0.000563338624678032 -0.00112255684939691 -0.000514362726375141 0.00108598822029591 0.0005768257594972 -2.74743470211286e-05 -0.00168186664994075 -0.0033430211779516 -0.000488593951079369 -0.000294099966736671
"14" -0.00205128167417941 -0.000200403677251978 0.00292886145452842 -0.00110382726258056 0.000918958058567936 -4.665903268447e-05 -0.000497225979180557 -0.0011558994737614 -0.000517193755515128 0.00108973432909168 0.000565616448556026 -1.76728799402181e-07 -0.00164108823752537 -0.00337572682397825 -0.000472615378743497 -0.000277850087366915
"15" -0.00208866033210348 -0.000223850846356764 0.0029218674522315 -0.00110873297045081 0.00104431694367969 -4.59228615762479e-05 -0.000421905234327346 -0.00119370357076459 -0.000517867659829948 0.00110739135819302 0.000555677238714442 2.38443349216131e-05 -0.00160255472694564 -0.00340279732464284 -0.000453207260046073 -0.000254507676743196
"16" -0.00212999413640429 -0.000248055368733037 0.00291685831062632 -0.00111193725448034 0.00117537149708026 -4.41723623529955e-05 -0.000337584600466275 -0.00123538557422929 -0.000516356816509947 0.00113839639590156 0.000547020540003967 4.44002776670956e-05 -0.00156649845713528 -0.00342367316435483 -0.000430478639621461 -0.000224283268656626
"17" -0.00217513405647464 -0.000273261186969211 0.00291412717787074 -0.00111344775318595 0.00131100011077404 -4.14737666648441e-05 -0.000244562750949041 -0.00128034770397319 -0.000512650189101332 0.00118209755858704 0.000539652052944865 6.13149991369e-05 -0.00153314214164975 -0.00343782317742095 -0.000404552049547728 -0.00018744361490822
"18" -0.00222390705163115 -0.000299695311499322 0.00291397300207414 -0.00111328154634168 0.00145000773844057 -3.7901964242789e-05 -0.000143205019593753 -0.00132798168338953 -0.00050675379054918 0.00123774606208176 0.000533556398079929 7.44457113508381e-05 -0.00150268646761549 -0.00344477052865172 -0.000375583118065634 -0.000144304223177305
"19" -0.00227609695071313 -0.00032754054514061 0.00291667893316014 -0.00111146776996988 0.00159114707586198 -3.35281829097341e-05 -3.39631355761234e-05 -0.00137768809643943 -0.0004986905828272 0.00130450925466504 0.000528710811706033 8.36695936262774e-05 -0.00147531172931554 -0.00344406720494417 -0.000343732374755736 -9.52368840085019e-05
"20" -0.00233146397780995 -0.000356957897620276 0.00292253005936602 -0.00110803640573075 0.00173312483073382 -2.84269840853708e-05 8.26336870594916e-05 -0.00142886195839167 -0.000488507114213634 0.00138145395140668 0.000525066513998768 8.88936255161859e-05 -0.00145118117246179 -0.00343534654888966 -0.000309194110868493 -4.06627173866584e-05
"21" -0.00238973779613659 -0.000388058060277134 0.00293179867971997 -0.0011030335665345 0.00187460521253108 -2.26711921630228e-05 0.000205976753116804 -0.00148092137037783 -0.000476258040736572 0.00146757234046801 0.000522573525826883 9.00514474061798e-05 -0.00143043908334634 -0.00341826365079993 -0.000272163780611776 1.89517029321014e-05
"22" -0.00245062610771223 -0.000420910015135714 0.00294474712818154 -0.00109651167780131 0.00201421803582438 -1.63360320607847e-05 0.000335371901351889 -0.00153329529805148 -0.000462020670132115 0.00156175564702375 0.000521161588362905 8.71005504570038e-05 -0.00141320437468107 -0.00339255139269025 -0.000232858483703359 8.30991681296629e-05
"23" -0.00251380814176401 -0.000455544360829549 0.00296163298711767 -0.00108852797248192 0.00215058050135529 -9.48989039046507e-06 0.000470056508805647 -0.00158544029637379 -0.000445882903401093 0.0016628229867941 0.000520759092495789 8.00323348979986e-05 -0.00139957373243585 -0.00335800806624361 -0.00019151186602049 0.00015122530238696
"24" -0.00257895137030085 -0.000491930858140974 0.00298270023088447 -0.00107914397965397 0.00228230033567824 -2.20175932424541e-06 0.000609190794244171 -0.00163683169054883 -0.000427950065090342 0.0017695200804314 0.000521282191426627 6.88601988708777e-05 -0.00138962098069799 -0.00331448974769994 -0.000148358797569444 0.000222745883765136
"25" -0.00264570492333767 -0.000530006223986437 0.00300818205087556 -0.00106843492958316 0.0024080029710482 5.4574061425691e-06 0.000751858929735817 -0.00168698027406393 -0.000408333073390877 0.00188052276230115 0.000522638512659551 5.36306627561365e-05 -0.00138339632377898 -0.00326191273913303 -0.00010364287532123 0.000297043522964217
"26" -0.00271369917751818 -0.000569644573024177 0.00303829855317263 -0.00105647467974316 0.00252632844113458 1.3429321296426e-05 0.000897084511061188 -0.00173543285027216 -0.000387161344680338 0.00199445122301186 0.000524736030650833 3.4416802776677e-05 -0.00138092472769396 -0.00320027180985508 -5.76124705774375e-05 0.000373477480251108
"27" -0.00278256543980252 -0.000610690817917756 0.00307325408384012 -0.00104334143302993 0.00263597131261252 2.16472227262609e-05 0.00104382926435465 -0.00178176091035927 -0.000364567192533582 0.00210988095120132 0.000527472463174197 1.13186614087496e-05 -0.0013822067424081 -0.00312963177908633 -1.05216921887432e-05 0.000451385089385997
"28" -0.0028519190941971 -0.000652931216023006 0.00311323510693232 -0.00102911935879707 0.00273568073656751 3.00596181673044e-05 0.00119099980635775 -0.001825584258161 -0.000340690102123582 0.00222535776066678 0.000530748408656114 -1.5540385378091e-05 -0.00138721715475513 -0.00305011217390345 3.73860305246241e-05 0.000530090908220037
"29" -0.00292137723215172 -0.000696124866358878 0.00315841536992624 -0.00101389213413865 0.00282429215521186 3.86096622219551e-05 0.00133746044802581 -0.00186655641998725 -0.00031567759218471 0.00233941142080825 0.00053446484618513 -4.60054992158195e-05 -0.00139590140686396 -0.00296191676073535 8.58599947646852e-05 0.000608910476991413
"30" -0.00299055692783426 -0.000739990774228782 0.00320894242876575 -0.000997748911309251 0.0029007318922221 4.72519477435222e-05 0.00148204388813064 -0.00190436977510787 -0.000289680358196531 0.00245057261092286 0.000538521734613969 -7.98963964353932e-05 -0.00140818296266524 -0.00286531554021503 0.000134665543906273 0.00068716221689097
"31" -0.0030590721993952 -0.000784221318904933 0.00326494388932222 -0.000980771933606071 0.00296404279258957 5.59379858548576e-05 0.00162355418594397 -0.00193875811563959 -0.000262854159101306 0.00255739524999966 0.000542818135050358 -0.000117014516352508 -0.00142396277322902 -0.00276064143620508 0.000183564249568164 0.000764164062074457
"32" -0.0031265505475937 -0.000828488014687447 0.00332652051214015 -0.000963050585505277 0.00301340491038826 6.46293086316854e-05 0.0017607923316858 -0.00196949967530947 -0.000235353300368194 0.00265846743680514 0.000547261623659386 -0.000157134986346609 -0.00144310625107717 -0.00264830432226956 0.000232332472276308 0.000839253088730363
"33" -0.0031926251621735 -0.000872437614806325 0.0033937436521409 -0.000944669072638325 0.00304813469789384 7.32883000984218e-05 0.00189256198950806 -0.00199640688155952 -0.000207333991442573 0.0027524392586541 0.000551759693731455 -0.000200012688242289 -0.00146546692860905 -0.00252877006333265 0.00028075866604229 0.000911784506732556
"34" -0.00325693872038266 -0.00091571522234469 0.00346665098143863 -0.000925712301732888 0.00306771469508878 8.18863945908621e-05 0.00201768760835616 -0.00201934238366681 -0.000178948125865222 0.00283803718570016 0.000556227343597139 -0.000245383097407649 -0.00149086508847093 -0.00240256440733879 0.000328638389538136 0.000981141315083777
"35" -0.00331915210229466 -0.00095795350738543 0.00354524737952905 -0.000906258760555272 0.00307179126690686 9.03968029532328e-05 0.00213502775861801 -0.00203820169577564 -0.000150348257450649 0.00291409092082252 0.00056058419760845 -0.000292968196409845 -0.00151910398623695 -0.00227026795924532 0.000375788608409815 0.00104674051056629
"36" -0.00337893540470592 -0.000998790761723692 0.00362949310787241 -0.000886386421322948 0.00306018481547596 9.87957372473857e-05 0.00224349624167705 -0.00205292213138743 -0.000121689316336126 0.00297953748214822 0.000564754222284288 -0.000342473474663389 -0.0015499586923099 -0.00213252795673574 0.00042202338260888 0.00110803795751158
"37" -0.00343598678992052 -0.00103787528775975 0.00371930921023793 -0.000866171051445413 0.00303289438379491 0.000107065889637264 0.00234207833458177 -0.00206347473743604 -9.31166257695259e-05 0.00303344943665157 0.000568671870957159 -0.000393586700299519 -0.00158319285228319 -0.00199003551807182 0.000467181613332135 0.00116453726042827
"38" -0.00349001485795813 -0.00107485898663333 0.00381455973037354 -0.000845680114512763 0.0029900938743119 0.000115191578729125 0.00242984217551071 -0.00206987674304344 -6.47673454345832e-05 0.00307504867933181 0.000572273799579015 -0.000445997586317572 -0.00161854668666614 -0.00184350467889781 0.000511114537610258 0.00121579626931104
"39" -0.0035407590886358 -0.00110942357822884 0.00391506106971541 -0.000824980973639934 0.00293213190856754 0.00012316394310315 0.00250596022432929 -0.00207217290820039 -3.67865916219633e-05 0.00310370901909967 0.000575506715368318 -0.000499378635857607 -0.00165573903013774 -0.00169371568255824 0.000553679402983807 0.00126142281607395
"40" -0.00358798027079963 -0.00114126765884599 0.00402057519192247 -0.000804136340039473 0.00285952363702703 0.000130976662582671 0.0025697234922765 -0.00207044140890892 -9.29990930690185e-06 0.00311897266778649 0.000578318710454154 -0.00055340185856252 -0.00169448282730945 -0.00154145785765391 0.000594752004749155 0.00130109183740453
"41" -0.00363146431202686 -0.00117011727565469 0.00413079512468959 -0.000783203504737229 0.00277294590503445 0.000138623514669789 0.0026205519162726 -0.00206479628589879 1.75592043146036e-05 0.00312055381758349 0.000580668837553564 -0.00060773479728326 -0.00173447082365151 -0.00138756001117774 0.00063421355384797 0.00133453723151505
"42" -0.0036710266907398 -0.0011957330919687 0.00424535095672079 -0.00076223327063505 0.0026732052586351 0.0001461062332392 0.00265801147500272 -0.00205537643994511 4.36679512762552e-05 0.00310833408740796 0.000582522337543864 -0.000662048107666163 -0.00177538554603414 -0.0012328648349689 0.000671960086278887 0.00136156142043216
"43" -0.00370650607389183 -0.00121790964781949 0.00436380505747598 -0.000741276503424519 0.00256124954159147 0.000153426935735373 0.00268181099886964 -0.00204234724282961 6.89099345937275e-05 0.00308237056322624 0.00058384300863653 -0.00071601008370747 -0.00181690086490831 -0.00107823351311719 0.00070789241110812 0.00138203767341956
"44" -0.00373777456845574 -0.00123647858039384 0.00448565237600299 -0.000720380159593458 0.0024381333656876 0.000160589202466452 0.00269182420945468 -0.00202590641231454 9.31731213677396e-05 0.00304288038548789 0.000584609590087087 -0.000769302171017101 -0.00185868697301884 -0.000924524434522774 0.000741925419723198 0.00139590350664101
"45" -0.00376473473401964 -0.00125131771614046 0.00461031064927457 -0.000699578228044707 0.00230500449311834 0.00016760036176279 0.00268807914236154 -0.00200626025843185 0.000116347616499168 0.00299023597205309 0.000584792258318435 -0.000821599569023932 -0.0019004051477138 -0.000772618404059538 0.000773971928265014 0.00140316863778228
"46" -0.00378731547992734 -0.00126233927503877 0.00473712960744503 -0.000678914375866352 0.00216308677000376 0.000174465533850644 0.00267076924953839 -0.00198364878693007 0.000138332010083335 0.00292495947334915 0.000584375473045952 -0.000872597064625221 -0.00194171612746206 -0.000623381069612503 0.000803955704635644 0.00140391079576562
"47" -0.00380548222196315 -0.00126950692144252 0.00486538690391344 -0.000658417133978347 0.00201366073134521 0.000181199502561871 0.00264023822808057 -0.00195831708811393 0.000159024777670231 0.00284769050462697 0.000583344077187166 -0.000921994153171659 -0.00198228284772179 -0.000477675930626137 0.000831799933218786 0.0013982731332618
"48" -0.00381922372934502 -0.00127282716475924 0.00499429054481924 -0.000638116485391999 0.00185804243150013 0.000187811933387548 0.00259698405147465 -0.00193053184049262 0.000178334429503222 0.00275919410989745 0.000581682468506338 -0.000969501990922724 -0.00202176868759688 -0.000336354334583353 0.000857437974284882 0.00138646444010202
"49" -0.00382856393703635 -0.0012723475377795 0.00512298848789498 -0.000618040430585529 0.00169756705739661 0.000194312029774377 0.00254164849179094 -0.00190057057005915 0.000196173319247604 0.002660324117402 0.00057937941560446 -0.00101484995914509 -0.00205984602892399 -0.000200243775570501 0.000880802519749359 0.00136875382969117
"50" -0.00383355773510521 -0.00126817427885158 0.00525056667673253 -0.000598211942619017 0.00153357869841644 0.000200714445847605 0.00247499863584666 -0.00186871838841166 0.000212447561032148 0.00255201183240846 0.00057642093368369 -0.00105777131999149 -0.00209618447170359 -7.01831614744237e-05 0.000901820339099035 0.00134546263852721
"51" -0.00383427888274482 -0.00126044041596144 0.00537606531225282 -0.000578651413606293 0.00136740469716272 0.00020703247601669 0.00239792682181888 -0.0018352680020608 0.000227086893277936 0.00243525709026997 0.000572804976679114 -0.00109802377577586 -0.00213048151806124 5.30623182349032e-05 0.000920440140881166 0.00131696973526496
"52" -0.00383083951083018 -0.00124933823138552 0.0054984835865926 -0.000559377495252209 0.00120034242525556 0.000213275555997064 0.00231142347325043 -0.00180051993185081 0.000240015474394256 0.00231109266460063 0.000568519937066166 -0.00113537468973248 -0.00216243559239184 0.000168720521328366 0.000936592022661718 0.00128369411083261
"53" -0.00382336397950288 -0.00123509682957321 0.00561679210774243 -0.000540405024459457 0.0010336636051385 0.000219462386690754 0.00221656389724325 -0.00176477316379253 0.000251160574595024 0.00218058012491282 0.00056356280042191 -0.00116961043264679 -0.00219176293387761 0.000276057839732863 0.000950215801052997 0.00124609911284418
"54" -0.00381200709618005 -0.00121798049535478 0.00572994688113069 -0.000521746236192569 0.000868583435910407 0.000225605897085575 0.0021145005663296 -0.00172832787929249 0.000260463409848151 0.00204479867295862 0.000557924887454787 -0.00120053592745456 -0.00221820515658339 0.00037440265372357 0.000961262504453788 0.00120468458004832
"55" -0.00379693953610073 -0.0011982941631673 0.00583690750581172 -0.000503413509027362 0.000706257039104153 0.000231714646443667 0.00200643019299757 -0.00169148262139229 0.000267873603240441 0.0019048170947128 0.000551607539196698 -0.00122797150544324 -0.00224151651290519 0.000463110461412233 0.000969677686413042 0.00115997313143161
"56" -0.00377835242069667 -0.00117637241153479 0.00593665138479626 -0.000485414046611497 0.000547781163706977 0.000237808423937177 0.00189358808536372 -0.00165452778381161 0.000273345321945917 0.00176169640488792 0.000544609009594468 -0.00125175952624165 -0.00226148001177804 0.000541604167116756 0.000975421272519346 0.00111251662041369
"57" -0.00375644482220855 -0.00115257646858834 0.00602819006980022 -0.000467755161990153 0.000394179473893039 0.000243898768149537 0.00177723116603652 -0.00161775183897831 0.00027684657185151 0.00161646477572881 0.000536929748685857 -0.00127176507191291 -0.00227790842672875 0.000609356894468862 0.000978459180656305 0.00106287577318568
"58" -0.00373143207483164 -0.0011272927499006 0.00611059484116754 -0.000450437364771417 0.000246397714394429 0.00024999714451518 0.00165860919888478 -0.00158143013684528 0.00027835793520915 0.00147011999228205 0.000528575286886711 -0.00128786601731371 -0.00229063386972951 0.000665918560892928 0.000978768755111582 0.00101162307360547
"59" -0.00370353394785284 -0.00110092173832146 0.00618300332807658 -0.000433463883022543 0.000105298104769678 0.000256120828872574 0.0015389674161505 -0.0015458258038314 0.000277866506943915 0.00132361380127853 0.00051955377235102 -0.00129996983403499 -0.00229953000738486 0.000710900805818021 0.0009763336034002 0.000959329737053858
"60" -0.00367297406251498 -0.00107387205434497 0.00624464885464251 -0.000416834125942841 -2.83312051457026e-05 0.000262276859698992 0.00141951078726111 -0.00151118875473815 0.000275385011462241 0.0011778528430508 0.000509878575803852 -0.00130800957296627 -0.00230449418945135 0.000744030371864858 0.000971169018733363 0.000906564605239198
"61" -0.00363997258771864 -0.00104656001708284 0.00629486548949295 -0.000400546051200552 -0.00015379654995125 0.000268477830667829 0.00130141107817219 -0.00147775430488219 0.000270931894934271 0.00103368333350864 0.000499563249003113 -0.00131193668961493 -0.00230546098944493 0.000765093040785964 0.000963289314095838 0.00085388158439612
"62" -0.00360474468154572 -0.00101939457943342 0.00633311869096873 -0.000384592622325033 -0.000270488622167526 0.00027473571828645 0.0011857780866542 -0.00144572759284413 0.000264542366268204 0.00089189195151689 0.000488631895558929 -0.00131172870957067 -0.00230240345574794 0.00077399489208208 0.000952740264017922 0.000801821054651222
"63" -0.00356749612305315 -0.000992774496902134 0.00635899615015732 -0.000368972371854646 -0.000377882147259275 0.000281056124326449 0.00107365128385048 -0.00141530173087227 0.000256274586942393 0.000753202772872174 0.000477108336973685 -0.00130740239730448 -0.00229532719484527 0.00077075221277053 0.000939587878022145 0.000750898032735444
"64" -0.00352841967752538 -0.000967076915498058 0.00637224008882971 -0.000353680370705123 -0.000475546218736384 0.000287445745505413 0.000965999955946939 -0.00138664106296404 0.00024619426792747 0.00061826242088356 0.000465019545746589 -0.00129898880212047 -0.00228427205121636 0.0007554844431031 0.000923915426634008 0.000701595092115732
"65" -0.00348768965341688 -0.000942660212927466 0.00637273675644171 -0.000338706488405811 -0.000563133700071376 0.000293908847266434 0.00086369998195452 -0.00135987926837026 0.000234386919957472 0.00048765542265627 0.000452402979549117 -0.00128655757436297 -0.00226932063513037 0.000728438061996691 0.000905830475266154 0.000654361004983526
"66" -0.00344545802958233 -0.000919840509152055 0.00636053413794289 -0.000324049468223551 -0.000640386387491533 0.000300448921192774 0.000767535796730283 -0.00133512406609696 0.000220953181789797 0.000361884522693789 0.000439298388270107 -0.0012702057565939 -0.00225058527179215 0.000689985822917822 0.000885472123593587 0.000609609388443421
"67" -0.0034018588351655 -0.000898900166707192 0.00633583039814449 -0.000309701876366652 -0.0007071292792957 0.000307061904734199 0.00067819094979241 -0.00131244994038891 0.000206005311055578 0.000241372239620113 0.000425745484017805 -0.00125006477997776 -0.0022282176888038 0.000640618194405018 0.000862995568349554 0.000567704763513748
"68" -0.00335699280097628 -0.000880075881582335 0.00629898450163173 -0.0002956618535006 -0.000763272456122532 0.000313745836751688 0.000596246317404115 -0.00129190089670589 0.000189669898719656 0.000126468450801547 0.000411789254125107 -0.00122629158572366 -0.00220240020353695 0.000580948595206442 0.000838578441151058 0.000528962677020276
"69" -0.00331093703849772 -0.000863553252577486 0.00625049928193684 -0.000281922484302344 -0.000808817338967349 0.000320493516747078 0.000522173636307124 -0.00127348559631581 0.000172085542127916 1.74366929136382e-05 0.000397485920261581 -0.0011990776519425 -0.00217335313605925 0.000511722739991179 0.000812426449586963 0.000493652794172786
"70" -0.00326373839051129 -0.000849468556217945 0.00619102864146534 -0.000268484939233196 -0.00084382375854511 0.000327295297506426 0.000456342443237087 -0.0012571833673691 0.000153393730593441 -8.55403345855087e-05 0.000382882032539633 -0.00116863847851002 -0.00214132339243318 0.000433780289498347 0.000784757711683415 0.000461989115164306
"71" -0.00321541422046802 -0.000837894592344639 0.00612135000638894 -0.00025534618460292 -0.000868444954582037 0.000334143496222264 0.000399012573179516 -0.00124293652761209 0.000133749103257951 -0.000182361683750382 0.000368034144660575 -0.00113522293487518 -0.00210659084931106 0.00034807103473135 0.000755812152409106 0.000434129981670238
"72" -0.00316595305343613 -0.000828860812507313 0.00604236691191658 -0.00024250441329735 -0.000882895112068965 0.000341026119806946 0.000350334742085271 -0.0012306680817404 0.000113307696996374 -0.000273002806415542 0.000352997357205255 -0.00109909435312258 -0.00206945727936257 0.000255637502626531 0.000725838030745333 0.000410178340005101
"73" -0.00311531705524918 -0.000822325713538781 0.00595509937382934 -0.000229962756056886 -0.000887455205034295 0.000347931688936034 0.000310369962199145 -0.00122026622245327 9.22333189299971e-05 -0.000357522449557265 0.000337834484122487 -0.00106054161507583 -0.00203025243749237 0.000157592895336245 0.000695099644012776 0.000390185805118408
"74" -0.00306343916686987 -0.000818209664847002 0.00586065282901009 -0.000217714522155186 -0.000882466007580249 0.000354850818586365 0.000279075964914978 -0.00121159884948112 7.06794006954634e-05 -0.000436055814510315 0.000322601756614081 -0.00101986922697333 -0.00198932912061822 5.50973989734297e-05 0.000663863319103046 0.000374146026977982
"75" -0.0030102321164324 -0.000816368505458472 0.00576022097612147 -0.000205760311365381 -0.000868327776690164 0.000361778605731071 0.000256322938904178 -0.00120451601705319 4.88106914313452e-05 -0.000508806219168434 0.000307363428997908 -0.000977388066117783 -0.00194705367202358 -5.06360075332945e-05 0.000632401282389673 0.00036200015356437
"76" -0.00295558209768857 -0.000816615325251955 0.00565507071872255 -0.000194093660061439 -0.000845477090135086 0.000368704887706815 0.000241900753803965 -0.00119885052798688 2.67746013934406e-05 -0.00057604621979753 0.000292177246124761 -0.000933422707314654 -0.00190381126288018 -0.000158389943660827 0.000600977664901508 0.000353642717656528
"77" -0.00289935950546464 -0.000818719302271176 0.00554651598302276 -0.000182709560519009 -0.000814407697148325 0.000375634234359214 0.000235520152685372 -0.0011944285750648 4.72480737169555e-06 -0.000638109987468745 0.000277107600547845 -0.000888298769885031 -0.00185999904779246 -0.000266940734502008 0.000569857445825995 0.000348920067220316
"78" -0.00284141961477726 -0.000822402979119784 0.00543591111536896 -0.000171593695047266 -0.000775645150383246 0.00038256716996222 0.000236823107164768 -0.00119106304347182 -1.71942698708184e-05 -0.000695385032950605 0.000262217418871737 -0.000842336867300275 -0.00181602330825441 -0.00037507611160214 0.000539299058040387 0.000347637757878178
"79" -0.00278161086512409 -0.000827364180806703 0.00532464629807408 -0.000160733756201593 -0.000729739603315019 0.000389513493097785 0.000245395582874599 -0.00118856781432919 -3.88568706045264e-05 -0.000748318525749523 0.000247568495896007 -0.000795850540604925 -0.00177229020788714 -0.000481642004655715 0.000509538597601478 0.00034955938857403
"80" -0.00271977185517077 -0.000833259850407709 0.00521411957174944 -0.00015010899295763 -0.000677276678697503 0.000396488635526664 0.000260762058026295 -0.00118675940849286 -6.01297120414489e-05 -0.000797390266443944 0.000233225445194386 -0.000749149728848198 -0.0017292084132692 -0.000585520105190155 0.000480807729520885 0.000354412376343458
"81" -0.00265574291220274 -0.00083973015801204 0.0051057332508087 -0.000139693185946561 -0.000618853833010483 0.000403516120217383 0.000282406337923323 -0.00118545517136807 -8.09039115417754e-05 -0.00084311447025551 0.00021924945173291 -0.000702526648117391 -0.0016871868465163 -0.000685667630061647 0.000453312683778442 0.00036189891177394
"82" -0.00258936376286802 -0.000846392285292699 0.00500087931919145 -0.000129456297131485 -0.000555092504794888 0.000410619268507021 0.000309768509618496 -0.00118448215537413 -0.000101073388843197 -0.000886036113087192 0.000205707766973684 -0.000656257069135431 -0.00164661871560297 -0.000781113818150005 0.000427248318449353 0.000371686959767369
"83" -0.00252048490021759 -0.000852850773138105 0.00490093362686951 -0.000119361700970075 -0.000486619950439293 0.000417831780237425 0.000342257411151056 -0.00118367440973378 -0.00012054630086918 -0.000926718984476137 0.000192660720778278 -0.000610598012376035 -0.0016078901270226 -0.00087099466758891 0.000402779882158524 0.000383423885669203
"84" -0.0024489704548635 -0.000858701485643165 0.00480723983368266 -0.000109366845908883 -0.000414069549365137 0.000425189306593131 0.000379249957499147 -0.00118288147283643 -0.00013924193506498 -0.000965726160906573 0.000180169585072811 -0.00056578556079254 -0.00157136747784712 -0.000954523808998003 0.000380056907151449 0.000396742645512556
"85" -0.00237469915779736 -0.000863537043227734 0.00472110737967511 -9.94232254969826e-05 -0.000338081188901578 0.000432737206093644 0.000420108591915698 -0.00118195800711464 -0.000157097575277532 -0.00100363619396066 0.000168296215594089 -0.000522035480262904 -0.00153739446441991 -0.00103104402211657 0.00035920098511098 0.000411253064350024
"86" -0.00229757598089636 -0.000866958760857859 0.00464379579198033 -8.94812282725492e-05 -0.00025929336139232 0.00044051949300874 0.000464177027285517 -0.00118078287438383 -0.000174053047642248 -0.0010410043953494 0.000157100500283532 -0.000479535015468413 -0.00150628826123067 -0.00109999145891243 0.000340309582574099 0.000426562856492804
"87" -0.00221752853139488 -0.000868564872131803 0.00457650663154127 -7.94790449429521e-05 -0.000178335403639625 0.000448579374270958 0.00051078832735672 -0.00117923983234734 -0.000190066457479409 -0.00107837080707482 0.000146644264491974 -0.000438452737380328 -0.00147833898434028 -0.00116091438426145 0.000323465077616865 0.000442273198634496
"88" -0.00213451821668452 -0.000867981056623562 0.00452038611368094 -6.93585586282163e-05 -9.58384652656082e-05 0.000456970544886192 0.000559266930363895 -0.00117723454748077 -0.000205104817846833 -0.00111625056003761 0.000136980113065284 -0.000398927370208535 -0.00145380402130334 -0.0012134899153952 0.000308713401096452 0.00045797943496533
"89" -0.00204854178652588 -0.00086484125461791 0.00447650153308846 -5.90548379601693e-05 -1.24197660247797e-05 0.000465734070194627 0.000608948429918557 -0.00117468093979404 -0.000219145989791893 -0.00115511920997832 0.000128167998103122 -0.000361077307808973 -0.00143289360477206 -0.00125749032449385 0.00029609282949837 0.000473289708012637
"90" -0.00195963563575475 -0.000858812611344685 0.00444585121466114 -4.85008257526064e-05 7.1317034224767e-05 0.000474922797903865 0.000659163798689482 -0.00117151535075348 -0.000232183578090815 -0.0011954037457687 0.000120259696205288 -0.00032499748508065 -0.00141578977180396 -0.00129280786375699 0.000285608567684644 0.000487812159533844
"91" -0.00186788155097741 -0.000849588024961921 0.00442933870186811 -3.7629186812945e-05 0.000154775023846372 0.000484572912591328 0.000709255288735493 -0.00116768030466766 -0.000244214016903176 -0.00123748298035017 0.00011330820363387 -0.000290755663735606 -0.00140261984565416 -0.00131944358088937 0.00027724875152366 0.000501171063572171
"92" -0.00177340333419813 -0.000836894224306935 0.00442778204932819 -2.63703740448101e-05 0.000237379935764511 0.00049472727120716 0.000758590067160611 -0.00116314027463611 -0.000255244311722002 -0.00128167703710646 0.000107360996365313 -0.00025840093708565 -0.00139347854556648 -0.00133749684035518 0.000270985624310628 0.000513008193602923
"93" -0.00167638304706029 -0.000820499337562945 0.00444189297297904 -1.46581545214113e-05 0.000318569473503346 0.00050541778809657 0.000806544204334572 -0.00115786562508829 -0.000265295260730535 -0.00132823401285921 0.000102467658969867 -0.000227964516434283 -0.00138840412551061 -0.00134716615348046 0.000266773936089345 0.000522981309167922
"94" -0.00157705191120075 -0.000800212881860191 0.00447227647420374 -2.42752636634611e-06 0.000397803291566585 0.00051666958097577 0.000852531707762934 -0.00115184398531212 -0.000274383026403607 -0.00137732951588819 9.86703494959691e-05 -0.000199453683907954 -0.00138739597532326 -0.00134873930093905 0.000264553862701612 0.000530773116613646
"95" -0.001475697831055 -0.000775897821657228 0.00451941589017922 1.03813817683806e-05 0.000474557201710574 0.000528499475821047 0.000895984620079173 -0.00114507142592173 -0.00028254389158724 -0.00142906629940667 9.60143508972575e-05 -0.000172860943193301 -0.0013903960629978 -0.00134259483737169 0.000264247293232344 0.000536093747938274
"96" -0.00137266517732183 -0.000747458899698322 0.00458366636954803 2.38292579636197e-05 0.000548329741639041 0.000540915085435528 0.0009363756737771 -0.00113755675034323 -0.00028980055179485 -0.00148346146071383 9.45373410071697e-05 -0.000148165657930908 -0.00139731078404582 -0.00132917083044183 0.000265782085429573 0.000538687351136289
"97" -0.00126835803177206 -0.000714863774357634 0.00466524594636795 3.79663798838429e-05 0.000618642806391779 0.000553914870114974 0.000973219299615324 -0.00112931788854716 -0.000296194262797788 -0.00154045516757618 9.42805519949254e-05 -0.000125333289161241 -0.00140799596466184 -0.00130898788968456 0.000269059840794963 0.000538325681909267
"98" -0.00116323911428029 -0.000678139253954566 0.0047642163014641 5.28372934318535e-05 0.000685043059326366 0.00056748698530693 0.00100606955116346 -0.00112038167078817 -0.000301761437464354 -0.00159990874999552 9.52769541309672e-05 -0.000104312173038187 -0.0014222618363127 -0.00128262891346008 0.000273987601128192 0.000534822166779958
"99" -0.00105782595257233 -0.000637367596504695 0.00488047624411323 6.84803325441867e-05 0.000747095460585851 0.000581603457657836 0.00103453132687107 -0.00111078377937277 -0.000306536019852864 -0.00166159289547029 9.756207768329e-05 -8.50496992276547e-05 -0.00143988528503286 -0.00125070895166761 0.000280468187504063 0.000528026681433022
"100" -0.000952695114787096 -0.000592695159612504 0.00501375154693255 8.49224601361912e-05 0.000804394087600928 0.000596230540905034 0.00105825385926625 -0.00110057108439461 -0.00031055198330041 -0.00172520555858125 0.000101167981891133 -6.74799290526487e-05 -0.00146060055278701 -0.00121389388881108 0.000288405190432143 0.000517830743004884
"101" -0.000848477899227818 -0.000544340279309001 0.00516357393486019 0.000102182571585544 0.000856557826185774 0.000611314831713816 0.00107694674372635 -0.00108979306296214 -0.000313839932936055 -0.00179035836340816 0.000106122306061248 -5.15313948043584e-05 -0.00148410976054932 -0.00117288154266872 0.000297703082483257 0.000504165863613557
"102" -0.000745851011654338 -0.000492580785920966 0.00532927069272148 0.000120271170674302 0.000903233142978564 0.000626798004809306 0.00109037552710948 -0.00107850666750604 -0.000316429885064552 -0.00185660216116409 0.000112460109852393 -3.71366647238442e-05 -0.00151008532220958 -0.00112839285464908 0.000308274437510301 0.000487010518349645
"103" -0.000645533515340457 -0.000437765666412053 0.0055099505301656 0.000139182986046604 0.000944099206507449 0.000642602063600382 0.00109836430183802 -0.00106678012144131 -0.000318343283811741 -0.00192341161941807 0.000120200123575904 -2.42157908224025e-05 -0.00153817102676423 -0.0010811708297144 0.000320027621490477 0.000466384745065958
"104" -0.000548290257154871 -0.000380311027470291 0.00570448342137754 0.00015890539145794 0.00097885609745983 0.000658643172451443 0.00110079442313006 -0.00105467983273297 -0.000319590809056155 -0.00199019235069201 0.000129374170547905 -1.26938447836943e-05 -0.00156799564514535 -0.00103194512829432 0.000332894570612654 0.000442357477036291
"105" -0.000454907561296133 -0.000320702363907315 0.00591149448790464 0.000179411889965249 0.00100724077462115 0.00067482281198208 0.00109761198994862 -0.00104228606003453 -0.000320184089409329 -0.00205629930711631 0.00014000462733267 -2.49147228313412e-06 -0.0015991670950542 -0.000981473216986059 0.000346807794949496 0.00041503593002858
"106" -0.000366193708660817 -0.000259492523533691 0.00612935159449722 0.000200664930342674 0.00102902155907351 0.000691028362059718 0.00108883145147309 -0.00102967751692265 -0.000320122036205541 -0.00212102882334119 0.00015211294640656 6.4632875907633e-06 -0.00163128202536459 -0.000930492605532577 0.000361710648040804 0.000384574091313636
"107" -0.000282977063424049 -0.000197299006326669 0.00635614464414474 0.00022261426011395 0.00104400159828266 0.000707143729323585 0.00107451759969238 -0.00101694180212356 -0.0003193941769892 -0.00218363628580223 0.000165718056922608 1.42482510146353e-05 -0.00166393341937473 -0.000879726082057502 0.000377565541992025 0.000351168870438676
"108" -0.000206074181572237 -0.000134807961027884 0.00658969035842563 0.000245196878445758 0.00105202133501862 0.000723040103086277 0.00105480674454703 -0.00100417053524429 -0.000317988015045798 -0.00224332792159455 0.000180842194202666 2.09335615110229e-05 -0.00169670552322708 -0.000829895720573358 0.000394337793509771 0.000315058922508132
"109" -0.000136300934178068 -7.27598250227819e-05 0.00682751972018814 0.000268338281389638 0.00105294851818354 0.000738581985046837 0.00102989391486008 -0.000991463107192704 -0.000315873215856014 -0.00229928692893311 0.000197498812492031 2.65900033622662e-05 -0.00172919707439257 -0.000781691964192449 0.000412009733122942 0.000276521068978266
"110" -7.44443913486619e-05 -1.19565919146317e-05 0.00706688764601568 0.000291949944828543 0.00104670480001988 0.000753626916756222 0.00100002600353221 -0.000978916723550781 -0.000313020560066278 -0.00235065620780062 0.00021570117537384 3.12848214783821e-05 -0.00176099897890201 -0.000735790151117755 0.000430577237107429 0.000235870530471415
"111" -2.12582785018125e-05 4.67580581492893e-05 0.00730477051725256 0.000315932634316017 0.00103323529491996 0.000768028045050576 0.000965505341360161 -0.000966638903456348 -0.000309380841280292 -0.00239655998480573 0.000235461672506306 3.5082638160907e-05 -0.00179172347322576 -0.000692811792000082 0.000450050974269162 0.000193456412878516
"112" 2.25529880462686e-05 0.000102489270560206 0.00753789625944614 0.000340177833599902 0.00101253321045116 0.000781633471079776 0.000926695557834583 -0.000954740344487848 -0.000304911275079054 -0.00243611014163404 0.000256787848581051 3.80431061962178e-05 -0.0018209944229498 -0.000653387700482393 0.000470444148759329 0.000149656346834565
"113" 5.63454521606622e-05 0.000154315629576971 0.0077627598907812 0.000364562998942455 0.000984636985406226 0.000794296274705855 0.000883993646835041 -0.00094332806902347 -0.000299549656370389 -0.00246839965652646 0.000279678258698649 4.02271616395509e-05 -0.00184845170898755 -0.000618073473631595 0.000491790591985425 0.000104878637522112
"114" 7.95475277356095e-05 0.000201286182587617 0.00797565891399129 0.000388958184760269 0.000949620522120445 0.000805860193668494 0.000837847532498024 -0.000932518770567557 -0.000293241193961296 -0.00249252365760204 0.00030413221472467 4.16912333262696e-05 -0.00187375673132662 -0.000587412743601363 0.000514126129243098 5.95524359630849e-05
"115" 9.16723209359022e-05 0.000242440319483102 0.00817274949027245 0.000413221750992678 0.000907604893715815 0.000816177160607568 0.000788739944875576 -0.000922424444443873 -0.00028592395588216 -0.00250757788355138 0.000330138952761549 4.24869775093911e-05 -0.00189659347101415 -0.000561905389211026 0.00053749153853528 1.41241493074684e-05
"116" 9.23265393779384e-05 0.000276826360243376 0.00835009818489926 0.000437202923281032 0.000858745210243911 0.0008251006079169 0.000737171886194941 -0.000913156224174751 -0.000277524065699863 -0.00251265476776112 0.000357680297610308 4.26642503889785e-05 -0.00191667411562646 -0.000541974881833293 0.000561943958926601 -3.09448166950426e-05
"117" 8.12164304712138e-05 0.000303500290880435 0.00850375470239284 0.000460741467191646 0.000803243743809255 0.000832491126597445 0.000683678522099427 -0.000904822205782808 -0.00026798357675829 -0.00250687276751636 0.000386727619273929 4.2267084875187e-05 -0.00193373164704665 -0.000528023539382444 0.00058753783754329 -7.5183213632464e-05
"118" 5.81642450815743e-05 0.000321553879148985 0.00862983136499198 0.000483672785640497 0.00074134168010962 0.00083821142058004 0.000628799745090071 -0.000897527284783243 -0.000257231941886995 -0.00248935739177423 0.000417247056870186 4.13351501030077e-05 -0.00194753131100983 -0.000520376902639393 0.000614327075496297 -0.000118121722934192
"119" 2.31001281964776e-05 0.000330131225981077 0.00872459306458 0.000505818684459148 0.000673308958388536 0.000842135653114214 0.000573087243901204 -0.000891363995156926 -0.000245215710227027 -0.00245926565846271 0.000449187902091303 3.99030269240935e-05 -0.00195786498680468 -0.000519303667127666 0.000642369596817376 -0.000159289471524037
"120" -2.39217170631204e-05 0.000328442010773733 0.00878454834272607 0.000527001197935842 0.000599461982031343 0.000844143996060067 0.000517086131334147 -0.000886411628355495 -0.000231879840409213 -0.00241578460471737 0.00048248871503341 3.79964007358501e-05 -0.00196454994825171 -0.000525000934759477 0.000671720016859177 -0.000198230442865538
"121" -8.27267809418163e-05 0.000315783557450444 0.00880655114635314 0.000547033627620753 0.000520139721693697 0.000844130891074831 0.000461329930318037 -0.000882743666070419 -0.000217175051158488 -0.00235813704882763 0.00051706912666257 3.56313194089082e-05 -0.00196743940616956 -0.000537575780168763 0.000702426183126255 -0.000234498779973975
"122" -0.000153019754898303 0.000291554037736622 0.00878788841079216 0.000565724486752127 0.000435708888016092 0.000841999993520323 0.000406337546622738 -0.000880408503469213 -0.000201068385708195 -0.00228559821759952 0.000552842120148259 3.28119669928703e-05 -0.00196640456522049 -0.000557059726845432 0.000734527759435591 -0.000267672335378228
"123" -0.000234391709037849 0.000255267979194867 0.00872637264134295 0.000582878714326871 0.000346566204663204 0.000837665812262505 0.000352587316872433 -0.000879436855226354 -0.000183535736859343 -0.00219749132864972 0.000589693352214339 2.95359203234222e-05 -0.0019613536845199 -0.000583396994905377 0.000768060015659771 -0.000297352480047286
"124" -0.000326315377952415 0.000206573270870191 0.0086203993807724 0.000598302445629662 0.000253125959341785 0.000831054999079001 0.000300542125628042 -0.000879842421355916 -0.000164569972369809 -0.00209319900641424 0.00062749543000476 2.57863047829568e-05 -0.00195221752344157 -0.000616432481621107 0.000803033526036535 -0.000323173482710948
"125" -0.000428157456225125 0.000145260073857594 0.00846902206008209 0.000611798858981997 0.00015581956764319 0.00082211426944653 0.000250613628531428 -0.000881608965424939 -0.000144179819689673 -0.00197218350698246 0.000666099421156235 2.1532275882663e-05 -0.00193895072126085 -0.000655926016734365 0.000839454123146321 -0.000344806772534877
"126" -0.000539186094440929 7.12761447307228e-05 0.00827197045105152 0.000623174290119219 5.50953946470807e-05 0.000810801715148782 0.000203169947473507 -0.000884706642877184 -0.000122384105978684 -0.00183397401332686 0.000705337169479471 1.67324975241783e-05 -0.00192153962219735 -0.000701536066092134 0.000877297642609662 -0.000361961468077681
"127" -0.000658576327274538 -1.52783528324136e-05 0.00802967524183726 0.000632236965607607 -4.85929551153082e-05 0.000797095412449258 0.000158533468606983 -0.000889075572575631 -9.92286382487672e-05 -0.00167819971415263 0.000745022702209674 1.13313109698438e-05 -0.00189999048818616 -0.000752823550389874 0.000916523772873751 -0.000374390910217165
"128" -0.000785421968715932 -0.00011414211969282 0.00774324130580161 0.000638806862918995 -0.000154777616855997 0.000780984736211951 0.000116975008906771 -0.000894636105819749 -7.47757702250509e-05 -0.00150458098836204 0.000784949307481434 5.26441463576076e-06 -0.00187433411206811 -0.000809279764721771 0.000957057763016712 -0.000381896463419363
"129" -0.000918747766836929 -0.000224893855016169 0.00741442513981401 0.000642706734639301 -0.000262987838014299 0.000762487081584548 7.87268311646085e-05 -0.000901291729667025 -4.91046575449517e-05 -0.00131295126427268 0.000824886993364922 -1.54079997157942e-06 -0.00184462458538304 -0.000870313565817726 0.000998801246593752 -0.000384325231665766
"130" -0.0010575222821467 -0.000346958055986908 0.0070455682359075 0.000643779585940522 -0.00037274929316136 0.000741631738908402 4.39554853880538e-05 -0.000908923493017946 -2.23201853327765e-05 -0.00110327494409589 0.000864589359743507 -9.16747053097318e-06 -0.00181094204705231 -0.000935258798597509 0.00104161293680024 -0.000381577553398101
"131" -0.00120066434626357 -0.000479615359732272 0.00663953271543674 0.000641873325019931 -0.000483584269444085 0.000718472028226182 1.2785560372464e-05 -0.000917403845996459 5.45672606588036e-06 -0.000875648096988478 0.000903795115340373 -1.77026719221869e-05 -0.00177337897137093 -0.00100339609501283 0.00108532383061237 -0.000373601116846566
"132" -0.00134705636033121 -0.000622009104927796 0.00619960871132134 0.000636866267822399 -0.00059501834181189 0.000693085324973631 -1.46985592870593e-05 -0.000926593827234837 3.40853021134992e-05 -0.000630326565699089 0.000942222297979914 -2.7229957549364e-05 -0.00173205885353113 -0.00107395945547453 0.00112971610895103 -0.00036039600652235
"133" -0.00149556385300861 -0.000773156901347307 0.00572941635484639 0.00062864713171724 -0.00070657714355917 0.000665566077034094 -3.84613027256052e-05 -0.000936342627185798 6.34119531191672e-05 -0.000367747873076667 0.000979584057310689 -3.78436635824411e-05 -0.00168712369466348 -0.00114614037073127 0.00117453999647659 -0.000342015595085155
"134" -0.00164503425571026 -0.000931972796321718 0.0052328277988645 0.000617134773805909 -0.000817795067667716 0.000636035022451925 -5.85131621371169e-05 -0.000946498156264735 9.32581569692468e-05 -8.85430049174575e-05 0.00101557575671519 -4.96244991845487e-05 -0.00163872483113683 -0.00121910983816598 0.00121949695036284 -0.000318560823074948
"135" -0.00179431460939125 -0.00109727689390262 0.0047138561871834 0.00060227023433757 -0.000928205558223564 0.000604633420382643 -7.48908562223702e-05 -0.000956911337092709 0.000123439806087613 0.000206425112324146 0.00104988235829083 -6.26560532275926e-05 -0.00158704489970058 -0.00129202197296198 0.00126424921899397 -0.000290184367310126
"136" -0.00194226127323972 -0.00126782174104681 0.00417657464313828 0.000584024184255314 -0.00103735720759531 0.000571519213879196 -8.76781878754507e-05 -0.000967428404043446 0.000153751258436896 0.000516042601165554 0.0010821930321612 -7.70095081506853e-05 -0.00153227482630991 -0.00136402837622818 0.00130841500188219 -0.000257086929121515
"137" -0.00208774611585043 -0.00144228718709533 0.00362503004140364 0.000562398845911819 -0.00114480944495708 0.000536873097401739 -9.69910440758236e-05 -0.000977902518335841 0.000183997473485875 0.000838918488867691 0.00111218639740952 -9.27573393393443e-05 -0.00147462934515121 -0.00143425224768463 0.00135158918572614 -0.000219513227744137
"138" -0.0022296696214945 -0.00161932702307817 0.00306319328229612 0.000537422457804012 -0.00125012459211403 0.000500895191557071 -0.000102967750350604 -0.00098819548355618 0.000213954552201557 0.00117333713777364 0.00113955136439754 -0.000109951771843656 -0.00141432549800285 -0.00150186356212021 0.00139331822541716 -0.000177757035915493
"139" -0.00236695774965849 -0.00179756458734434 0.00249487922550294 0.000509160823791317 -0.00135289368182208 0.000463798269806601 -0.000105788115082619 -0.000998171721875383 0.000243412656232619 0.00151724823615837 0.00116397553057704 -0.000128640941052864 -0.00135160445849808 -0.00156601042033353 0.00143313362876233 -0.000132155972901544
"140" -0.00249857787858082 -0.00197561356964413 0.0019237171855601 0.000477706778977763 -0.00145271875355866 0.000425813243067853 -0.000105650315247143 -0.00100770466891314 0.000272164903016427 0.00186822270790772 0.00118516362561406 -0.000148859561327346 -0.00128671497832691 -0.00162585921235217 0.00147054306909884 -8.30823788588e-05
"141" -0.00262354144378881 -0.00215210417981498 0.00135311881180636 0.000443186371780087 -0.00154921992494849 0.000387176049654881 -0.000102782266485082 -0.00101667807473895 0.000300000870821754 0.00222343337639427 0.00120282911881972 -0.000170632271627768 -0.00121990645085836 -0.00168060490387574 0.00150504255546114 -3.0950164635534e-05
"142" -0.00274090127051425 -0.00232568171767738 0.000786248346627247 0.000405757945208305 -0.00164203964712705 0.000348135508476619 -9.74377712246779e-05 -0.00102497758829814 0.000326731234266353 0.00257964492412339 0.00121670825430232 -0.000193965080719679 -0.00115144864906333 -0.00172944943465869 0.00153613463589976 2.37912850021262e-05
"143" -0.00284977241984618 -0.00249502363557343 0.000226012002108689 0.000365609724641591 -0.00173084933711433 0.000308948529248628 -8.98942300142829e-05 -0.00103250650999672 0.000352179867516061 0.00293320608422513 0.0012265579160064 -0.000218864068674152 -0.0010816075496924 -0.00177160970438592 0.00156333189870173 8.06634923074319e-05
"144" -0.00294931283614035 -0.00265886001493652 -0.000324939233206136 0.000322956052719693 -0.00181534201871281 0.000269867785412222 -8.04483427600406e-05 -0.00103916758593532 0.000376185631086579 0.00328005369161033 0.00123216398020361 -0.000245305255200475 -0.00101064881204946 -0.0018063412473147 0.00158616169756293 0.000139158948056924
"145" -0.00303874566589922 -0.00281597620736575 -0.00086421798641666 0.000278040161545737 -0.00189523559860325 0.000231147179868226 -6.94180090218888e-05 -0.00104487486435252 0.000398616664981754 0.00361575762825936 0.00123334021673067 -0.000273260825320372 -0.000938845968784401 -0.00183291756441948 0.00160419395927823 0.000198745858647822
"146" -0.00311734954702911 -0.00296522490492245 -0.00138967746744756 0.000231124260822282 -0.00197028113702127 0.00019304186454069 -5.71295276139182e-05 -0.00104954114023481 0.000419358593222868 0.00393556655609207 0.00122993586460128 -0.000302683973968395 -0.000866462578055613 -0.00185065290379022 0.00161703823006779 0.000258871170570197
"147" -0.00318446318433897 -0.00310553161064987 -0.00189942946686562 0.000182495870565552 -0.00204025582207375 0.000155796124409764 -4.39406807924467e-05 -0.00105309424277006 0.000438331292112962 0.00423449337043707 0.00122183672149227 -0.000333512920111797 -0.000793755883953526 -0.00185889430128422 0.00162436817159336 0.000318965807507171
"148" -0.00323949252088358 -0.00323590190741418 -0.00239178944206986 0.000132459548363753 -0.00210496910870689 0.000119644162128652 -3.02137679040468e-05 -0.00105545662731449 0.000455480267361314 0.00450742993162043 0.00120896760066369 -0.000365669279306826 -0.000720980960149851 -0.00185702770561573 0.00162592021611486 0.000378449654737128
"149" -0.00328190045746713 -0.003355436913286 -0.00286530027744405 8.1330130993979e-05 -0.00216426005915078 8.48069986777352e-05 -1.63156093832338e-05 -0.00105655611245554 0.000470784394937681 0.00474927994808581 0.00119129338693308 -0.000399054744705888 -0.00064837739622891 -0.00184450365405131 0.00162150956189367 0.000436733734811185
"150" -0.00331121833648294 -0.00346331814319208 -0.00331869496780443 2.94345304550836e-05 -0.00221800690410221 5.14887346634752e-05 -2.62594765038906e-06 -0.00105632285146632 0.000484251425084657 0.00495511881653988 0.00116882346279424 -0.000433556923225432 -0.000576172941506034 -0.00182082164964677 0.00161103605886787 0.00049322880973142
"151" -0.00332704628648698 -0.00355883237659997 -0.00375088131049542 -2.28896450699062e-05 -0.00226611119576133 1.98817142891866e-05 1.04683217775023e-05 -0.00105468748824876 0.000495914953328397 0.00512037791385423 0.00114160689938522 -0.000469039751358676 -0.00050458128649438 -0.00178555329192555 0.00159448711201859 0.00054734415132847
"152" -0.00332904949759199 -0.00364135888704953 -0.00416094121655316 -7.53082797449502e-05 -0.00230851348741327 -9.85209638985549e-06 2.25816018306529e-05 -0.00105157798833611 0.000505842823388965 0.00524102160089045 0.00110973823584036 -0.000505351382088392 -0.000433800500349572 -0.00173834727629971 0.00157194081669848 0.000598500068173267
"153" -0.00331696175432034 -0.00371038120680217 -0.00454809552391026 -0.000127482527005148 -0.00234518700740832 -3.75685022047377e-05 3.33330636549804e-05 -0.00104692493238511 0.00051411380043525 0.00531372551836621 0.00107335172114916 -0.000542320594929676 -0.000364011447464247 -0.00167894324436862 0.00154356699674465 0.000646125668928295
"154" -0.00329058809177253 -0.00376547772947062 -0.00491169834556762 -0.000179086452005654 -0.00237614335646806 -6.31515436358214e-05 4.23385719892741e-05 -0.00104064994447701 0.000520836789435507 0.00533603713947164 0.00103262166373864 -0.000579755975574468 -0.000295373954064225 -0.00160716788747179 0.00150962357225781 0.000689674463877689
"155" -0.00324980883391537 -0.00380633641939424 -0.00525123987067495 -0.000229793753905996 -0.00240142572250653 -8.6510009403364e-05 4.92306582088288e-05 -0.00103268198044243 0.000526127048320181 0.00530650310928857 0.000987757019709472 -0.000617451975824957 -0.00022803386057078 -0.00152295708518003 0.00147044975459608 0.000728616809374787
"156" -0.00319457616552007 -0.00383272869074947 -0.00556630901971962 -0.000279297852032813 -0.0024211212832254 -0.000107583099313227 5.36420725370547e-05 -0.00102294153668202 0.000530116418066089 0.00522473852165562 0.000939006881354462 -0.000655185621160746 -0.000162116585863846 -0.00142634554557058 0.00142646065578151 0.000762453009745976
"157" -0.00312492191516214 -0.00384452468248169 -0.00585660868831595 -0.000327305140277937 -0.00243535056538249 -0.000126341299210339 5.52206335597747e-05 -0.00101134445919082 0.00053294356116025 0.0050914775090687 0.000886652878701526 -0.000692722595841579 -9.77352093408084e-05 -0.0013174662768765 0.00137814346755152 0.000790721980443292
"158" -0.00304096614049466 -0.00384170000984501 -0.00612192938514783 -0.000373538444960013 -0.00244427996415053 -0.000142782545992296 5.36301421356231e-05 -0.000997808756590151 0.000534735469564958 0.00490851497282443 0.000830993591202051 -0.000729814805088433 -3.49766396622517e-05 -0.00119659422909274 0.00132602474482246 0.000812990738565336
"159" -0.00294290387787273 -0.00382429416309398 -0.00636216032166508 -0.000417745352985384 -0.00244811265794751 -0.000156938726168 4.85432227575973e-05 -0.000982246162569016 0.000535631202581601 0.0046786482999824 0.000772366882284126 -0.000766214223424662 2.60732973986949e-05 -0.00106407725788486 0.00127068809627223 0.000828879236486145
"160" -0.00283102920410044 -0.00379243934585117 -0.00657728621538828 -0.000459698282575118 -0.00244710555940327 -0.000168873687217892 3.96493768847782e-05 -0.000964571835465762 0.000535753466008921 0.00440552700213809 0.000711119902006058 -0.000801668626062439 8.53475017549696e-05 -0.00092036574512461 0.00121274604474205 0.000838051292034445
"161" -0.00270571730375521 -0.00374634433286918 -0.00676736831892457 -0.000499189707877015 -0.0024415535132887 -0.000178679979955265 2.66572660695179e-05 -0.000944688671784122 0.000535215744646288 0.00409348348708718 0.000647621986958317 -0.000835926453033073 0.000142784826296524 -0.000766018533702453 0.00115282793199054 0.000840225440991113
"162" -0.00256744791739323 -0.00368628182113178 -0.00693256230631953 -0.000536042973468684 -0.00243180294697986 -0.000186481065700901 9.2884316005764e-06 -0.000922508028805181 0.000534122117008099 0.00374734401490312 0.000582252776610826 -0.000868748334843883 0.000198331235459304 -0.000601661026077986 0.00109157192779631 0.000835168901805508
"163" -0.0024167946406717 -0.00361259054971689 -0.00707310752451236 -0.000570109885770662 -0.00241824808539826 -0.000192432085705881 -1.27179846445864e-05 -0.000897935607866033 0.000532556555371401 0.00337222792040564 0.0005154016944499 -0.00089990542965134 0.000251936646802872 -0.000427993181884608 0.00102961546235794 0.000822715595346894
"164" -0.00225443479868408 -0.00352565746033933 -0.00718933649134318 -0.000601271778239158 -0.00240133337037649 -0.000196712620236425 -3.96080128883883e-05 -0.000870881201078209 0.000530599432310736 0.00297335201458658 0.000447463499709025 -0.000929193019738062 0.000303547731166895 -0.00024574730730652 0.000967586882004897 0.00080275481117466
"165" -0.00208115076823527 -0.00342592656194249 -0.00728167350274839 -0.000629434659867243 -0.00238155291448537 -0.000199531383651736 -7.1603287959193e-05 -0.000841251910945628 0.000528312153729443 0.0025558709376095 0.000378833694621374 -0.000956428111383295 0.000353111278944123 -5.57026187734726e-05 0.000906096235471742 0.000775240952589243
"166" -0.00189782621025934 -0.00331387541997465 -0.00735063306809688 -0.000654541522182207 -0.00235944554242047 -0.000201120685432269 -0.000108924495841039 -0.000808959283490216 0.000525741590076463 0.00212473142385623 0.000309904784278193 -0.000981456381593934 0.000400571684137361 0.000141355492704419 0.000845731402652874 0.00074019103790594
"167" -0.00170544734847497 -0.00319002571480187 -0.00739682771518424 -0.000676556051874547 -0.00233559780997745 -0.000201730725925619 -0.000151751771479344 -0.000773916901790735 0.000522926643182125 0.00168456739274981 0.000241072056040424 -0.00100416484394238 0.000445864336454156 0.000344635670659307 0.00078704823663541 0.000697685801249308
"168" -0.00150510245376043 -0.00305492162745399 -0.00742097488361779 -0.000695473903661145 -0.00231064339263292 -0.000201632993305894 -0.000200272392657967 -0.000736041066645072 0.000519902176989492 0.00123962966172231 0.000172716071031472 -0.00102447195709766 0.000488916795154799 0.000553390483595888 0.000730588619734791 0.000647869577692472
"169" -0.00129797821698623 -0.00290913264159592 -0.00742388851407758 -0.000711318264142662 -0.00228524529729479 -0.000201117058105777 -0.000254635120425764 -0.000695254014537347 0.000516691275499644 0.000793735859306496 0.000105214238143907 -0.00104234432588403 0.00052964565258257 0.00076689564140834 0.000676845924889757 0.000590946256902872
"170" -0.001085338497917 -0.00275326010681129 -0.00740649179640721 -0.000724135018226544 -0.00226010056497926 -0.000200478416191581 -0.000314982093629508 -0.000651480057161842 0.000513318271432811 0.00035025764841307 3.89259538667718e-05 -0.00105778835131871 0.00056796740223961 0.000984485054531878 0.000626295283942125 0.000527176118275289
"171" -0.00086853677950644 -0.00258790734144612 -0.00736980824384133 -0.00073400141281502 -0.00223593611637033 -0.000200026663464546 -0.000381424139762409 -0.000604655603507606 0.00050980301307533 -8.78791341808646e-05 -2.57919110085749e-05 -0.00107086283906807 0.000603784414129616 0.00120556252179657 0.000579377783090227 0.000456881115825862
"172" -0.000648989715228943 -0.00241370222785509 -0.00731498234781239 -0.000741007331740117 -0.00221349061991544 -0.000200073773398789 -0.000454055948775241 -0.000554716817165887 0.000506170207446502 -0.00051817396614538 -8.86076144051367e-05 -0.00108167144628719 0.000636989451612253 0.00142961921171127 0.000536511058925782 0.00038043330223913
"173" -0.000428160171384294 -0.00223128883410673 -0.00724325196971608 -0.000745273956523678 -0.00219350969513676 -0.000200926507912562 -0.000532940860658376 -0.000501619704065296 0.000502451059243004 -0.000938526298930761 -0.000149201370308903 -0.00109036072567681 0.000667474071125204 0.00165622147664671 0.00049807944673845 0.000298252433287441
"174" -0.000207554565949208 -0.00204131892269533 -0.00715596229067284 -0.000746932321324386 -0.0021767331152852 -0.000202893371041414 -0.000618108548556713 -0.000445322972326285 0.000498674964570032 -0.00134719811705628 -0.000207273752763941 -0.00109712746532797 0.000695127508969965 0.00188502117818713 0.000464448190810977 0.000210805843014553
"175" 1.13071716816889e-05 -0.00184447117837833 -0.00705455857188314 -0.000746137051029778 -0.0021638797458437 -0.000206271797762776 -0.000709553598272226 -0.000385803125576205 0.00049488387925342 -0.0017427656345369 -0.000262535544015832 -0.00110220265813326 0.000719833237202394 0.00211575334588284 0.000435955326688061 0.000118600050869896
"176" 0.000226907854386427 -0.00164143721494344 -0.00694058176271532 -0.000743051120159231 -0.00215563996730604 -0.000211342381397557 -0.000807232864591952 -0.000323061163749607 0.000491126097429318 -0.00212408961741318 -0.000314727335467613 -0.00110585634358809 0.000741478208324382 0.00234822438627161 0.000412913240174666 2.21793777123784e-05
"177" 0.000437754931586997 -0.00143294349301095 -0.00681563794485389 -0.000737849240707694 -0.00215264876205604 -0.000218361716752559 -0.000911034365261728 -0.000257114079225954 0.000487455607557322 -0.00249026091884843 -0.000363605627135891 -0.00110838016006876 0.000759952493250277 0.0025822797751426 0.000395612735683763 -7.7874372956737e-05
"178" 0.00064239596916456 -0.00121975389369307 -0.00668141133903822 -0.000730709989106309 -0.00215547585631678 -0.000227560467408898 -0.00102078617287497 -0.000188028019376014 0.000483937106807261 -0.00284055725829249 -0.000408942775502548 -0.00111008112840283 0.000775148949627007 0.00281777581095559 0.000384307445430226 -0.000180948443354277
"179" 0.000839441350565648 -0.00100269102316117 -0.00653961878561916 -0.000721811653578451 -0.00216460227570212 -0.000239126470778567 -0.00113622273566744 -0.000115916890756358 0.000480640819137045 -0.00317440260317662 -0.000450531797499399 -0.0011112631287907 0.000786969298580349 0.00305454222159767 0.000379225535255478 -0.000286395692449638
"180" 0.00102757655919238 -0.000782655398249702 -0.00639198694951117 -0.000711320957796414 -0.00218038872909822 -0.000253202439504332 -0.00125696064953583 -4.09661926994074e-05 0.000477647111625832 -0.00349131479978613 -0.000488180324829624 -0.00111220028456948 0.000795311333990642 0.0032922700049584 0.000380540926047948 -0.000393526372040298
"181" 0.00120558306987405 -0.000560669359074608 -0.00624021125719743 -0.000699390486579048 -0.00220305479268958 -0.00026986302458714 -0.00138245680419767 3.6530532561552e-05 0.000475040938465756 -0.00379086014214659 -0.000521715629959426 -0.00111311479327428 0.000800086258910888 0.00353044991046325 0.000388377686997971 -0.000501606205912203
"182" 0.00137233754261059 -0.000337907663350983 -0.00608590636915464 -0.000686138899632094 -0.00223263864557349 -0.000289102442404049 -0.00151196996868287 0.000116130196080115 0.000472929824715734 -0.00407258725376676 -0.000550961439257039 -0.00111413866462016 0.000801185078161058 0.00376822656915644 0.000402792229275745 -0.000609839266812761
"183" 0.00152681530323663 -0.000115782369288025 -0.00593052704132891 -0.000671632796011603 -0.0022689448356589 -0.000310812642821428 -0.00164446612898702 0.000197193607535137 0.000471414688051161 -0.00433597657904617 -0.000575745654863993 -0.00111525182708345 0.000798502962969228 0.00400418139906083 0.000423726272874719 -0.000717351732751379
"184" 0.00166807408527633 0.00010399920462134 -0.00577530643511379 -0.000655876644732795 -0.00231150680265422 -0.00033475022450835 -0.00177855782975083 0.000278800374844579 0.000470634579418332 -0.00458035429211392 -0.000595886144618544 -0.00111622874577942 0.00079189730506204 0.00423616454370232 0.000451013456601579 -0.000823157322784894
"185" 0.00179525711284232 0.000319334291971539 -0.00562113648057993 -0.000638776409973251 -0.00235951658460347 -0.000360512963489691 -0.00191238946906772 0.000359685929970345 0.000470738446956112 -0.0048048242889816 -0.000611173322400874 -0.00111657017442751 0.000781196715158877 0.00446100405131783 0.000484320343565165 -0.000926134338256533
"186" 0.00190755699760083 0.000527634789421707 -0.00546849397567199 -0.000620132104156444 -0.00241178397275591 -0.000387510807535836 -0.00204355296950173 0.000438143896231144 0.00047190173895317 -0.00500819201841716 -0.000621367534787123 -0.00111542691266012 0.000766167616370597 0.00467425729060157 0.000523122606985865 -0.0010249889786251
"187" 0.00200421477778518 0.00072578967909615 -0.00531737342394652 -0.000599610201837971 -0.00246668934475834 -0.00041494172221037 -0.00216902291981169 0.000511998198178425 0.000474335231353171 -0.00518891528575559 -0.000626186751114144 -0.00111156577062697 0.000746515756673159 0.00487008268615935 0.000566691822815373 -0.00111823843427164
"188" 0.00208452191905021 0.000910184777282856 -0.00516727260840473 -0.000576753870901461 -0.00252221488456511 -0.000441805220450068 -0.00228519753187408 0.000578617469177773 0.000478270570104179 -0.0053451180170484 -0.000625310631229477 -0.00110337501524885 0.000721893363446041 0.00504126153767917 0.000614084082169125 -0.00120422827029896
"189" 0.00214786517042105 0.00107688901629908 -0.00501731035750163 -0.000551022878615384 -0.00257603764298148 -0.000466954498855591 -0.00238806840551236 0.000635062298142632 0.000483939349506218 -0.00547470114338415 -0.000618407565916354 -0.00108898261548978 0.000691925007793472 0.00517965061169447 0.00066419043562806 -0.00128120348528882
"190" 0.00219380963376774 0.00122203765335075 -0.00486649850727208 -0.000521865936635923 -0.00262575362154102 -0.000489212549702996 -0.0024736370471358 0.000678410760198232 0.000491552879907968 -0.00557558282949676 -0.000605187911931791 -0.00106650524950018 0.000656267753186448 0.00527711904443311 0.000715858967998465 -0.00134744720414784
"191" 0.00222223872945778 0.00134236575346622 -0.00471411737928451 -0.000488853926694897 -0.00266917032228534 -0.000507531820731876 -0.00253844366989242 0.000706208099131592 0.00050124056547294 -0.00564605972835779 -0.00058547360195568 -0.0010344096821761 0.000614703241737487 0.00532689631562758 0.000768034364662345 -0.0014015077707778
"192" 0.00223347861670969 0.00143579280373135 -0.00456015070771249 -0.000451785743128511 -0.00270465078843274 -0.000521168737114865 -0.00258020575912886 0.000716969798133823 0.000513012697917722 -0.00568517901026118 -0.000559277704727176 -0.000991900877423014 0.000567251685807579 0.00532503564617437 0.000819944794663227 -0.00144240675476634
"193" 0.00222839699817217 0.00150181888277054 -0.00440557001507132 -0.000410791968174229 -0.00273134180413758 -0.000529810634985623 -0.00259821412327148 0.000710500721991493 0.000526713245053064 -0.00569300669083004 -0.000526866868376168 -0.000939190042635517 0.000514208807431244 0.00527141051357265 0.000871201085190967 -0.00146980415878813
"194" 0.00220838572354672 0.00154157382637544 -0.00425234604407827 -0.00036633674356191 -0.00274920218866869 -0.000533590709963018 -0.00259338766112516 0.000687955601910079 0.000542024967278106 -0.0056706612745108 -0.000488751437697917 -0.000877518028829444 0.00045617515294749 0.00516980252110692 0.000921815259176224 -0.00148401627248735
"195" 0.00217526624534299 0.00155748471118006 -0.00410318120436287 -0.000319141148977277 -0.00275882634023936 -0.000532980975114078 -0.00256791957772842 0.000651526868431719 0.00055849227779156 -0.0056200827640374 -0.000445654828662935 -0.000808919113029464 0.000393987761293081 0.0050270545431733 0.000972099244549179 -0.00148588431476517
"196" 0.00213110866374507 0.00155271870341597 -0.00396107045036909 -0.00027005390260701 -0.00276114656667536 -0.000528636046537408 -0.00252470725180639 0.000603992879212469 0.000575582475095455 -0.00554366487357109 -0.00039841806648078 -0.00073585132937081 0.00032861199013247 0.00485164919235529 0.00102248101346411 -0.00147655333889085
"197" 0.00207806900333309 0.00153061613996397 -0.00382885051378331 -0.000219936439778178 -0.00275711621183491 -0.000521219442657465 -0.00246676521722216 0.000548220362531758 0.000592713184591617 -0.00544389715060785 -0.000347934888639861 -0.000660799362971243 0.000261059460219268 0.00465223174727113 0.0010733273460422 -0.00145727197581695
"198" 0.0020182587464206 0.00149430057853663 -0.00370889917600304 -0.000169564161866876 -0.00274749713652277 -0.000511287910446671 -0.00239679616694324 0.000486824279249519 0.000609312207662966 -0.00532307646194894 -0.000295086615638816 -0.000585996317078743 0.000192292842709866 0.00443662562632893 0.00112483881036091 -0.00142920841440475
"199" 0.00195367704936031 0.00144643592702406 -0.00360296729213535 -0.000119578319604718 -0.00273275356520524 -0.000499230064119374 -0.00231698106209927 0.000421991247769374 0.000624820517911712 -0.0051831966185479 -0.000240702136805561 -0.000513282014052173 0.000123203724257925 0.00421123249535353 0.00117696297434463 -0.00139339445880775
"200" 0.00188617618530069 0.00138920561337191 -0.00351215316427834 -7.04770689354778e-05 -0.00271302989651711 -0.000485250683447332 -0.00222893753278985 0.000355434727493554 0.000638721415085064 -0.00502589495459932 -0.000185561185749687 -0.000444074186055863 5.45864634896111e-05 0.00398098284778127 0.00122940294466609 -0.00135068806622459
"201" 0.0018174503628614 0.00132433918983601 -0.00343695470842763 -2.26284878657273e-05 -0.00268818959442341 -0.000469398143792209 -0.00213376546412981 0.000288439972408096 0.000650520350478853 -0.00485252121755514 -0.000130388736930501 -0.000379393117042787 -1.28369057126416e-05 0.00374942054309724 0.00128162259134209 -0.00130180274147028
"202" 0.001749060716658 0.00125320533290774 -0.00337735567825421 2.37103757701248e-05 -0.00265788129386362 -0.000451592154823097 -0.00203216759361394 0.000221941865659721 0.000659756388222005 -0.00466419277554176 -7.58642391160799e-05 -0.00031993713285889 -7.84266211920254e-05 0.00351896490037326 0.0013328884315411 -0.00124733924743013
"203" 0.00168243846922017 0.0011769078258717 -0.00333292090032795 6.83735276769604e-05 -0.00262160022546223 -0.000431655663849657 -0.0019245412346737 0.000156619630636164 0.00066599698372195 -0.0044618696373557 -2.26289488390999e-05 -0.000266150337498166 -0.000141598495704862 0.00329118415829007 0.00138231516582439 -0.00118782253079844
"204" 0.00161889818823911 0.00109636178881893 -0.00330289838139602 0.000111258321471302 -0.00257874310722209 -0.000409347888351578 -0.00181108217578966 9.29542392383296e-05 0.000668839732180308 -0.0042464271383372 2.87070119898618e-05 -0.000218277615592698 -0.000201809543954293 0.00306703417189695 0.00142889922365032 -0.00112373311724875
"205" 0.00155964491435929 0.00101235285547966 -0.0032862784028556 0.000152317073917923 -0.00252866031222002 -0.000384387712037835 -0.00169186347407361 3.13086629323502e-05 0.000667915459690538 -0.00401871337995315 7.75631971526638e-05 -0.000176423161292587 -0.000258558635422698 0.00284703518844705 0.00147155826355362 -0.001055538574379
"206" 0.00150577899328142 0.000925589336286469 -0.00328187018818915 0.000191540666596694 -0.00247069153102831 -0.000356478064309043 -0.00156690088366741 -2.80410582081679e-05 0.000662882585488992 -0.00377958696950772 0.000123383762982599 -0.000140579995127706 -0.000311363671276738 0.00263142184518285 0.00150915851885352 -0.000983703242809085
"207" 0.00145830246670404 0.000836728711308852 -0.00328835342310853 0.00022894853066295 -0.00240419329747091 -0.000325314746832018 -0.00143618283157743 -8.48657628588896e-05 0.000653454101306599 -0.00352995985884566 0.000165648582068927 -0.000110670823322416 -0.000359782548229409 0.00242028821029699 0.00154056199361643 -0.000908707730773241
"208" 0.00141811877355579 0.000746389773856845 -0.00330432773737213 0.000264581252840429 -0.00232855569740469 -0.000290601095543982 -0.00129971642447149 -0.000138970872763568 0.000639372836200802 -0.0032708230404772 0.000203865772034684 -8.65577703710911e-05 -0.000403386068286062 0.00221361539171359 0.00156464025378005 -0.000831053411092042
"209" 0.00138602655305974 0.0006551791695693 -0.00332834353746044 0.000298494088069066 -0.00224323184264824 -0.000252054796272969 -0.00115754514616532 -0.000190163993997792 0.000620455074216863 -0.00300325598233895 0.000237586532020337 -6.80630314764404e-05 -0.000441772312600754 0.0020113958094689 0.00158032688930746 -0.000751263819339214
"210" 0.00136272758559759 0.000563673419600503 -0.00335893144646352 0.00033075805247855 -0.00214773087972142 -0.000209422445003625 -0.00100976544030119 -0.000238265632680322 0.000596562021400307 -0.00272845926563822 0.000266403887159677 -5.49762197340329e-05 -0.000474554844907943 0.00181361728661713 0.00158661711822557 -0.000669892562681347
"211" 0.00134881981403689 0.000472436460947331 -0.00339464202031809 0.000361447561209012 -0.00204164359128411 -0.000162473217087725 -0.000856533814860414 -0.000283089815805065 0.000567636736192326 -0.00244775044082815 0.000289962936085327 -4.70692342224377e-05 -0.000501383702376053 0.00162034332155259 0.0015826288622399 -0.000587515881900068
"212" 0.00134479356310686 0.000382012621045638 -0.00343405196473207 0.000390649853911793 -0.00192464367252455 -0.000111010588203429 -0.000698087617614177 -0.000324441222142216 0.000533682927577993 -0.00216256464174858 0.000307962376059908 -4.4092815301263e-05 -0.000521916671079112 0.00143170157716059 0.0015676044409855 -0.000504731991608669
"213" 0.0013510443324148 0.000292915656948656 -0.00347579344478679 0.000418447174709228 -0.00179648973196374 -5.48763690426948e-05 -0.000534728296185318 -0.000362129455448104 0.000494786034510592 -0.00187447074105479 0.000320164312365589 -4.57808278504162e-05 -0.000535842802132518 0.00124790713333244 0.00154094708480169 -0.000422159641505652
"214" 0.00136785603038191 0.000205639182366179 -0.00351856203288528 0.000444930759452096 -0.00165703231264909 6.04730862733984e-06 -0.000366833879384145 -0.000395948193249848 0.000451104391355331 -0.0015851504924046 0.000326389391624987 -5.18617016351323e-05 -0.000542883641314082 0.00106925700173787 0.00150223603401086 -0.000340430288420662
"215" 0.00139540917557825 0.000120645531143441 -0.00356113436009631 0.000470185925351889 -0.00150622838470959 7.18385845935175e-05 -0.000194879131121865 -0.000425695954463868 0.000402878791178346 -0.00129639906657316 0.000326530103336569 -6.20514742478497e-05 -0.000542776488203621 0.000896163420149604 0.00145124845323943 -0.000260180626059755
"216" 0.00143377943656582 3.83590771557612e-05 -0.0036023789893647 0.000494298417563587 -0.00134413021982797 0.00014252667933495 -1.93992632981263e-05 -0.000451160467093438 0.000350428310033259 -0.00101009698774094 0.000320550572931758 -7.60647105032991e-05 -0.000535298333869585 0.00072911749456412 0.00138796512823669 -0.000182055606128535
"217" 0.00148293960101568 -4.08367847332954e-05 -0.00364125470417261 0.000517350852622406 -0.00117089417523524 0.000218094246980728 0.000158984732406492 -0.000472137639261277 0.000294133999970496 -0.000728201733676869 0.000308481923306314 -9.3601374636798e-05 -0.000520245086347256 0.000568676760258377 0.00131257555879301 -0.000106695402715299
"218" 0.00154275631085084 -0.000116591421274549 -0.00367682964497782 0.000539418922276764 -0.000986786494413964 0.000298473335445143 0.000339582670003688 -0.000488420849799091 0.000234454113117883 -0.000452703996129477 0.000290424221407464 -0.000114358908556992 -0.000497456299219682 0.000415494947292995 0.00122548801216398 -3.47275106302368e-05
"219" 0.00161299293111532 -0.000188605824343339 -0.00370826929877488 0.000560576061804378 -0.00079218374769208 0.000383544644301523 0.000521629949849874 -0.00049981710415742 0.000171889605850574 -0.000185611668557935 0.000266547087209893 -0.000138031165890609 -0.000466797238141617 0.000270240106408751 0.00112730116005819 3.32375789941793e-05
"220" 0.00169331225554316 -0.000256617538149149 -0.00373485270206206 0.000580889038378953 -0.000587574323006415 0.00047313803398871 0.000704297036380746 -0.000506135340157613 0.000107001442431576 7.10913465819142e-05 0.000237085089344938 -0.00016430380835344 -0.000428168951415437 0.000133639656312931 0.00101881006095196 9.66101501286372e-05
"221" 0.00178327109032044 -0.00032041268241081 -0.00375597239872464 0.000600411178854772 -0.000373566201301469 0.000567022799227511 0.000886692400960372 -0.000507193026353994 4.03826249053235e-05 0.000315498751678461 0.000202330330707543 -0.000192862890713855 -0.00038151293716731 6.42930038774455e-06 0.000900981917096134 0.000154838890895498
"222" 0.00188233700469969 -0.000379822317770583 -0.00377111881590853 0.000619194949637182 -0.000150888430251642 0.000664914331354256 0.00106787753138314 -0.000502829225214149 -2.73510539642664e-05 0.000545802381404545 0.000162629563266833 -0.000223385183667069 -0.00032680536680093 -0.000110667328726607 0.000774925710686006 0.000207405779539781
"223" 0.0019898747982356 -0.000434713271958196 -0.00377990289279057 0.00063728228217694 7.96110503358961e-05 0.000766475892071859 0.00124685442547368 -0.000492890134317617 -9.55673587383142e-05 0.00076035349747481 0.000118379892461005 -0.000255552644732801 -0.000264069295910837 -0.000216946551080119 0.00064187271013177 0.000253840493715686
"224" 0.00210515536430581 -0.000485004268097984 -0.00378203826816577 0.000654701209172621 0.00031696347540398 0.000871307701851222 0.00142259836204176 -0.000477247883449144 -0.000163639851209097 0.00095769133245388 7.00134092296174e-05 -0.000289041421598711 -0.000193364170936622 -0.000311759402649917 0.000503140882891636 0.000293725737741466
"225" 0.00222736697472709 -0.000530643044159687 -0.00377734780940237 0.000671477846447872 0.000560075708247248 0.000978955960171269 0.00159404275664034 -0.000455792616408943 -0.000230944818974927 0.00113657839713049 1.80013823544132e-05 -0.00032352877945287 -0.000114804268603836 -0.000394502341947067 0.000360111051421611 0.0003267029092548
"226" 0.00235560428887899 -0.000571619167775536 -0.00376575281554207 0.000687622880896026 0.000807733377914268 0.00108891033401453 0.00176011117618602 -0.000428432732256286 -0.000296892496956128 0.0012960368200691 -3.71658981821209e-05 -0.000358695611020414 -2.85398022203295e-05 -0.000464676247040638 0.000214184112026352 0.000352479253677071
"227" 0.0024888912334627 -0.000607947815506809 -0.00374728537445521 0.000703139978328084 0.00105859867371765 0.00120060462908002 0.00191971244951926 -0.0003951057463595 -0.000360916101790676 0.00143537193134835 -9.49772350254538e-05 -0.000394226734238911 6.52124908610633e-05 -0.000521838192381719 6.67758088125334e-05 0.000370832364599693
"228" 0.00262616488677666 -0.000639678587018564 -0.00372206027903909 0.000718027615617407 0.00131122497371583 0.00131342433315872 0.00207175499821923 -0.000355779722745514 -0.000422496076476262 0.00155417262893749 -0.000154914129118503 -0.000429816760746826 0.000166197616756774 -0.000565675186483658 -8.07454292891525e-05 0.000381613406127342
"229" 0.0027663132038195 -0.000666875553058003 -0.00369029721087857 0.000732271097752491 0.00156405206792785 0.00142670413238719 0.00221516878115178 -0.000310447438511667 -0.000481150487290468 0.00165233585388174 -0.000216452151351531 -0.000465165753627607 0.000274093137502853 -0.000595939078197699 -0.000227042827386865 0.00038475627184955
"230" 0.00290815262733027 -0.000689631995493643 -0.00365230658859106 0.00074585158931317 0.00181542132313867 0.00153973451655285 0.0023489032120612 -0.000259127702436297 -0.000536463248426268 0.00173003376760956 -0.000279077049327855 -0.000499991756239838 0.000388525775515186 -0.00061251546905 -0.000370860602374769 0.000380273237257498
"231" 0.0030504658603202 -0.000708047326138713 -0.00360847669969026 0.000758742864914226 0.00206359124358041 0.00165176151160567 0.00247195627276535 -0.000201881967064325 -0.000588060320670111 0.00178772175595142 -0.000342284584034397 -0.000534020165584727 0.000509062861929227 -0.000615388427803023 -0.000511031630594208 0.000368258848423157
"232" 0.00319199147695326 -0.000722237973058356 -0.00355928211036873 0.000770909642147825 0.00230674546618679 0.00176200459534429 0.00258337724227414 -0.000138800030178358 -0.000635631523754437 0.00182610103569246 -0.000405586358368648 -0.000567000824720906 0.00063521085551473 -0.00060463552041745 -0.000646486484134535 0.000348895122034656
"233" 0.00333144413397806 -0.000732322646664981 -0.00350526432262649 0.00078231460762478 0.00254301699765827 0.00186965290017587 0.00268228798499583 -7.00073715034024e-05 -0.000678926693902838 0.00184610045050387 -0.000468511195268488 -0.000598698880604401 0.000766417870050168 -0.00058043434989475 -0.00077626049911218 0.000322439935280059
"234" 0.00346753494082828 -0.000738419390975274 -0.00344703938131528 0.000792916349695775 0.00277050521301066 0.00197387357419505 0.00276789498164465 4.33341956775074e-06 -0.000717739869423678 0.00184882717692135 -0.000530621686356839 -0.000628903840232916 0.000902066381738869 -0.000543049145230568 -0.000899512089724372 0.000289235810231459
"235" 0.00359898522229829 -0.000740658990703489 -0.00338527603359901 0.00080266934384346 0.00298731799102451 0.00207382916006461 0.00283950122735187 8.40243260717692e-05 -0.000751934309545143 0.00183553901419046 -0.000591505315711696 -0.000657426588669554 0.00104149005270814 -0.000492831290369988 -0.00101550435397025 0.000249704070828356
"236" 0.00372453595029514 -0.000739154620274509 -0.00332069656862882 0.000811526499988687 0.00319158341254835 0.00216867976414136 0.00289652572858376 0.000168819427972065 -0.000781413235492815 0.00180760745802443 -0.000650781632234371 -0.000684106962359958 0.00118396168510383 -0.000430191909441342 -0.00112362474118368 0.000204333110758839
"237" 0.00384297425297992 -0.000734024759465062 -0.00325406621155443 0.000819440567179486 0.00338148825866384 0.00225759571114777 0.00293850624432824 0.000258443358887146 -0.000806127229198612 0.00176647061292356 -0.000708106072179463 -0.000708803188174916 0.00132869677765116 -0.000355616150814699 -0.00122336596382336 0.000153680707364353
"238" 0.00395314296123653 -0.000725381740184221 -0.00318617906780589 0.000826367067077785 0.00355531384950661 0.00233977127075038 0.0029651131604908 0.000352567894364028 -0.000826072457884212 0.00171361173380259 -0.000763162546585135 -0.000731405072069867 0.00147486974971526 -0.000269641830862607 -0.00131433714892447 9.83678912231581e-05
"239" 0.00405396731945646 -0.000713331060406493 -0.00311785083876958 0.000832256652768998 0.00371147667854228 0.0024144303492233 0.00297616501024637 0.000450835052366371 -0.000841283305794385 0.00165051042668987 -0.000815680015664305 -0.00075182339995526 0.00162161306368347 -0.000172867401574675 -0.0013962419669529 3.90662235668615e-05
"240" 0.00414445973559005 -0.000697977999414444 -0.00304990222306879 0.000837070399949376 0.00384854594238648 0.00248085351246928 0.0029716242386817 0.000552832346713755 -0.000851836058819277 0.00157862930569256 -0.000865415391468298 -0.000769991489292231 0.00176802012409415 -6.59453006660646e-05 -0.00146889832559108 -2.35089349744239e-05
"241" 0.00422375147558248 -0.000679426708106056 -0.00298315614402121 0.000840772198262836 0.00396528408125692 0.00253836301040524 0.00295161022522837 0.000658109164422149 -0.000857826765201337 0.00149938855635836 -0.0009121720210419 -0.000785864690268913 0.00191315300814268 5.04329756743117e-05 -0.00153220052339208 -8.85972442495648e-05
"242" 0.00429108677357431 -0.000657786046615055 -0.00291840629948896 0.000843332558660168 0.00406069051460494 0.00258636442066521 0.00291639472934617 0.000766163237653932 -0.000859384226336844 0.00141414733112643 -0.000955773901069495 -0.000799416845752254 0.0020560649486762 0.000175511729500077 -0.00158614043556404 -0.000155410068056297
"243" 0.00434584990532061 -0.000633166588859862 -0.00285642362478935 0.000844729237751673 0.00413400566953125 0.00262433650371673 0.00286641020773694 0.000876448928165816 -0.000856661381466815 0.00132418880123398 -0.000996092694160161 -0.000810631982512661 0.00219578518894194 0.000308483482772407 -0.00163078412293013 -0.000223137717025299
"244" 0.0043875725525623 -0.000605698881127602 -0.00279792532443963 0.000844954833046686 0.00418474355301304 0.00265185382642977 0.0028022506662448 0.00098836783008405 -0.000849825859636526 0.00123072489516341 -0.00103302636384618 -0.000819503899746289 0.0023313588973987 0.000448473602377482 -0.00166627507259777 -0.000290951764319724
"245" 0.0044159275126231 -0.00057553687915185 -0.00274356176618892 0.000844008209614027 0.00421270790618831 0.00266858400705303 0.00272465828383006 0.00110127108371841 -0.000839076320434315 0.00113487208608999 -0.00106650628037936 -0.000826029184461421 0.00246183028131265 0.000594502817731155 -0.00169284610278388 -0.000358018276222025
"246" 0.00443074705598178 -0.000542859222148552 -0.00269391214028003 0.000841908746961108 0.00421799606108378 0.00267430753389762 0.0026345324439776 0.00121446142563654 -0.000824613332927717 0.00103767628797653 -0.00109649070984946 -0.000830202548034946 0.00258627171400505 0.000745526865503598 -0.00171078167794069 -0.000423493653675132
"247" 0.00443201152920469 -0.000507886247633285 -0.00264944840257779 0.000838687475801234 0.00420100684978709 0.00266891763075766 0.00253292353408082 0.001327172959341 -0.000806655238177671 0.000940103796373797 -0.00112296680601126 -0.00083200074334431 0.0027037909082045 0.000900367320901291 -0.00172043843764028 -0.00048654123390089
"248" 0.00441984564428605 -0.000470882407151471 -0.00261054437016401 0.000834398412836896 0.00416242164182036 0.00265242937651249 0.00242102082183255 0.00143859566536362 -0.000785430909867477 0.000843049930665446 -0.00114594675734394 -0.00083139647803586 0.00281353385671052 0.00105772667236619 -0.00172224460811676 -0.000546331128051511
"249" 0.00439452166609681 -0.000432175627696282 -0.00257744348076005 0.000829112084842446 0.00410321439439694 0.00262497397089558 0.00230015301851701 0.00154785344859781 -0.000761179387942135 0.000747337253253909 -0.00116546516741427 -0.000828322660011618 0.00291470601051326 0.00121614167428434 -0.00171669029125931 -0.000602042921263135
"250" 0.0043564424497064 -0.000392155882546071 -0.00255025311400619 0.000822923251133997 0.00402461360507338 0.00258680536211967 0.00217178056942569 0.00165401527503135 -0.000734153695014792 0.000653745443305498 -0.00118157359087744 -0.000822689448671364 0.00300657772193941 0.00137398920272315 -0.00170432902078829 -0.000652877164208905
"251" 0.00430612654402511 -0.000351277429495197 -0.00252895165598788 0.000815950884957377 0.00392808801711686 0.00253829842641881 0.00203747066658645 0.00175610187462443 -0.000704597826982832 0.000562998157958566 -0.00119434691808365 -0.000814375403454185 0.0030884935066557 0.00152949555529601 -0.00168577335757816 -0.000698045183287047
"252" 0.00424420761762957 -0.000310066131220279 -0.00251335970945684 0.000808331921749152 0.00381531719605164 0.00247993325939083 0.00189889019896584 0.00185307840502809 -0.000672778926010791 0.000475775709244873 -0.00120386831756917 -0.000803218620693962 0.00315988442402641 0.0016806986904364 -0.00166168955941483 -0.000736791507477861
"253" 0.00417140830252745 -0.000269104810071302 -0.00250317906608957 0.000800222979056433 0.00368814682506027 0.00241229932761077 0.00175778306466587 0.00194389578305651 -0.00063896253704113 0.000392709798760882 -0.00121024661257098 -0.000789030815183046 0.0032202707115627 0.00182552004951487 -0.0016328069358808 -0.000768395292329456
"254" 0.00408854721944325 -0.000229017207350127 -0.00249797958721888 0.000791800550736593 0.0035485557886653 0.00233606855092949 0.00161591935091703 0.0020274838896285 -0.000603415004852726 0.000314384844325467 -0.00121359437887914 -0.000771606810592179 0.00326927578173735 0.00196179999425383 -0.00159987636529125 -0.000792178183596042
"255" 0.00399650704654316 -0.000190448290942775 -0.00249722853556629 0.000783243268029279 0.00339861138260007 0.00225199550597792 0.00147508006053726 0.00210280176128455 -0.000566425249475409 0.000241325081676292 -0.00121405734909747 -0.000750735901215987 0.00330663743554682 0.00208733534700265 -0.00156370309606045 -0.000807520467344508
"256" 0.0038962496881002 -0.000154022430267614 -0.00250033114202157 0.000774734821436222 0.00324040379194292 0.00216087159498443 0.00133698181534585 0.00216886906772939 -0.000528277814750152 0.000173974884457548 -0.00121178437162661 -0.000726227614304745 0.00333220676209838 0.00220001619864007 -0.00152509555255437 -0.000813880615926362
"257" 0.00378879085938521 -0.000120299577374877 -0.00250665776149381 0.000766445131041537 0.00307600849289494 0.0020635256522884 0.00120323984146083 0.00222480439275284 -0.000489270819406388 0.000112670132893781 -0.00120696091906623 -0.000697942245846638 0.00334596107897118 0.00229793485101287 -0.0014848635880629 -0.000810805019019734
"258" 0.00367520491255993 -8.97444157406659e-05 -0.00251558202122361 0.00075852655807205 0.00290743334918221 0.00196079059809592 0.00107529733917319 0.00226987333793956 -0.000449720783574464 5.76349952815502e-05 -0.00119978675906805 -0.000665813854288749 0.00334801108992416 0.00237946450037811 -0.00144380832016164 -0.000797958355922495
"259" 0.00355662356280094 -6.26724518882179e-05 -0.00252653489095964 0.000751100693307642 0.00273656279889763 0.00185347768195014 0.000954386622004542 0.00230352926387038 -0.000409952944666418 8.94327258130137e-06 -0.00119050233798375 -0.000629880114510603 0.00333859964833267 0.00244340525721347 -0.00140268785329182 -0.000775126649939153
"260" 0.00343421824257257 -3.92292826613041e-05 -0.00253901280023128 0.000744250189072042 0.00256513072866241 0.00174236219412563 0.000841478991659233 0.00232543607163906 -0.000370305998923037 -3.34889180550618e-05 -0.00117937132083511 -0.000590299879866881 0.00331810040062981 0.00248905226155049 -0.00136222181292515 -0.000742239446291742
"261" 0.00330919468826705 -1.93766384654855e-05 -0.00255261261095812 0.000738018146146331 0.00239469477471438 0.00162817297470708 0.00073727111878151 0.00233549541268388 -0.000331129590169517 -6.99001611278002e-05 -0.00116668090941428 -0.000547354702328173 0.00328701345539094 0.00251623081575075 -0.00132306037555222 -0.000699368679891223
"262" 0.00318278027628806 -2.89683003462754e-06 -0.00256702827594675 0.000732408271572767 0.00222661161009382 0.00151158221553399 0.000642193059574868 0.00233382622436032 -0.000292779231319459 -0.000100678565416073 -0.00115275185626159 -0.000501458380090662 0.00324596042192563 0.00252527757185937 -0.00128580773702895 -0.000646723922478258
"263" 0.00305620114098502 1.05795168233199e-05 -0.00258204427943995 0.000727386966019976 0.00206206006143154 0.00139319763332261 0.00055641417528694 0.00232076586205241 -0.00025561783972426 -0.000126342507658723 -0.0011379192330546 -0.000453119559761415 0.00319566203750565 0.00251699857497639 -0.00125100310963292 -0.000584655639930112
"264" 0.00293067041795417 2.15403768442476e-05 -0.00259751121857415 0.000722891398568231 0.00190204609002425 0.00127358465922282 0.000479891602687851 0.00229682383860038 -0.000219998915092363 -0.000147495457352031 -0.00112252099328774 -0.000402923700370782 0.00313693196923633 0.00249255928870112 -0.0012191233478574 -0.000513619470359021
"265" 0.00280735423399628 3.05400070587294e-05 -0.00261332909193326 0.000718844638398654 0.00174740597596312 0.00115325288733829 0.000412413869985548 0.00226264845152384 -0.000186263749271939 -0.000164798174748131 -0.0011068988763789 -0.000351501334543782 0.00307064496636159 0.00245339922046351 -0.00119060831533285 -0.000434173601311921
"266" 0.00268737178468402 3.8162459986055e-05 -0.00262940973816264 0.000715155372321594 0.00159885409723674 0.00103268360848532 0.000353638722549479 0.00221899090528262 -0.000154733939872239 -0.000178941938951176 -0.00109138225346889 -0.000299495202855301 0.00299772768544261 0.00240110185703565 -0.00116584615112641 -0.000346948531602248
"267" 0.00257176312410528 4.49758700704918e-05 -0.00264565953201295 0.000711734713987014 0.00145698108091338 0.000912324033183124 0.000303149274395258 0.00216665930340874 -0.000125700882716624 -0.000190595094720649 -0.0010762799809817 -0.000247530952940797 0.00291913895627721 0.0023372909823395 -0.00114519428280811 -0.000252640085166573
"268" 0.00246148092524715 5.14992637761733e-05 -0.00266197000304707 0.000708496370304673 0.00132228139114414 0.000792597891492291 0.000260474493481407 0.00210649801768081 -9.94251762983329e-05 -0.000200385545477149 -0.00106187740305466 -0.000196190566869225 0.00283585161009187 0.00226357644573941 -0.00112896500740761 -0.000151982593054819
"269" 0.00235738609379838 5.81887791605255e-05 -0.00267819088020955 0.000705371488839042 0.00119516678258572 0.000673910998695314 0.000225130355135676 0.00203936105366295 -7.61255425955461e-05 -0.000208885467658598 -0.00104842076036388 -0.000145995812035333 0.00274883464545937 0.00218147282884035 -0.00111743761091483 -4.57486584390251e-05
"270" 0.00226022796278121 6.54096496026926e-05 -0.00269413939447109 0.000702293655595456 0.0010759698045337 0.000556651550927646 0.000196621336212467 0.00196608906407809 -5.59760943140266e-05 -0.000216590954189038 -0.00103612123056336 -9.74019856333975e-05 0.0026590479230044 0.00209237204546356 -0.00111085192799979 6.52679148415488e-05
"271" 0.00217066101807585 7.34429296526769e-05 -0.00270959361200848 0.000699219997309678 0.000964963993979696 0.000441188263664412 0.00017445894972212 0.00188750475250331 -3.91124267018152e-05 -0.000223906807618187 -0.00102515301367654 -5.07867126564217e-05 0.00256743454286602 0.00199752728911072 -0.00110941141078197 0.000180251548285541
"272" 0.00208922156114598 8.24840965190364e-05 -0.00272430597500583 0.000696113650894815 0.000862343060606 0.000327877360117901 0.000158164709249944 0.00180440842949114 -2.5612339372926e-05 -0.000231159957329885 -0.00101563969296052 -6.4559397623026e-06 0.00247490080387808 0.0018980664793844 -0.00111324899286468 0.000298366655747633
"273" 0.00201635257636264 9.26464994405015e-05 -0.0027380020865344 0.000692954781782908 0.000768247974717905 0.000217051906848053 0.000147267172065511 0.00171757758738912 -1.55086657661507e-05 -0.000238581458654946 -0.00100766811866237 3.53623662920673e-05 0.00238231090861207 0.00179498499805126 -0.00112245583612849 0.000418769715491806
"274" 0.00195238773489636 0.000103969920991071 -0.00275039704237098 0.000689734446041302 0.000682754136383239 0.000109022335674443 0.000141296391877053 0.00162775225140126 -8.78651958385968e-06 -0.000246323484075611 -0.00100128102125182 7.4505316112629e-05 0.00229049596777595 0.0016891623043278 -0.00113705617178568 0.000540600739459994
"275" 0.00189755842082834 0.000116424557866049 -0.00276119356972993 0.000686447855475116 0.000605871418327162 4.0772443253095e-06 0.000139792109483288 0.00153565443282524 -5.38002035359278e-06 -0.000254448639016674 -0.000996481977304442 0.000110881763747402 0.00220023403702481 0.00158138316270177 -0.00115700438442073 0.000662987336219388
"276" 0.00185200574624306 0.000129932403111175 -0.00277010877600373 0.000683103170349888 0.000537548235267276 -9.75211343497366e-05 0.000142292560419679 0.00144196891737057 -5.1790507503972e-06 -0.000262948044572791 -0.00099322942472769 0.00014444640791602 0.00211225201924875 0.00147235312983013 -0.00118218864930301 0.000785048280019501
"277" 0.00181577493791231 0.000144364929680545 -0.00277686346846084 0.000679707937111143 0.00047767001481529 -0.000195534274043875 0.000148329764984756 0.00134736381506404 -8.02882565924524e-06 -0.000271741320773042 -0.000991445928668843 0.000175219796456497 0.00202721310536862 0.00136270726061635 -0.00121241786427036 0.000905899152189786
"278" 0.00178882544589929 0.000159554731783148 -0.0027812000427327 0.000676279210146382 0.000426060561824266 -0.000289757200605748 0.00015743080521851 0.00125247137378661 -1.37362117522681e-05 -0.000280684609936202 -0.000991020272207493 0.000203259427783155 0.00194573548052514 0.00125302389395817 -0.00124743594085092 0.00102464687569249
"279" 0.00177103771928122 0.000175316600239702 -0.0027828818033463 0.00067283174767353 0.000382488242260223 -0.000380007465473339 0.000169121506379764 0.0011579012583121 -2.20651466484511e-05 -0.000289579638658683 -0.000991807199467504 0.000228671995715738 0.00186836699860017 0.00114384466455551 -0.0012869087864955 0.00114040481525792
"280" 0.00176220651359714 0.000191436779818392 -0.00278170649183543 0.000669381793090191 0.000346655833977948 -0.000466133738262775 0.000182922770763117 0.00106422907760797 -3.27521762454543e-05 -0.000298177475716585 -0.000993632934326125 0.0002515942090103 0.00179559139667396 0.00103566771184528 -0.00133043838634327 0.0012522913253854
"281" 0.00176205818640152 0.000207683772197073 -0.00277749457441043 0.000665949358783567 0.000318223912063 -0.000548012451515133 0.000198350080535889 0.000972010027513529 -4.55101777310325e-05 -0.000306186260010731 -0.000996297824518113 0.000272196556266033 0.00172783695354977 0.000928942457892527 -0.00137757094781613 0.00135943368777838
"282" 0.00177025412407349 0.000223832406512497 -0.00277011094083618 0.000662551707207956 0.000296780795804603 -0.000625549637416453 0.000214920701231685 0.000881759137685268 -6.00148559722808e-05 -0.000313287641103003 -0.000999580532529986 0.000290674018928655 0.00166545030844893 0.000824121763358911 -0.00142778696755446 0.00146098653734044
"283" 0.00178638623095522 0.000239646337138458 -0.00275945557895367 0.00065920401174458 0.000281886871174143 -0.000698674837741005 0.000232154053565456 0.000793965973782356 -7.59403613559417e-05 -0.00031913747667238 -0.00100324472778583 0.000307243364861949 0.00160872615388461 0.000721592875790902 -0.00148052590958943 0.00155612351856747
"284" 0.00180999625263421 0.000254898598640445 -0.00274546231520246 0.000655921610732944 0.0002730523968811 -0.000767348478260036 0.000249573928126809 0.000709083683147508 -9.29356654085218e-05 -0.000323375141039046 -0.00100703627116058 0.000322132685105056 0.00155787399247602 0.000621739737979668 -0.00153518364305775 0.0016440602588403
"285" 0.00184056415645741 0.000269368245081184 -0.00272810891194921 0.000652718915157532 0.000269745446317125 -0.00083155153370743 0.000266715671584448 0.000627523957030056 -0.000110652150927062 -0.000325636206464889 -0.00101069580453965 0.000335594785394118 0.00151304895313175 0.000524896497276837 -0.00159113597221182 0.00172404843309767
"286" 0.00187753333805281 0.000282850866808592 -0.00270740494390183 0.00064960771428545 0.00027140494683905 -0.000891293248959679 0.000283135012679339 0.000549672991161459 -0.000128731470706765 -0.000325554705771699 -0.00101396058628428 0.000347872795934957 0.00147432795473161 0.000431380411560064 -0.00164772598697894 0.00179540459288566
"287" 0.00192029609531823 0.000295148988931504 -0.00268340300757641 0.000646599417633855 0.000277446087109769 -0.000946602747833011 0.000298406334787091 0.000475875173204169 -0.000146834536155295 -0.000322782835460453 -0.0010165642203163 0.000359232608575477 0.00144172575776127 0.000341451876437644 -0.00170429983907155 0.00185749168228909
"288" 0.00196821030533152 0.000306098561428212 -0.00265618651172516 0.000643704457689165 0.000287257804028657 -0.000997532203975805 0.000312123832930011 0.00040643198012022 -0.000164611039816863 -0.000316985059490834 -0.00101824785506822 0.000369921444140632 0.00141517927156595 0.000255364538319146 -0.00176019290388435 0.00190975278553867
"289" 0.00202060707186454 0.000315545661687353 -0.0026258773343764 0.000640929803482007 0.000300221484285498 -0.00104415122600931 0.000323916583582974 0.000341608435149422 -0.000181736706888735 -0.000307853180871734 -0.0010187607921856 0.000380192913311975 0.00139456470399211 0.000173317504806326 -0.00181475357386251 0.00195170387626005
"290" 0.00207678926590065 0.000323369207707001 -0.00259263067649698 0.000638281676790254 0.000315704306818029 -0.0010865507930382 0.000333449333722056 0.000281633507168238 -0.000197902080280777 -0.00029511753624047 -0.00101786366349772 0.000390292155360838 0.00137968979443169 9.54690300575536e-05 -0.00186734950205579 0.00198294977431875
"291" 0.00213604495154808 0.000329468054485149 -0.00255662633873051 0.000635766239781914 0.000333078713735284 -0.00112483320440887 0.000340424551287272 0.000226685878989097 -0.000212816143547386 -0.000278547858751353 -0.00101533111616157 0.000400450766207108 0.00137030090642186 2.19591568613244e-05 -0.00191736350890191 0.00200318426335719
"292" 0.00219764494615839 0.000333770772920111 -0.00251807782819663 0.000633390277580189 0.000351724146345745 -0.00115912181896488 0.000344580440207945 0.000176911157016363 -0.000226211591133736 -0.000257954076450939 -0.00101095993979738 0.000410886595319209 0.00136607985603237 -4.71316270500131e-05 -0.0019642239307827 0.00201220039500493
"293" 0.00226085584790552 0.000336232731822499 -0.0024772172105331 0.000631154512815414 0.000371036361501593 -0.00118954423699459 0.000345716682712922 0.000132419245871244 -0.000237851400794447 -0.000233206259892308 -0.0010045684807809 0.000421799007804221 0.00136665035080332 -0.0001117494589694 -0.00200738585498976 0.00200989504213417
"294" 0.00232494368680524 0.000336840689217166 -0.00243430088605371 0.000629064964642807 0.000390428022752355 -0.00121624615203002 0.000343660008620058 9.32669895756245e-05 -0.000247521863258511 -0.000204228785048166 -0.000995997599592636 0.000433369864494994 0.0013715881506098 -0.000171876663693775 -0.0020463495140907 0.00199627054106711
"295" 0.00238918461441791 0.000335606091380296 -0.00238960043383009 0.00062712243760385 0.000409341777069526 -0.00123937740774315 0.000338306617752909 5.94830563846819e-05 -0.000255041480288577 -0.000170998429834081 -0.000985118289714487 0.00044575928267377 0.00138041557328638 -0.000227528245612155 -0.00208066977712192 0.0019714367169893
"296" 0.00245286457044632 0.000332566796682032 -0.00234340676229052 0.000625330438883886 0.000427265757318844 -0.0012590970171247 0.000329591311687224 3.10586505766309e-05 -0.000260266100192395 -0.000133563014189226 -0.000971829429568338 0.000459104766735507 0.00139261050808279 -0.000278762681141452 -0.00210994671310536 0.00193561391691056
"297" 0.00251528742750056 0.000327796024767368 -0.00229601553320462 0.000623689653206418 0.000443710050661477 -0.00127557160900169 0.000317501547909079 7.93652023370816e-06 -0.000263067898753682 -9.20345700952705e-05 -0.00095606239198412 0.000473509957505757 0.00140761317721336 -0.000325649014012819 -0.00213383079596195 0.00188912713073181
"298" 0.00257578287773599 0.000321381012885711 -0.00224773685620099 0.000622198623223897 0.000458250196255259 -0.00128896563795385 0.000302074732551718 -9.96266309035758e-06 -0.000263366458243647 -4.65849130490133e-05 -0.000937773980094217 0.000489062719893132 0.00142483228119353 -0.000368293928341052 -0.0021520276161539 0.00183240593339171
"299" 0.00263371834405343 0.000313439378801068 -0.00219887800443264 0.000620859670961982 0.000470499828810276 -0.00129944792849955 0.000283400923552828 -2.27588226052612e-05 -0.000261108021504563 2.54090840308576e-06 -0.000916958596465331 0.000505817684887896 0.0014436598251906 -0.000406834598373023 -0.00216430767829333 0.00176598183621542
"300" 0.00268848844084661 0.000304107497770504 -0.00214974548382194 0.000619668831516069 0.000480132372952949 -0.00130719234114332 0.000261612688670018 -3.06045734778622e-05 -0.000256268250160106 5.50325432525961e-05 -0.000893646435624135 0.000523803838702063 0.00146346523163784 -0.000441418467592673 -0.00217049324163236 0.00169047746523883
"301" 0.00273953550142149 0.00029354112588248 -0.00210065106184114 0.000618624664469014 0.000486881460036919 -0.00131236322150311 0.000236885185313743 -3.36825905596888e-05 -0.000248860371933245 0.000110511460850773 -0.000867898565108658 0.000543021547073513 0.0014836136718489 -0.000472224432441925 -0.00217046167946011 0.00160660350710393
"302" 0.00278635265455184 0.000281915222119833 -0.00205188360440253 0.000617721706901147 0.000490535408895447 -0.0013151286119682 0.000209436552444684 -3.22026582231588e-05 -0.000238925317618317 0.000168542307625899 -0.000839804959778864 0.00056343961058889 0.00150347189141825 -0.000499435307117771 -0.00216414997511381 0.00151514455345869
"303" 0.00282847641105792 0.000269418586994701 -0.00200373651939392 0.000616957533683704 0.00049094196662911 -0.00131565080308744 0.000179517299277208 -2.63999861273347e-05 -0.000226531319634055 0.000228618034884654 -0.0008094971528874 0.000585005062833482 0.00152241134731672 -0.000523251315615916 -0.00215155458714972 0.00141695253316039
"304" 0.00286550574071163 0.000256249737675544 -0.00195648904872773 0.00061632311760576 0.000488012605881858 -0.00131408690164241 0.000147408558894147 -1.65365918248974e-05 -0.00021177360895091 0.000290175911671741 -0.000777128737878106 0.000607634911856261 0.00153983250825923 -0.000543882242437086 -0.00213271744924649 0.0013129378029024
"305" 0.00289709626865131 0.000242613921448131 -0.00191039139836424 0.000615807669176328 0.000481713683931572 -0.00131058644324036 0.00011342460538239 -2.88912915262888e-06 -0.000194791773703389 0.000352590935683618 -0.000742896921939645 0.000631223999853553 0.00155515398804653 -0.000561571803371897 -0.00210775629774282 0.00120404668204591
"306" 0.00292296466793616 0.000228725268743603 -0.00186568717312099 0.000615402190490898 0.000472069555781729 -0.00130529438571822 7.7892149494756e-05 1.42371474133288e-05 -0.000175729238654195 0.000415193191521661 -0.000707019927243092 0.000655637912168849 0.00156784002028417 -0.000576536623110858 -0.0020768226464602 0.00109126433392764
"307" 0.00294288600494608 0.000214794341152757 -0.00182260106465462 0.000615090550625819 0.000459160507882932 -0.00129834975600376 4.11653915194807e-05 3.45315469807897e-05 -0.000154771381248913 0.000477254917710851 -0.000669746942573382 0.000680729386154547 0.00157739485568864 -0.000589034850898619 -0.00204013876722657 0.000975587486361743
"308" 0.00295670987425262 0.000201036648649754 -0.00178132490153457 0.000614853145625732 0.000443115869773289 -0.00128987750287179 3.59920602737644e-06 5.7662719672501e-05 -0.00013211976913251 0.000538018275663964 -0.00063135244810045 0.000706320636306691 0.00158336818545463 -0.000599303872269384 -0.00199797095490792 0.000858022112454577
"309" 0.00296433833137489 0.000187657917688078 -0.00174204159557966 0.00061467411441948 0.00042410438182447 -0.00127999742791161 -3.4441216476754e-05 8.32961083920848e-05 -0.000108000749746734 0.000596674527842381 -0.000592142046906697 0.000732222966380528 0.00158537900691651 -0.000607604524402272 -0.00195063839798087 0.000739563675837684
"310" 0.00296574407945494 0.000174855849067439 -0.00170489393130089 0.000614526586209813 0.000402346115017222 -0.00126882029604034 -7.25838683336125e-05 0.000111086749695109 -8.26603970284677e-05 0.000652393766971975 -0.000552435463779418 0.000758231784135136 0.00158310456057284 -0.000614201270776312 -0.00189852144001981 0.00062118914245621
"311" 0.0029609547791596 0.000162820674331432 -0.00167001190088335 0.000614383554022553 0.000378087669003025 -0.00125644681289256 -0.000110473301129523 0.000140688640367976 -5.63655897358133e-05 0.000704326578035289 -0.000512578312204147 0.000784129330077861 0.00157628861893454 -0.000619364004815554 -0.00184203702545372 0.000503841021850535
"312" 0.00295005921219514 0.000151726159108932 -0.00163748889876787 0.000614216128504111 0.000351611081138678 -0.00124296686469761 -0.000147741008374612 0.000171754808890258 -2.93934809189047e-05 0.000751609069318065 -0.000472925813702618 0.000809687625016897 0.00156475213091992 -0.000623357263071676 -0.00178165941288882 0.000388421701543754
"313" 0.00293320450925846 0.000141727100930945 -0.00160740259096054 0.000613989001249877 0.000323225700476021 -0.00122846365328977 -0.000184051157875536 0.00020393808878134 -2.04856096757261e-06 0.000793378824662815 -0.000433854800067906 0.000834674462753179 0.00154838760092471 -0.000626469828272961 -0.00171790988412905 0.000275777956817522
"314" 0.00291058291549447 0.000132965307113244 -0.00157980364444647 0.000613663760928819 0.000293247602866034 -0.00121300975776423 -0.000219069562001368 0.000236901039611394 2.53689575360883e-05 0.000828781300017711 -0.000395745223131298 0.000858848657399055 0.00152716177995683 -0.00062897103898574 -0.00165135240295772 0.00016669221251079
"315" 0.00288243667832504 0.000125556217576458 -0.00155470702145383 0.000613201843062043 0.000262023529810378 -0.0011966669767686 -0.000252484739813466 0.000270315468954902 5.25424235019132e-05 0.000856989959794272 -0.000358988502808391 0.000881975133443089 0.00150111444209392 -0.000631142807252727 -0.001582588574979 6.18810362361942e-05
"316" 0.00284904645289735 0.000119590907856001 -0.00153211404330716 0.000612555546879413 0.000229891595765557 -0.00117949225515731 -0.000284009002193876 0.00030386134926484 7.91478809041781e-05 0.000877208049422592 -0.00032396894602193 0.000903819773886768 0.00147036511797657 -0.000633265328800097 -0.00151226378969964 -3.80183453292695e-05
"317" 0.0028107389767478 0.00011513780266182 -0.00151200462506408 0.000611677802827146 0.000197203463089586 -0.00116153393144304 -0.000313374201945313 0.000337239224661183 0.000104865876400769 0.000888689706350946 -0.000291076182716055 0.000924149269512906 0.00143509780278415 -0.00063560611347348 -0.0014410453759689 -0.000132446804298785
"318" 0.00276786280398206 0.000112239265772187 -0.00149432586797681 0.000610516453156842 0.000164302575211392 -0.00114283320900132 -0.000340346200765178 0.000370155861967151 0.00012937580750387 0.000890754100117206 -0.000260690287917227 0.000942743824430041 0.00139556637553618 -0.000638437393639328 -0.00136964252985767 -0.00022093549579555
"319" 0.00272079336386316 0.000110904973125506 -0.00147901162678105 0.000609018376160609 0.000131527396848138 -0.0011234207868222 -0.000364708830130167 0.000402349593684062 0.000152358816452314 0.000882790582662914 -0.000233176926580757 0.000959397862187845 0.00135208694543597 -0.000642021179363777 -0.00129877392609534 -0.000303099578947485
"320" 0.00266992968700973 0.000111122561937707 -0.00146597920700633 0.000607124771588803 9.92052060039483e-05 -0.00110332553593649 -0.000386292688793142 0.000433569062553984 0.000173516874505528 0.00086428360044449 -0.000208889109445257 0.000973912005863648 0.00130503555897842 -0.000646585444346807 -0.00122917528006403 -0.000378643093571684
"321" 0.00261568405072839 0.000112850220061932 -0.00145512427995006 0.000604776592271483 6.76454351850237e-05 -0.0010825715777985 -0.000404935830802238 0.000463595653539119 0.000192555690363238 0.000834813373571877 -0.000188155723904818 0.000986114865313619 0.00125483545175903 -0.000652368267726385 -0.00116158849015921 -0.000447359495729539
"322" 0.00255847746604808 0.000116015507592229 -0.0014463348557405 0.000601912387625427 3.71412528592165e-05 -0.00106117538855502 -0.000420534318143798 0.00049222908123512 0.000209209267090688 0.000794071799514514 -0.000171279647587458 0.00099584333233379 0.00120196245304378 -0.000659558270708246 -0.00109674301657496 -0.000509127301114883
"323" 0.00249872792528062 0.000120524689312538 -0.00143947295946654 0.000598468357028442 7.96190925007449e-06 -0.00103915544104288 -0.000433004154489405 0.000519295318953296 0.000223227332940561 0.000741879397926835 -0.000158532595502886 0.00100296634127551 0.00114692611944773 -0.000668332640384955 -0.00103537042149435 -0.000563915811458961
"324" 0.00243686055704602 0.000126251004980797 -0.00143439951474458 0.000594378061994727 -1.96502445659233e-05 -0.00101652156611649 -0.000442291769386996 0.000544647952040261 0.000234394368875072 0.000678173535316662 -0.000150154295254559 0.00100736819178513 0.00109027412702689 -0.000678834110522264 -0.000978157217806459 -0.000611769179792192
"325" 0.00237328583216237 0.000133053642867114 -0.00143096731152779 0.000589579253091796 -4.54800502780718e-05 -0.000993283178897802 -0.000448387318437748 0.000568162636786016 0.000242523866261378 0.000603033760036267 -0.000146342650843328 0.00100895990592757 0.00103257319238791 -0.000691154534341328 -0.000925766635886076 -0.000652815181363842
"326" 0.00230840609217029 0.000140761465307887 -0.00142901946048956 0.000584005040129447 -6.93388767789063e-05 -0.000969454487725353 -0.000451312953743172 0.000589752978487829 0.000247458257129852 0.0005166700984215 -0.000147256339222851 0.00100768623502744 0.000974417745249161 -0.000705367063757253 -0.000878813226888625 -0.000687252579580866
"327" 0.00224261303178395 0.000149198380835992 -0.00142839791763625 0.000577590881126751 -9.10777728477038e-05 -0.000945040380391491 -0.000451120905953551 0.000609345887871439 0.000249092662786717 0.000419429193650905 -0.000153006499366733 0.00100350826865732 0.000916408819704427 -0.000721473275466315 -0.000837845734039633 -0.000715348734921453
"328" 0.00217626934036396 0.00015815907280609 -0.00142893395292376 0.000570274526137635 -0.000110572481319233 -0.000920051558984851 -0.000447901024086158 0.000626900276359885 0.000247354211618321 0.000311788188846822 -0.000163660434610984 0.000996420954018506 0.000859156206654338 -0.000739449502583828 -0.000803350398131121 -0.000737430349466762
"329" 0.00210972878300285 0.000167433657268898 -0.00143047070134989 0.000561991138346756 -0.000127735119874449 -0.000894501537713454 -0.000441770294421308 0.000642400599096641 0.000242207454798626 0.000194351832032641 -0.000179229541557818 0.000986444884055877 0.000803272779281057 -0.000759217595369501 -0.000775735685163751 -0.000753883994300926
"330" 0.00204330901752371 0.000176800268302521 -0.00143283898437098 0.000552684277230344 -0.000142516074985218 -0.000868401967541531 -0.000432884859854633 0.000655854905889573 0.00023366953916204 6.78392319570786e-05 -0.000199684111414078 0.00097363081504843 0.00074936369578027 -0.000780656479368899 -0.000755320015156978 -0.00076514200678884
"331" 0.00197731439672073 0.000186038983661052 -0.00143588771110195 0.000542294118235498 -0.000154904136142027 -0.000841767094783835 -0.000421426827120134 0.000667293793392581 0.000221801993363998 -6.69227009177856e-05 -0.000224937769234723 0.000958054599615325 0.000698028637389671 -0.000803580848007006 -0.000742329388028395 -0.000771677343030047
"332" 0.00191200897073838 0.000194923284177603 -0.00143946210048738 0.000530771804434895 -0.000164913448534527 -0.000814621024749545 -0.000407612712785235 0.00067676476387534 0.000206704199711572 -0.000209009468092229 -0.000254860536114657 0.000939821479809858 0.000649846809041504 -0.000827775845041631 -0.000736891258600547 -0.000773998861093808
"333" 0.0018476385934194 0.000203237338942653 -0.00144341613867469 0.000518068958445068 -0.000172601917046018 -0.00078698125072851 -0.000391685229147332 0.000684340198556306 0.000188526696346078 -0.000357422019823417 -0.0002892694973498 0.000919052386878043 0.000605376738976769 -0.000852969610149259 -0.000739030862500168 -0.000772638570858586
"334" 0.00178442269092624 0.000210761560247175 -0.00144761186139948 0.000504142942259257 -0.000178059840278652 -0.000758878309725921 -0.000373903395280277 0.000690108963161991 0.000167449908669921 -0.000511096821952781 -0.000327936385156607 0.000895902996695656 0.000565157697080545 -0.000878871983108067 -0.000748674492301601 -0.000768154174706159
"335" 0.0017225380882985 0.000217300208939109 -0.00145192269728314 0.000488956895455396 -0.000181404934501382 -0.000730341246076328 -0.000354563149508468 0.000694167519695569 0.000143699009235576 -0.00066891872934111 -0.000370594622821677 0.000870543125663504 0.000529693296039312 -0.000905141606399066 -0.000765643147063968 -0.000761107078657797
"336" 0.00166214791421035 0.000222663163308072 -0.00145623114416712 0.000472480291196888 -0.000182794459802779 -0.000701413157578139 -0.000333972789275783 0.000696634428270361 0.000117536553508069 -0.000829740872977413 -0.000416933057907014 0.000843162932263744 0.000499458768604348 -0.000931414678505025 -0.000789663259539012 -0.000752063888941932
"337" 0.00160337960218081 0.000226682757718468 -0.0014604302628553 0.000454692063125987 -0.00018241132862352 -0.000672132354777587 -0.000312461616718704 0.000697636153098356 8.92460655416775e-05 -0.000992405747153512 -0.000466604721730475 0.000813973518194539 0.000474888134618982 -0.000957309055166686 -0.000820365765662977 -0.000741586629161233
"338" 0.00154634065315444 0.000229213298804768 -0.00146442863321059 0.000435577134326029 -0.000180462936406482 -0.000642548441378998 -0.000290373256039844 0.00069730355344919 5.91468501099667e-05 -0.00115575119959132 -0.000519233818184071 0.000783193649830354 0.000456373423589579 -0.00098241822874243 -0.000857299045452553 -0.000730226626683189
"339" 0.00149110669353176 0.000230128308303915 -0.00146814329111873 0.000415131629767185 -0.000177185415850717 -0.00061271948298242 -0.000268056644566669 0.000695783860336956 2.75677102317877e-05 -0.00131863222006607 -0.000574417311201031 0.000751060770643433 0.000444267048769894 -0.00100634993497438 -0.000899939411571325 -0.000718515963215073
"340" 0.00143773438347849 0.000229329312153532 -0.00147150721881712 0.000393355126909658 -0.000172833467345368 -0.000582702726823201 -0.00024587323773618 0.000693217294985581 -5.13573723062549e-06 -0.00147992944893769 -0.0006317244810424 0.000717818214057728 0.000438869448137514 -0.00102868747044531 -0.000947689656978617 -0.000706959811941303
"341" 0.00138625756614635 0.000226746861406355 -0.00147445903864419 0.000370264246360094 -0.000167676675151328 -0.000552568919799562 -0.000224186181369986 0.000689751601304545 -3.8599887093097e-05 -0.00163856427611595 -0.000690716725408322 0.000683713521126038 0.000440420536436769 -0.00104903142970024 -0.000999902955716447 -0.000696032158195859
"342" 0.00133669045014281 0.000222330725229617 -0.0014769555675208 0.000345879457884319 -0.000162000510865462 -0.00052238926391943 -0.000203354684148332 0.000685535736673425 -7.24616188001673e-05 -0.0017935157905977 -0.000750937476141835 0.000649003354121583 0.000449116661351404 -0.00106700155257356 -0.00105589269108466 -0.000686169374890791
"343" 0.0012890329770637 0.000216066425854547 -0.00147895956413639 0.000320232909292978 -0.000156092195136865 -0.000492244903664238 -0.000183731047802852 0.000680719101536146 -0.000106353112858959 -0.00194381627104395 -0.000811925342626892 0.000613943336627006 0.00046508945456816 -0.00108223253896611 -0.00111493818744759 -0.000677760883126838
"344" 0.00124326819011203 0.000207961613174473 -0.00148044952137002 0.00029336827699078 -0.000150250342828401 -0.000462220259469371 -0.000165660260216631 0.000675438941591317 -0.000139912712795399 -0.00208856640841938 -0.000873215942691793 0.000578784495737151 0.00048840981899211 -0.00109438579282806 -0.00117629458622677 -0.00067115210489039
"345" 0.00119936508858198 0.000198050092292823 -0.00148140471505821 0.000265339079306766 -0.000144770054860395 -0.000432407219045836 -0.000149463646200209 0.000669842708727691 -0.000172794438100915 -0.00222695109474626 -0.00093435228352617 0.000543779275486749 0.000519080606617984 -0.00110316294099245 -0.00123922585027212 -0.000666635939980598
"346" 0.0011572868481767 0.000186394382699902 -0.00148182205694661 0.000236208050581423 -0.000139941041586626 -0.000402899411152911 -0.000135449328325097 0.000664056370763059 -0.000204658166628305 -0.00235822161453811 -0.000994878472287259 0.000509170906701809 0.000557042925546085 -0.00110828758833503 -0.00130298553003115 -0.000664447598225056
"347" 0.0011169854680859 0.000173073898117284 -0.00148169028319986 0.000206049435223856 -0.000136041358836181 -0.000373797441480326 -0.000123898052966333 0.000658206439492846 -0.000235193989421253 -0.00248172503171781 -0.00105435513377673 0.000475196775616867 0.000602165114445932 -0.00110954534540751 -0.00136684630624933 -0.000664769782227238
"348" 0.00107840815321653 0.00015819106367037 -0.00148101231746838 0.000174947833722848 -0.000133331372144362 -0.000345206188789087 -0.000115063157781029 0.00065241419935891 -0.000264108937421145 -0.00259688395401462 -0.00111235645835813 0.000442083372235825 0.000654243564292035 -0.00110674825996979 -0.00143010738728269 -0.000667721397055822
"349" 0.00104149832868094 0.000141864031843276 -0.0014797900898579 0.000142994471039034 -0.000132057986955608 -0.000317230371067102 -0.000109163583885088 0.000646781428343353 -0.000291141124881061 -0.00270321303972691 -0.00116847721128194 0.000410045763999635 0.000713008005010033 -0.0010997692199182 -0.0014921003374992 -0.000673368831978959
"350" 0.00100620286569044 0.000124227249611795 -0.0014780316949968 0.000110291332052369 -0.000132437723564965 -0.000289977003143807 -0.000106381154468945 0.000641410766149316 -0.000316060278579042 -0.00280031420468711 -0.00122233309397028 0.000379287847502792 0.000778113388952099 -0.00108853620661501 -0.00155218985411479 -0.000681722729965831
