"V1" "V2" "V4" "V5" "V7" "V8" "V10" "V11" "V13" "V14" "V15" "V17" "V18" "V20" "V21" "V23"
"1" 9.08654611828357e-06 2.61546993925567e-06 1.0519953065949e-05 2.95209594095719e-06 6.96529425294465e-06 2.31453491604994e-06 -1.90878448242076e-06 4.73460642992391e-06 -0.000310041895472575 -8.15398203435121e-05 -3.09157915482559e-06 -0.000114086805969831 -0.000317122208567684 2.02767273823174e-05 -0.000146726834889563 -2.22438141375975e-05
"2" 1.37507445426413e-05 7.17129134067383e-06 1.30601449364143e-05 9.93977779255391e-06 8.75717358051149e-06 1.27169751166696e-05 -2.96094938923216e-06 4.29647306558931e-06 0.000163117358482532 -0.0009810054996892 -6.93198466982578e-06 0.00064496219835732 0.000542934148418303 0.000381273386016858 0.00066998543125581 0.000993438059549736
"3" 1.84431056207908e-05 1.17180792547404e-05 1.56201857782569e-05 1.69299709295593e-05 1.06106793764153e-05 2.31388525756764e-05 -3.92379904783982e-06 3.89540565377932e-06 0.000645496954952849 -0.00182355849397107 -1.07269295141324e-05 0.00142466200307382 0.00140013420794993 0.000739490329280665 0.00148633375632253 0.00202420298736649
"4" 2.31839203112207e-05 1.62515215945502e-05 1.82139719284554e-05 2.39202636081976e-05 1.2585177230788e-05 3.35977193099495e-05 -4.70848462265573e-06 3.57037243764901e-06 0.00113561281073033 -0.00261089703619148 -1.441768973814e-05 0.00222228762269905 0.00225037905681436 0.00109316080101581 0.00229901555886697 0.00306555860995428
"5" 2.79920781248326e-05 2.0767474749927e-05 2.08668220645269e-05 3.09125883331629e-05 1.47382512976134e-05 4.41090176386462e-05 -5.22679399488932e-06 3.35978800267944e-06 0.0016318454298335 -0.0033447042336664 -1.79546452989444e-05 0.00303471545117199 0.00308950756221477 0.00144054567070908 0.00310467776704683 0.00411251346585589
"6" 3.28887588237733e-05 2.52620619297591e-05 2.35867124131928e-05 3.79085484168283e-05 1.71273803885192e-05 5.46866305448474e-05 -5.39266597158672e-06 3.30069070437126e-06 0.00213244211799874 -0.00402662548012931 -2.12828185167574e-05 0.00385839690244501 0.00391331771594301 0.00177994597773969 0.00389988414047011 0.00515954017867686
"7" 3.78984170857884e-05 2.97329629590824e-05 2.64002137046171e-05 4.49138285558758e-05 1.98042416370344e-05 6.53470527068441e-05 -5.12692965301798e-06 3.43106471096695e-06 0.00263553559739667 -0.00465827091131652 -2.43538201484741e-05 0.00468933191666328 0.00471755192458721 0.00210972579258152 0.00468115458532517 0.0062005433027436
"8" 4.30300556725381e-05 3.41733728052877e-05 2.93117780437058e-05 5.19252233148936e-05 2.28214689420761e-05 7.60998201752303e-05 -4.35402320666279e-06 3.78319902803081e-06 0.00313913346693194 -0.0052411970951885 -2.71150580071393e-05 0.00552305137587383 0.00549792727330559 0.00242831386963195 0.00544494888220318 0.00722885777794525
"9" 4.83037521621502e-05 3.85821591160049e-05 3.23420771872634e-05 5.89498143315679e-05 2.62239248541601e-05 8.69626991911603e-05 -3.00493176933777e-06 4.39753016287327e-06 0.00364112059942449 -0.00577691750361365 -2.95312916871625e-05 0.00635461173838962 0.0062501914978133 0.00273422929249576 0.00618769441006992 0.00823725197487982
"10" 5.37260413088071e-05 4.29471365465787e-05 3.55000573434953e-05 6.59814116264985e-05 3.00553762489284e-05 9.79384670698458e-05 -1.02147939241191e-06 5.29441351539759e-06 0.00413930831851247 -0.00626690263154971 -3.15524056354923e-05 0.00717859605932708 0.00697012766903081 0.00302610417775497 0.00690580826624961 0.00921798804539204
"11" 5.93105668553292e-05 4.72699293360039e-05 3.87932734168334e-05 7.30286330506954e-05 3.4351613859425e-05 0.000109036626429866 1.65505451303558e-06 6.50694286282961e-06 0.00463141510935715 -0.00671257517242474 -3.31459492768469e-05 0.00798912977027405 0.00765363630017866 0.00330268183759867 0.00759572913445844 0.0101628889492374
"12" 6.50581681849856e-05 5.15443124218761e-05 4.22308469099676e-05 8.00881717503282e-05 3.9145126598066e-05 0.000120266475423878 5.06863372193087e-06 8.06052315061047e-06 0.00511510972345039 -0.00711532720555396 -3.42722125823477e-05 0.0087799349708091 0.00829677355376466 0.00356284547305272 0.0082539408314743 0.0110634743709314
"13" 7.09706403267904e-05 5.57629534311648e-05 4.58145021758945e-05 8.71662933229199e-05 4.44575672853808e-05 0.000131624405474723 9.25318350813685e-06 9.97086243778522e-06 0.00558800789759805 -0.00747650823457693 -3.49040980647648e-05 0.00954438207725057 0.0088958199337113 0.00380562052767816 0.00887702079047794 0.0119111295158327
"14" 7.70478124786185e-05 5.99144280345902e-05 4.95472218891405e-05 9.4254729590349e-05 5.03104581828851e-05 0.000143114484080094 1.42348332565961e-05 1.22584596359905e-05 0.00604773276788829 -0.0077974436432398 -3.50105450714612e-05 0.0102756087268473 0.00944735436476288 0.0040301919907833 0.00946167820752975 0.0126973291649907
"15" 8.32807258297053e-05 6.39997457867592e-05 5.34305086288152e-05 0.000101362052164708 5.67201004853751e-05 0.000154735136540206 2.00318579025257e-05 1.49386771426805e-05 0.00649190618051971 -0.00807944061422406 -3.45755184298478e-05 0.0109666364418092 0.00994831989328661 0.0042359120665522 0.010004811644589 0.0134138947551664
"16" 8.96616286914891e-05 6.80058851991904e-05 5.74542397209059e-05 0.00010848511416514 6.36855792633635e-05 0.000166475931572659 2.66510033417257e-05 1.80160938871848e-05 0.00691822021482705 -0.00832378823219087 -3.35782396077811e-05 0.0116105255317472 0.0103961058416114 0.00442230166467478 0.0105035647452654 0.014053295017495
"17" 9.61744068806119e-05 7.19276113170302e-05 6.16204454695805e-05 0.000115624410578176 7.12129106870836e-05 0.000178335669411554 3.40897236824354e-05 2.15053752960924e-05 0.0073244311533583 -0.00853177004178236 -3.20088123973507e-05 0.0122005576730467 0.0107885919447054 0.00458906366610878 0.0109553613556122 0.0146089403321434
"18" 0.000102805812294124 7.57550373385164e-05 6.59173040659878e-05 0.000122777145885357 7.92943351524212e-05 0.000190296269402914 4.23295865731381e-05 2.54026250063763e-05 0.00770843466660509 -0.00870467004647315 -2.98567102322537e-05 0.0127304478308286 0.0111242218655512 0.00473608043334894 0.0113579823568051 0.0150754988709545
"19" 0.000109526529431948 7.94784297098596e-05 7.03295790949464e-05 0.000129943215951217 8.79110519174568e-05 0.000202347168426143 5.13512666740286e-05 2.97061223527616e-05 0.00806825387061012 -0.00884376906708872 -2.71211666684807e-05 0.0131945371754471 0.0114020513601301 0.00486340958381576 0.0117095961222198 0.0154491385578644
"20" 0.000116322197827337 8.30980198863946e-05 7.48523593037001e-05 0.000137126593659252 9.70542272096135e-05 0.000214476322932066 6.11235458094043e-05 3.44200870883595e-05 0.00840210658519327 -0.00895037749919534 -2.38083829630439e-05 0.013588027751725 0.0116217724609228 0.00497128921035336 0.0120088059103604 0.0157277412692146
"21" 0.000123156974573758 8.65915045566674e-05 7.94586194810696e-05 0.000144318395806304 0.000106683966954034 0.000226656868080086 7.15959831577936e-05 3.95229509119646e-05 0.00870842354023096 -0.00902581842459117 -1.99228203545911e-05 0.0139071542754011 0.0117837242616989 0.00506011888642822 0.0122546903069296 0.0159110216833715
"22" 0.000130003968964925 8.99613195152955e-05 8.41407969231672e-05 0.00015152187112105 0.000116778977589572 0.000238876254780716 8.27251782380876e-05 4.50121908011935e-05 0.0089858810258502 -0.00907145193614932 -1.54798945637108e-05 0.0141493519048116 0.0118889089046595 0.00513046629135159 0.0124468295542089 0.0160005557041758
"23" 0.000136831159041978 9.31939879564297e-05 8.88705111542676e-05 0.000158726903007225 0.000127293998630476 0.000251101619341407 9.44474079141522e-05 5.0870868146055e-05 0.0092334295312049 -0.00908866153464346 -1.04977204258044e-05 0.0143133631285959 0.0119389628784909 0.00518303922611796 0.0125853128111798 0.0159997127240997
"24" 0.000143599876660704 9.62798187300281e-05 9.36339624101186e-05 0.000165938617899361 0.000138192822692474 0.0002633121382873 0.000106696588859672 5.70766567867339e-05 0.00945028442210153 -0.00907888078251278 -5.00049753193415e-06 0.014399292590619 0.0119361233542921 0.00521868797343915 0.0126707487256854 0.0159135004742542
"25" 0.00015027536430839 9.9212963872527e-05 9.84016421821924e-05 0.000173146729763679 0.000149422127776914 0.00027548111331873 0.000119399605335858 6.36111154662582e-05 0.00963596667407272 -0.00904358363073477 9.80238839445291e-07 0.0144085980608018 0.0118831754535198 0.00523838034658226 0.0127042515056555 0.0157483209361792
"26" 0.000156814636725953 0.000101980140441902 0.000103147863295736 0.000180350848611168 0.00016093106083036 0.000287575817057052 0.000132470346148649 7.04472271216345e-05 0.00979030802493501 -0.00898429521840959 7.41783510028626e-06 0.0143440212509184 0.0117833879883913 0.00524319080496121 0.0126874211987407 0.0155117079063794
"27" 0.000163183577633173 0.0001045780166871 0.000107850618227791 0.000187543457406454 0.00017266345923582 0.000299566478962049 0.000145833936531911 7.75623537790615e-05 0.00991342519974186 -0.00890260004655418 1.42660969189623e-05 0.0142094705866722 0.0116404613087224 0.00523427169337874 0.0126223051632548 0.0152120063057684
"28" 0.000169339933445935 0.000106998610862985 0.00011248685489644 0.000194722777427626 0.000184563538623386 0.000311423047894553 0.000159393883875343 8.49239292650936e-05 0.0100057347623528 -0.00880014443705047 2.14865980985231e-05 0.0140098517353697 0.0114584358127585 0.00521284810523865 0.0125113655430041 0.0148580680639399
"29" 0.000175250146883416 0.000109236228073966 0.000117021750014724 0.000201882747771272 0.000196570395580431 0.000323115011613416 0.000173066630683863 9.25058733842586e-05 0.0100679205519317 -0.00867862908841961 2.90287565902628e-05 0.0137508666998801 0.0112416118633026 0.00518019340416459 0.0123574266072111 0.0144589742349999
"30" 0.000180864273856438 0.000111279898999175 0.000121434115148292 0.000209013149573546 0.000208612272353381 0.00033460633653412 0.000186748824877643 0.000100270089034641 0.0101009336263184 -0.00853982200295107 3.68481919207738e-05 0.0134387993741857 0.0109944859771295 0.00513760921742575 0.0121636236076056 0.0140237743163859
"31" 0.000186150614123565 0.000113132926795846 0.000125698209083311 0.000216108795051558 0.000220633853198061 0.000345866360725856 0.000200355253774049 0.000108189308502176 0.0101059507276206 -0.00838556767074075 4.48829537103906e-05 0.0130803231577587 0.0107216738321034 0.00508641404724296 0.0119333469274918 0.0135612801833655
"32" 0.000191072860375995 0.000114785066712546 0.000129783669932965 0.000223166438024293 0.000232568080005505 0.00035686402612972 0.000213791233249805 0.000116228559731944 0.0100843411142936 -0.00821775676530366 5.30822008769376e-05 0.0126822791136063 0.0104278414033419 0.00502791479753559 0.011670176481554 0.0130799031776087
"33" 0.000195594521116158 0.000116233693754811 0.000133665389097591 0.000230171960046392 0.0002443472596742 0.000367565397673096 0.000226957982965232 0.000124350021061578 0.010037672105712 -0.00803834985681778 6.13868818614346e-05 0.0122515227249933 0.0101176342376466 0.00496339388353689 0.0113778322573199 0.0125875373257159
"34" 0.00019968312910043 0.000117473901093573 0.000137322205074306 0.000237118610822812 0.000255911677394708 0.000377938726301045 0.000239772215380123 0.000132519263600796 0.00996762804495186 -0.00784935380082539 6.97380420569351e-05 0.0117947515315332 0.00979563472658064 0.00489409553009412 0.0110601158373729 0.0120914731992146
"35" 0.000203314653679985 0.000118514476917647 0.000140732285174776 0.000244001188737047 0.000267198274130102 0.000387964323440974 0.000252148937734386 0.000140711662673989 0.00987600252124941 -0.00765282422369517 7.80642391666874e-05 0.0113184120420714 0.0094663152086446 0.00482121078449086 0.0107208605740988 0.0115983719653877
"36" 0.000206457768435602 0.000119345079193381 0.000143869069027977 0.000250807254904567 0.000278145152965444 0.000397602177164894 0.00026400236442177 0.000148882732968768 0.00976467352281448 -0.00745084202268205 8.63163259277222e-05 0.0108285932243929 0.00913397844573573 0.00474586345026121 0.0103638921272987 0.0111142447243028
"37" 0.000209096014454128 0.00011997346444326 0.000146720248052422 0.000257530550679592 0.000288696517726673 0.000406836524996302 0.000275261510033309 0.000157006455119359 0.00963557027137541 -0.00724551201231161 9.44230461666648e-05 0.0103309613498418 0.00880274340294065 0.00466910201402788 0.00999298267771725 0.0106444502425944
"38" 0.000211208416166009 0.000120402862226855 0.000149266460927495 0.000264158340222838 0.000298802684243542 0.00041564216276768 0.000285856201465481 0.000165048009268011 0.00949061252962525 -0.0070389383032983 0.000102327699810702 0.0098307354896512 0.00847649848714314 0.00459187707433061 0.00961181973377299 0.0101937293102641
"39" 0.000212780032624597 0.000120632366144707 0.000151489743847176 0.000270678444246064 0.000308409037146517 0.000423993896152038 0.000295720052128913 0.000172979522762529 0.00933172493703065 -0.00683321018476668 0.000109965792370647 0.00933266097560756 0.00815888720521423 0.00451505304444817 0.0092239697675388 0.00976621533202877
"40" 0.000213805497887961 0.00012067144621062 0.000153380426021051 0.000277085159902131 0.000317475596445133 0.0004318774571082 0.000304805018847264 0.000180771047122718 0.00916079804248045 -0.00663038445021332 0.000117284157096571 0.00884102086184874 0.00785328028413313 0.00443938637732354 0.0088328563148139 0.00936549866287015
"41" 0.000214277243528638 0.000120526514149437 0.000154928293211999 0.000283363550126151 0.000325960883689642 0.000439276648267942 0.000313063393917625 0.000188395829708562 0.00897967541565643 -0.00643245254349311 0.000124225966038965 0.00835963555426867 0.00756276983288709 0.00436552636750037 0.00844173432028228 0.0089946423895381
"42" 0.000214193373323226 0.000120203150597483 0.000156124996721488 0.000289506819333838 0.000333833360944509 0.000446180389393214 0.000320459714430847 0.000195835206855349 0.00879010875483322 -0.00624133253454405 0.000130737978198644 0.00789188671275525 0.00729012859522835 0.00429401292072355 0.00805368845857477 0.00865622619864862
"43" 0.000213563074630469 0.000119713917594546 0.000156971879825497 0.00029549979537492 0.00034105960230269 0.000452578374029042 0.000326966607536879 0.00020306311708678 0.00859378657344631 -0.00605883417631651 0.000136770999685081 0.00744074337641727 0.00703782481965851 0.00422527135290366 0.00767159973835236 0.00835237363260759
"44" 0.000212396428118827 0.000119065736045623 0.000157462430893262 0.000301333285138944 0.000347621258633944 0.000458466080562626 0.000332564241099932 0.000210058117018552 0.00839231632937952 -0.00588663588002702 0.000142285702064923 0.00700879018135081 0.00680798057974176 0.00415962190770235 0.0072981587543771 0.00808479576560312
"45" 0.000210703993835421 0.000118275101075187 0.000157597980212959 0.000306999953727018 0.000353504302324628 0.000463841775715453 0.000337251399447706 0.00021681152677204 0.0081871689875208 -0.00572626549332603 0.00014723533494316 0.00659825736202464 0.00660238299051943 0.00409726967343661 0.00693584046384895 0.00785481163687707
"46" 0.000208504353468416 0.000117345694394484 0.000157385467850009 0.000312482316139625 0.000358692997607503 0.000468704755106179 0.000341024587562485 0.00022329957360137 0.00797974177129377 -0.00557906684368404 0.000151590699506249 0.00621105250879722 0.00642245570365939 0.00403831059909859 0.00658691234549155 0.00766337024716036
"47" 0.000205820661034106 0.000116299360971397 0.0001568322878211 0.000317771879116864 0.000363188935811875 0.000473058873249366 0.000343895716576255 0.000229517786817938 0.00777131925825056 -0.00544619732295384 0.000155322083048178 0.00584879983379563 0.00626926862939489 0.00398274840557991 0.00625342929693412 0.00751107313282909
"48" 0.00020268177822233 0.000115146824024693 0.000155949575741127 0.000322861163950196 0.00036699357302345 0.000476914027853242 0.000345893522975584 0.000235455421767484 0.00756306587520022 -0.0053285941710767 0.000158396724447145 0.00551284831319579 0.00614352394934005 0.00393048265288306 0.00593723604932723 0.00739819227265034
"49" 0.000199117905046218 0.000113903195047801 0.000154747051513071 0.000327736633043894 0.000370114361475163 0.000480279838613046 0.000347037883990095 0.000241108117363801 0.00735606496363974 -0.00522696423446958 0.000160808206173213 0.00520430832447973 0.00604554206972619 0.00388132797037382 0.00563995855596031 0.0073246745276605
"50" 0.000195160868084291 0.000112585049025724 0.00015323937455129 0.000332391094019688 0.000372569441931403 0.000483167786860409 0.000347376215217394 0.000246472695022005 0.00715128256947976 -0.00514177901687069 0.000162532605429771 0.00492407757648108 0.00597529937477899 0.00383501820400868 0.0053630261248274 0.00729015669896672
"51" 0.000190845450459655 0.000111204662630564 0.000151443585204599 0.000336811191988014 0.000374376615934546 0.000485595746127697 0.000346950420337185 0.000251543517180309 0.00694958939329775 -0.00507325931803811 0.000163567433620901 0.00467286545188516 0.00593238280806368 0.00379121629627752 0.00510764572141899 0.00729397967721598
"52" 0.000186217695887933 0.000109781645634318 0.000149379316226549 0.000340992696942196 0.000375564290644038 0.000487585532232273 0.000345821120996928 0.000256329926722521 0.00675176817405208 -0.00502139639300397 0.00016390681866494 0.0044511972449562 0.00591602905975925 0.00374952342875685 0.00487482656167579 0.00733518073627779
"53" 0.000181315851336709 0.000108333106286507 0.000147069507878034 0.00034492502667917 0.000376163311545308 0.000489155694489027 0.000344042869659766 0.000260830341486981 0.00655851370321124 -0.0049859287311258 0.000163552618777147 0.00425944147081276 0.00592512767241808 0.00370949171832335 0.00466538558791801 0.00741251017695924
"54" 0.000176179091493104 0.000106874740387962 0.000144536083318393 0.000348601833709279 0.000376206812202287 0.000490333004286545 0.000341690177363295 0.000265057884111585 0.00637043428684218 -0.00496637193427947 0.000162512783575304 0.00409782630372349 0.00595824504406054 0.00367063409257489 0.00447994552861871 0.00752441714510544
"55" 0.000170857598786778 0.000105424245537139 0.000141800822899659 0.000352017887261821 0.00037574122797837 0.000491142853799029 0.000338827750884734 0.000269016217355717 0.00618807970878697 -0.00496202257947685 0.000160796471363752 0.00396644270686144 0.00601363089021083 0.00363244193276804 0.00431893124906107 0.00766907528829218
"56" 0.000165391633876937 0.000103992457721253 0.00013888960968767 0.000355164544817698 0.000374802793261881 0.000491611425860059 0.000335533945344149 0.000272715959657101 0.00601192412836004 -0.0049719817330341 0.000158418172787318 0.003865247166751 0.00608926218843879 0.00359439024448209 0.00418260522999543 0.00784437277674785
"57" 0.000159823600773094 0.000102601104799529 0.000135829117370949 0.000358038717318526 0.000373441642667481 0.000491771452372895 0.000331892594899825 0.000276171138696843 0.00584238129399185 -0.00499517566655729 0.000155397068660506 0.00379408664711618 0.00618285642668495 0.00355595093063091 0.0040710528319167 0.00804791768410434
"58" 0.000154203392103913 0.00010126131296438 0.000132647202901056 0.000360635714909294 0.000371709888398057 0.000491648781178791 0.000327977083885606 0.000279392811958482 0.00567982393678783 -0.00503037209174952 0.000151758549752583 0.00375269344394412 0.00629190860692955 0.00351661577174024 0.00398419957505283 0.00827705315703263
"59" 0.000148569038188939 9.9992423503685e-05 0.000129364386799415 0.000362954358484776 0.000369654004912677 0.000491278157384316 0.000323878015246547 0.000282397307051727 0.00552456838453808 -0.00507622218720367 0.000147521726281032 0.00374068858090461 0.00641373308548824 0.003475893505556 0.00392182137631502 0.00852885259980918
"60" 0.00014296523061467 9.88006858036804e-05 0.000126010559469551 0.00036498973293202 0.000367330540250314 0.000490692116731512 0.000319673690837904 0.000285196626050695 0.0053768845560884 -0.00513127168927903 0.000142718015571819 0.0037575910673714 0.00654548110153499 0.00343333064793415 0.00388355684290369 0.008800147191738
"61" 0.000137430094841132 9.77052470286958e-05 0.00012261222728399 0.000366744450564399 0.00036478774849407 0.000489923530772547 0.000315445006951023 0.000287813816333512 0.0052370238264969 -0.00519400063805004 0.000137379297065909 0.00380281114327008 0.00668421130463189 0.00338853141163341 0.00386891128654772 0.00908753627113268
"62" 0.000132000973529661 9.67167112737695e-05 0.000119190620518573 0.000368216395576094 0.000362083594509794 0.000489003453085363 0.000311272193784376 0.000290258421246527 0.00510518946720999 -0.00526284093610003 0.000131531972725321 0.00387566028406068 0.00682690564524946 0.00334114681921266 0.00387727221926694 0.0093874120433027
"63" 0.000126706559844609 9.58421670688994e-05 0.000115775112937035 0.000369407014029756 0.000359270102664248 0.000487964673845544 0.00030722805516668 0.000292548187791696 0.00498156226389524 -0.00533620980117625 0.000125212050800271 0.00397534965707817 0.00697052593635987 0.00329090441411048 0.00390791446712904 0.00969598208500456
"64" 0.000121584065763372 9.50910908544037e-05 0.000112382318551113 0.000370317048314033 0.000356396324465564 0.000486836654884005 0.000303391760244314 0.000294702476658027 0.00486630216592451 -0.00541252562832856 0.00011845668561279 0.00410098746764032 0.00711204011465289 0.00323760795247611 0.00396001690820751 0.0100093134727776
"65" 0.0001166554317678 9.44739374470844e-05 0.000109039248260014 0.000370952932598861 0.000353514153249314 0.000485652167946674 0.000299826480480956 0.00029673543164719 0.00475953822901175 -0.00549024509186191 0.000111294049160848 0.00425157334758355 0.00724848983468404 0.00318114546573345 0.00403266743906352 0.0103233596354265
"66" 0.000111947027523634 9.39977412062439e-05 0.000105763630868663 0.000371318053541471 0.000350671560849553 0.000484444894129021 0.00029659442787897 0.000298666549899058 0.00466138175839264 -0.00556787008051855 0.00010376390065234 0.0044260009644132 0.00737700613556058 0.00312149951313265 0.00412488505039034 0.0106340239791936
"67" 0.000107472552728929 9.36574850874894e-05 0.000102570590011749 0.000371414678749421 0.000347913943948698 0.00048323109824804 0.000293752674866672 0.000300500451592932 0.00457193027489728 -0.00564396349212711 9.59033774121968e-05 0.00462306611331724 0.00749486329959638 0.00305874464275667 0.00423561224053054 0.0109372102514722
"68" 0.000103251014874149 9.34690337244318e-05 9.94800091693022e-05 0.000371252811423233 0.000345284095455095 0.000482050820119047 0.000291352467319417 0.000302264994101932 0.00449126036663115 -0.00571718317479593 8.7747997338387e-05 0.00484146067453374 0.00759952351091196 0.00299306165065168 0.0043637311569098 0.01122887455574
"69" 9.92863239091483e-05 9.34240677313327e-05 9.65023671270397e-05 0.000370834968624682 0.000342819715221119 0.000480917993209263 0.000289433839564142 0.000303962148128031 0.00441942401667778 -0.00578627627092143 7.93360186358072e-05 0.00507976451493323 0.00768866211078123 0.00292471854275023 0.00450808406934037 0.0115051065950105
"70" 9.55889911747459e-05 9.35292387591443e-05 9.3652289574269e-05 0.000370175366322322 0.000340559316732862 0.000479862524536629 0.000288032357597499 0.000305611691424956 0.00435646347408769 -0.00585010329326809 7.07006343720516e-05 0.00533646513977225 0.00776020523654215 0.00285408890985915 0.0046674626111449 0.0117621779355067
"71" 9.21525735566774e-05 9.37776158565135e-05 9.09350893022722e-05 0.000369276247625426 0.000338529774689844 0.000478898169185784 0.000287169614992631 0.000307218097907407 0.00430239668425416 -0.00590763243348747 6.18757616140001e-05 0.00560994269161224 0.0078123527927971 0.00278162916949833 0.00484062951201697 0.0119966331829035
"72" 8.89752179645018e-05 9.41677471473004e-05 8.83627043494815e-05 0.000368152025580577 0.000336760323573345 0.00047804790266545 0.000286871731841785 0.000308793586781144 0.00425723725897961 -0.00595797061429511 5.29043563062702e-05 0.00589847673935825 0.00784361389743993 0.00270789111374001 0.00502632184815142 0.0122053374538083
"73" 8.60482699608041e-05 9.46937754149265e-05 8.59387924556078e-05 0.000366811543730657 0.000335275749625486 0.000477326422065442 0.000287144963180633 0.000310346676507256 0.00422095310348703 -0.00600033967572754 4.38140602598718e-05 0.00620026134716445 0.00785281366138845 0.00263350267533238 0.00522324770573028 0.0123855565191998
"74" 8.33547995342422e-05 9.53489919929608e-05 8.36620140615352e-05 0.000365264898049078 0.000334090791080292 0.00047674209506307 0.000287988766589626 0.000311880279629622 0.00419351918346634 -0.0060341042762463 3.46442357386102e-05 0.00651339945066187 0.00783911902304044 0.00255916105091435 0.00543010018358844 0.0125350086054844
"75" 8.08778411199421e-05 9.61257624693138e-05 8.15335152092436e-05 0.000363521291702516 0.000333218138254727 0.000476309263166962 0.0002893953432463 0.000313402824539877 0.00417486947490928 -0.00605875415874841 2.54257778112606e-05 0.0068359093429572 0.00780203463712731 0.00248561904022418 0.00564555880929155 0.012651901786149
"76" 7.85960871110469e-05 9.70169659424413e-05 7.95522579959071e-05 0.000361597208296718 0.000332669327772204 0.00047603075455213 0.000291354242821951 0.000314916848217386 0.00416491547303036 -0.00607392026692129 1.6193786101673e-05 0.00716574668936026 0.00774140619925104 0.00241368285159225 0.005868302992361 0.012734975624139
"77" 7.64793861594355e-05 9.8008823615182e-05 7.77133437188506e-05 0.000359501572786299 0.000332448785731007 0.000475917401112838 0.000293840927956666 0.000316424609532736 0.00416354399903751 -0.00607936506937332 6.97732295586721e-06 0.0075008066443872 0.0076574188231618 0.00234419058229936 0.00609699310451917 0.0127835200527597
"78" 7.45062059967855e-05 9.90945856378461e-05 7.60117909857285e-05 0.00035724976539343 0.000332552020680715 0.000475966725945365 0.00029682733583949 0.000317927245863413 0.00417061948480615 -0.00607498120596219 -2.18679004025121e-06 0.00783894530065602 0.00755058273793684 0.00227799886427181 0.0063302916868625 0.0127973777383582
"79" 7.26357876354201e-05 0.000100255664111017 7.44384797588313e-05 0.000354849707853982 0.000332975613003988 0.000476180348478421 0.000300270549237779 0.00031942158230002 0.00418596037432622 -0.00606078972471033 -1.12691386128149e-05 0.00817798425725082 0.00742171571405723 0.0022159627245731 0.00656687343046524 0.0127769310461339
"80" 7.08429249286176e-05 0.000101484104417875 7.29856702107976e-05 0.000352321680910581 0.000333714233897656 0.000476557861603507 0.000304138782232781 0.000320912326332392 0.00420935948678007 -0.00603694241062099 -2.02461452018303e-05 0.00851572838226926 0.00727191799678163 0.00215893627940049 0.00680540515364501 0.0127230723253265
"81" 6.9079971613487e-05 0.000102761081940926 7.16373755191338e-05 0.000349669559974563 0.000334751491295445 0.000477086133692442 0.00030837310422858 0.000322388272338149 0.00424058067960633 -0.00600369626309726 -2.90802798557978e-05 0.00884998502112159 0.00710255677003713 0.00210773496586218 0.00704456589843698 0.0126371694613091
"82" 6.7317235575893e-05 0.000104079090024084 7.03876948514364e-05 0.000346914482988799 0.000336071082068799 0.000477763149832462 0.000312923372578315 0.000323853120095167 0.00427932578555223 -0.00596143443041238 -3.7748792137237e-05 0.0091785890275006 0.006915244916654 0.00206313625567002 0.00728304470810078 0.012521005589686
"83" 6.55128761272046e-05 0.000105419055151042 6.9217899955037e-05 0.000344065676887388 0.000337654413618535 0.000478580805602349 0.000317736469759566 0.00032530256348241 0.00432526862906625 -0.00591063950815002 -4.62288099077546e-05 0.00949940907304692 0.00671178848516603 0.00202585980766808 0.0075195401488636 0.0123767328910201
"84" 6.36292539136613e-05 0.000106765381609092 6.8116363227397e-05 0.000341134366288379 0.000339477203982858 0.000479520118532695 0.000322746985384389 0.00032672724511924 0.00437804843897921 -0.00585189017582552 -5.44865675394161e-05 0.00981038820750524 0.0064941802051502 0.0019965570793065 0.00775277583609489 0.0122067922201292
"85" 6.16272177043279e-05 0.000108105799845975 6.7069403688267e-05 0.000338138839377348 0.000341514954462217 0.000480575450703929 0.00032789432493939 0.00032813162685795 0.00443724598398704 -0.00578585956118008 -6.25082481606595e-05 0.0101095441884975 0.00626456381983622 0.0019757934507696 0.00798147889952864 0.0120138587545063
"86" 5.94656804374259e-05 0.000109421984799774 6.6061622305177e-05 0.000335085533901487 0.000343736123112212 0.000481728109591722 0.000333111674654967 0.000329500402604037 0.00450240960404517 -0.00571329842994226 -7.02673359537872e-05 0.0103950093056408 0.00602518762121288 0.00196403877253345 0.00820441289670954 0.0118007693857355
"87" 5.71102953627786e-05 0.000110701843000755 6.50781722479147e-05 0.000331988249278735 0.000346116714767571 0.000482959548602684 0.000338333023535982 0.000330834517319361 0.00457302642442763 -0.00563502306323605 -7.77450203470426e-05 0.010665046763855 0.00577839936051661 0.001961662073636 0.00842036184539384 0.0115704584335606
"88" 5.45242683671477e-05 0.000111933351276803 6.41035110574058e-05 0.000328857721597559 0.000348623579479979 0.000484253420857788 0.000343498596721144 0.000332130665519961 0.0046485581666129 -0.00555191383809363 -8.49225927907786e-05 0.0109180627949768 0.0055265989909806 0.00196892068877997 0.00862814546668885 0.0113259057194844
"89" 5.16753203806618e-05 0.000113101148666164 6.31274202053101e-05 0.000325706427457459 0.000351222525642048 0.000485594454231621 0.000348536618039382 0.000333381349354961 0.00472840571369127 -0.00546489149744422 -9.17897290830709e-05 0.0111526179598043 0.00527222532798155 0.0019859465822183 0.00882660919539092 0.0110700745062917
"90" 4.85339097448294e-05 0.000114193048251174 6.21304565508035e-05 0.000322545657664715 0.000353880254980036 0.000486960248773157 0.000353390032379049 0.000334586453356471 0.00481192373437516 -0.00537491119979318 -9.83258080948437e-05 0.0113674530039006 0.00501772393968413 0.00201276086787698 0.00901465018039411 0.0108058659300968
"91" 4.50720083781771e-05 0.000115193097411449 6.11024007653302e-05 0.000319381987284479 0.000356568427348572 0.000488330187570011 0.000357993793261685 0.000335737481490464 0.0048984404448311 -0.00528294171201462 -0.000104522792438322 0.0115614947231448 0.00476553860343889 0.00204925417599704 0.00919120551682728 0.0105360834034009
"92" 4.12679490533505e-05 0.000116098032530883 6.00340551432837e-05 0.000316226618105339 0.000359249459457055 0.000489688465197644 0.000362298642497071 0.00033684110297204 0.00498723871745326 -0.00518996178266235 -0.000110373141588343 0.0117338668348306 0.00451807437671709 0.00209518835901772 0.00935526892421166 0.010263397487885
"93" 3.70966806231345e-05 0.00011688860761313 5.89116061283768e-05 0.000313084582898597 0.000361895312764579 0.000491005961749384 0.00036624540993986 0.000337887526026809 0.00507756947624996 -0.00509693130486123 -0.000115863979717933 0.0118838933359993 0.0042776892585562 0.00215020939099564 0.00950588179359568 0.00999031730114171
"94" 3.25444806802026e-05 0.000117558437558584 5.77273448497373e-05 0.000309966036784605 0.000364469814375042 0.000492271301535372 0.000369784185565072 0.000338880670227182 0.00516866022812767 -0.00500478871132231 -0.000120997647390557 0.0120110969339706 0.00404668161313236 0.0022138317909459 0.00964214317681059 0.0097191806499351
"95" 2.76081242679452e-05 0.000118107304487781 5.64721921301171e-05 0.000306880385516916 0.000366952175799643 0.000493465125787811 0.00037288493655451 0.000339824360033751 0.00525971637292765 -0.00491442909042888 -0.000125768883389442 0.0121151929412798 0.00382726646877596 0.00228546102248835 0.00976321716113831 0.00945213213085192
"96" 2.22712725346751e-05 0.000118516580065095 5.514468779338e-05 0.000303828849448515 0.000369305345225108 0.000494566436755878 0.000375499264851901 0.000340717841769488 0.00534993139594598 -0.00482669249184157 -0.000130179853718515 0.0121960884689802 0.00362155988428339 0.00236438532310725 0.00986833766942156 0.0091911250944863
"97" 1.65381564280422e-05 0.000118790818100031 5.37353542770855e-05 0.000300821395806019 0.000371508038240439 0.000495559149824647 0.000377600837034948 0.000341567125801943 0.0054384902538323 -0.0047423573973639 -0.000134236746973999 0.0122538697380981 0.00343156786672978 0.00244979135241448 0.00995682474621185 0.00893791091068715
"98" 1.04152338084773e-05 0.000118920488776468 5.22437806326761e-05 0.000297861050892608 0.000373537739455763 0.000496429814911859 0.000379167990397315 0.000342377231911975 0.00552459633306155 -0.00466212214040581 -0.000137938483365572 0.0122887921009939 0.00325916660934179 0.00254077291882928 0.0100280704814016 0.00869403005804702
"99" 3.90316792824134e-06 0.000118899859946502 5.06702259127918e-05 0.000294950981360098 0.000375371542359785 0.0004971569538023 0.000380174812715047 0.000343153929222756 0.00560745201763425 -0.00458659551575585 -0.000141295686466969 0.0123012556490909 0.00310610286326996 0.00263633114564925 0.0100815584772895 0.00846082506180254
"100" -2.98080733864752e-06 0.000118731363637017 4.90125450558072e-05 0.000292093201854058 0.000376989907536518 0.000497731080612437 0.000380619879594771 0.000343904090120068 0.00568630287217656 -0.00451629018191552 -0.000144318270915373 0.0122917984352525 0.0029739675032564 0.00273539148288586 0.0101168640662121 0.00823943842365599
"101" -1.0217133556764e-05 0.000118415918299126 4.7275683553495e-05 0.000289294909662247 0.000378376980223734 0.000498145904672442 0.000380496371484822 0.000344639729016368 0.0057604293306232 -0.00445162653230962 -0.000147016580077939 0.012261075051198 0.00286419305527978 0.00283681086370896 0.0101336583978301 0.00803083138013712
"102" -1.77862341812208e-05 0.000117946713260803 4.54611456662881e-05 0.000286551282949697 0.000379525360544084 0.000498383016556232 0.000379808298220275 0.000345368462099672 0.00582916131173953 -0.00439291093344194 -0.000149411096127832 0.0122098402883694 0.00277802404112559 0.0029393898680243 0.0101317145830067 0.00783577548228836
"103" -2.56599206558274e-05 0.000117328843168193 4.35775521625429e-05 0.000283867318622451 0.000380419819290572 0.000498442286286653 0.000378563036180531 0.000346104109570876 0.00589189833408364 -0.0043403481594317 -0.000151508819301525 0.0121389232783556 0.00271652098937944 0.00304188366120272 0.01011089917677 0.00765486110603711
"104" -3.38020028151585e-05 0.000116567833205909 4.16305657473011e-05 0.000281246831472289 0.000381056768334708 0.000498316574314385 0.000376782514944213 0.000346859310657463 0.00594810757508389 -0.00429403862253499 -0.000153334387728616 0.012049224254093 0.00268054672708383 0.00314301570354923 0.0100711840407217 0.00748852010166154
"105" -4.21841786266399e-05 0.000115661361003574 3.96282359656036e-05 0.00027868398054692 0.000381434240118077 0.000498004197875758 0.000374481635873846 0.000347648268187521 0.0059973363854969 -0.00425398515902406 -0.000154906692404147 0.0119416822422233 0.00267073924821171 0.00324149030288516 0.0100126448864465 0.00733702205699129
"106" -5.07675303092391e-05 0.000114620105238297 3.75824799824887e-05 0.000276182275210945 0.000381549019363856 0.000497505234763272 0.000371694480529761 0.00034848111774846 0.00603923752971218 -0.00422008263207878 -0.000156243562430047 0.0118172600278162 0.00268751072244692 0.00333600458475733 0.00993546231031351 0.00720049139868646
"107" -5.95046300407476e-05 0.000113445466916031 3.55032073700367e-05 0.000273740998512281 0.000381404414611047 0.000496821636946071 0.000368454390352144 0.000349383975573427 0.00607355612937261 -0.00419214762989928 -0.000157369269485116 0.0116769400290357 0.00273104111041068 0.0034252613928699 0.00983991656510391 0.00707891130105059
"108" -6.8358887198647e-05 0.000112143036178912 3.33988717929041e-05 0.000271355787944352 0.000381006730824239 0.000495957607837744 0.000364797533309731 0.00035036024450734 0.00610014625484048 -0.00416990436225326 -0.000158301051913229 0.0115217075570434 0.00280125460716655 0.00350799133735507 0.00972638366573914 0.00697213497227558
"109" -7.72781277748337e-05 0.000110721261185796 3.1290042765577e-05 0.00026902992238871 0.000380363761025974 0.000494921545066034 0.000360766848503172 0.000351431200853651 0.00611895050643141 -0.00415301447014054 -0.000159071458571718 0.011352531510413 0.00289782208418895 0.0035829521130656 0.00959533869878152 0.00687988752229223
"110" -8.62185847285819e-05 0.000109182482848368 2.91804601044365e-05 0.000266757793108918 0.000379483899285649 0.000493721713748569 0.000356408279767861 0.000352614632904882 0.00613003873575288 -0.00414106965619218 -0.00015969404832529 0.0111703679742755 0.00302015815386087 0.00364895625871002 0.00944733650877172 0.00680178560250163
"111" -9.51281728722433e-05 0.000107543614404998 2.70913007954723e-05 0.000264543053494529 0.000378382403341441 0.000492376653511966 0.000351776890978311 0.00035392770422122 0.00613356717721912 -0.00413362256351638 -0.00016020407503666 0.0109761467548419 0.00316741485566594 0.00370487817951439 0.00928303167819844 0.00673733648960003
"112" -0.00010395590688364 0.000105807572886981 2.503227474919e-05 0.000262380072010033 0.000377074770368604 0.000490896992856386 0.00034691671220758 0.000355384217368438 0.00612980965003403 -0.00413018804159861 -0.000160618245225905 0.0107707593164992 0.00333847491671209 0.00374967093857512 0.00910314771684859 0.00668595375908564
"113" -0.000112655854857629 0.000103988563304582 2.30208626974249e-05 0.000260273316561174 0.000375580050562876 0.000489304885673332 0.000341885537287275 0.000357004236703613 0.00611911616909468 -0.00413026056070909 -0.000160960797970467 0.0105550804569306 0.0035319794910786 0.00378237652462324 0.00890848389551755 0.00664696267563239
"114" -0.000121178076552738 0.000102084973145538 2.10674063923024e-05 0.000258213269449471 0.000373908838014422 0.000487612160722008 0.000336734037538039 0.000358796729654084 0.00610193700442031 -0.00413331973396489 -0.00016125455132205 0.0103299504791427 0.00374629871432074 0.00380214619605558 0.00869990559814165 0.00661961487346782
"115" -0.000129470234332838 0.000100120063342221 1.91873249679601e-05 0.000256209057890861 0.000372087556818562 0.000485850207689834 0.000331520599084581 0.000360783575668361 0.00607876416698656 -0.00413886130935594 -0.000161532006210759 0.0100961743013964 0.00397958697412989 0.00380823644897827 0.00847833177590297 0.00660308831798329
"116" -0.000137487671398699 9.80928535012588e-05 1.73910093747597e-05 0.000254254096463552 0.000370136011428115 0.000484041537579963 0.000326294480244895 0.000362977734469144 0.00605019504215961 -0.00414638861025923 -0.000161798142895435 0.00985452827366665 0.00422975101463325 0.00380004839869594 0.0082447362287515 0.00659650829746163
"117" -0.000145183529645376 9.60180756566111e-05 1.56936279261656e-05 0.000252350066874491 0.000368073800458692 0.000482211366485508 0.000321111696059241 0.000365388608643618 0.00601682557721292 -0.00415542427675932 -0.00016208528748061 0.00960576219739243 0.00449451453504989 0.00377710816590741 0.00800013296640567 0.00659895052476769
"118" -0.000152511385183654 9.39060257029657e-05 1.41080874817361e-05 0.000250500051707396 0.0003659243210659 0.000480392031509131 0.000316025551900447 0.000368035830570078 0.00597932459712002 -0.00416554505393391 -0.000162410237231211 0.00935059579955766 0.00477139951971568 0.00373909444279283 0.00774557297347761 0.00660945459884767
"119" -0.000159437146433485 9.17642097266997e-05 1.26397670501059e-05 0.000248702283880792 0.000363710926910032 0.000478608865384297 0.000311077514068947 0.000370923880847223 0.00593836160623574 -0.00417636263131419 -0.000162790855329102 0.00908972066029792 0.00505776601567365 0.00368583851752844 0.00748213184395313 0.00662703587341279
"120" -0.000165918172862592 8.9605106299025e-05 1.13029556671513e-05 0.000246960581529052 0.000361452861936021 0.00047689717294697 0.000306312955900393 0.000374064275302127 0.00589461716981966 -0.00418754544389032 -0.00016324330506878 0.00882380558804698 0.00535084324179938 0.00361732846946271 0.00721090676244121 0.00665068638024619
"121" -0.000171922457693023 8.74353752918408e-05 1.01039905783112e-05 0.000245278049576345 0.000359174910324162 0.00047529062455784 0.000301779939886163 0.000377466876664063 0.00584878135372673 -0.00419882767511054 -0.000163779193845614 0.0085535025483296 0.00564775189183713 0.00353372505631991 0.00693300761893799 0.00667939730540273
"122" -0.000177421102623075 8.52699712291739e-05 9.04975455232471e-06 0.000243655854080523 0.000356896974325555 0.000473822960992832 0.000297509992072024 0.000381136052754908 0.00580151097724716 -0.00421001083304537 -0.000164414211428799 0.00827945567814255 0.00594554616018125 0.00343534383337694 0.00664954831880413 0.00671215845603512
"123" -0.000182384584795075 8.31113891859502e-05 8.14682354974512e-06 0.000242096353163929 0.000354640521609335 0.000472527707393038 0.000293536906408328 0.000385072999062345 0.0057534390145877 -0.00422097153079646 -0.00016515742642939 0.00800229435153419 0.00624123169529053 0.00332266834618471 0.00636164735370685 0.0067479792299294
"124" -0.000186788142286156 8.09766132807725e-05 7.39763879013502e-06 0.000240608262593489 0.000352422247369961 0.000471442098095695 0.000289888322088221 0.000389290247277711 0.00570518568951083 -0.00423165720217324 -0.000166017472789165 0.00772264737226657 0.00653181486044469 0.00319634800343959 0.0060704101125744 0.00678589689569274
"125" -0.00019062228452194 7.88650942496012e-05 6.80621865512314e-06 0.00023919193071186 0.000350264311937351 0.000470599525239389 0.000286585955043811 0.000393776661136847 0.00565729759708452 -0.00424209797819623 -0.00016699811513003 0.00744113152298064 0.00681433143144372 0.00305718416157183 0.0057769337726606 0.00682497448610151
"126" -0.000193864779729071 7.67964098100629e-05 6.37395240455772e-06 0.000237859466717525 0.000348182483752927 0.000470039576969262 0.000283652853127115 0.000398539596520872 0.00561029844491072 -0.00425240663929829 -0.000168107204224181 0.00715836982979664 0.00708589932477342 0.00290613810769714 0.00548229954900932 0.00686432333294802
"127" -0.00019651585546546 7.47667813501017e-05 6.10232097718957e-06 0.000236608435783025 0.000346187545945431 0.000469792313098177 0.00028109090397835 0.000403570590570493 0.00556465544305881 -0.00426276241040109 -0.000169340455284814 0.00687497947880311 0.00734373740058543 0.00274431589351775 0.00518755737619915 0.00690309671017001
"128" -0.000198567158468671 7.27947613268107e-05 5.98534621965943e-06 0.000235453819571947 0.000344301328895197 0.00046989540739669 0.000278913142057257 0.000408869123549886 0.00552076164394943 -0.00427342793345013 -0.000170705581521719 0.00659158114518145 0.00758521899636671 0.00257295411258027 0.00489374529414177 0.0069405098951966
"129" -0.000200021318762122 7.08810509655917e-05 6.02225910876428e-06 0.000234395575435121 0.000342529359795496 0.000470379148122759 0.000277113467709895 0.000414422399273308 0.00547897895342702 -0.00428473598834069 -0.000172191141386531 0.00630879767573871 0.00780790090093972 0.00239343015527246 0.00460185187520176 0.00697582538209596
"130" -0.000200878423379745 6.9037090274853e-05 6.20860869890008e-06 0.000233446507654052 0.000340883897294535 0.000471280109474062 0.000275691679094815 0.000420225243234122 0.00543958251476361 -0.00429708782399779 -0.000173800011126074 0.00602725660249654 0.00800955860618807 0.00220722190874033 0.00431285309903246 0.00700837260882583
"131" -0.000201158704789983 6.72638011405458e-05 6.53678255406388e-06 0.000232610208242572 0.000339374054101325 0.000472620714663887 0.000274633299687705 0.000426262999729355 0.00540280647351845 -0.00431093564191123 -0.000175517391633705 0.00574758804704955 0.0081882103795285 0.0020159164125796 0.00402767123690896 0.00703754821921072
"132" -0.000200868481490694 6.55730523558161e-05 7.00316753347587e-06 0.000231898952633049 0.000338002622203123 0.000474435732342988 0.000273925138150962 0.000432524788279266 0.00536881773651749 -0.00432679627609013 -0.000177338149430758 0.00547041601644891 0.00834216165977196 0.00182118651011474 0.00374720126972048 0.00706280807880441
"133" -0.000200032615336318 6.39674052492931e-05 7.59559788016614e-06 0.000231314939488972 0.000336777692037642 0.000476745381292305 0.00027354108601556 0.000438994437880228 0.00533771336092498 -0.00434521359173472 -0.000179249406250835 0.00519636943496947 0.00847001335833019 0.00162476350815904 0.00347229755882193 0.0070836738112001
"134" -0.000198669530238105 6.24515144605695e-05 8.30148290546971e-06 0.000230871261751854 0.000335697299664147 0.000479574677180917 0.000273453857075264 0.000445652227095927 0.00530954007619373 -0.00436677276455883 -0.000181234501216253 0.0049260748647726 0.00857067584274454 0.00142844092094549 0.00320377732409882 0.00709972796978426
"135" -0.000196808549067335 6.10306047858613e-05 9.11755294292689e-06 0.000230573024795506 0.000334763767404423 0.000482945034635077 0.00027363865887928 0.000452483781238485 0.00528427704507677 -0.00439207719465468 -0.000183285158024156 0.0046601582789071 0.00864340215360469 0.00123404114922062 0.00294240569676669 0.00711061417818756
"136" -0.000194476717522917 5.97103804163734e-05 1.00306441415253e-05 0.000230430856953832 0.000333977008952086 0.000486871623473706 0.000274057555018175 0.000459465361132749 0.00526186382898278 -0.00442173269520257 -0.000185378692503667 0.00439923295112507 0.00868775674946264 0.00104340269181409 0.00268891347412486 0.00711602136583532
"137" -0.00019171138649316 5.84928504499941e-05 1.10235616025892e-05 0.00023044754245091 0.000333334349771579 0.000491365118579861 0.000274669582097769 0.000466578711273221 0.00524216949425685 -0.00445633733061701 -0.000187498624354524 0.00414389685452618 0.00870364730714194 0.00085835552678589 0.00244398052587985 0.00711569704580765
"138" -0.000188547360702686 5.73828653908183e-05 1.20895217612786e-05 0.000230634723570444 0.000332826210899453 0.000496436836969924 0.00027543732775489 0.000473798221435381 0.00522501684851098 -0.00449646977786156 -0.000189628255372269 0.00389474491709773 0.00869129204940983 0.000680704727768241 0.00220824408773279 0.00710942329228174
"139" -0.000185021905287699 5.6381083629638e-05 1.32130940179723e-05 0.000230995482361311 0.000332447371247381 0.00050208836216071 0.000276315825236438 0.000481100363402357 0.0052101812628064 -0.00454266393650096 -0.00019174383744748 0.00365234088943987 0.00865122781284083 0.000512204502413776 0.00198229864626325 0.00709702279736095
"140" -0.000181175284893096 5.54898995385971e-05 1.43822094625092e-05 0.000231537360723299 0.000332194546163355 0.000508324144228521 0.000277256457318224 0.000488463505364301 0.00519739325903092 -0.00459540285331324 -0.000193824463385418 0.003417232722476 0.00858426909866772 0.000354545455845588 0.00176668784288513 0.00707834342339723
"141" -0.000177047676584726 5.4710013409211e-05 1.55855194583259e-05 0.000232264712133831 0.0003320527695144 0.000515139838897545 0.000278217536753755 0.000495858379137006 0.00518633329872279 -0.00465509627484798 -0.000195849446236086 0.00318994622968515 0.00849150508144683 0.000209321693255858 0.00156191291666229 0.00705325950308351
"142" -0.000172685918450135 5.40450565396806e-05 1.68057883661145e-05 0.000233183302351734 0.00033201398013494 0.000522525163756605 0.000279145804900382 0.000503257970461738 0.00517665206785259 -0.00472207592294088 -0.000197799852219957 0.00297097620035935 0.00837425578210758 7.80198880797343e-05 0.00136842116604324 0.00702165802675647
"143" -0.000168130616960047 5.34975961562394e-05 1.80353321355926e-05 0.00023429528976296 0.000332069952360507 0.000530469163804583 0.000280000435438136 0.000510640855874729 0.00516796541705863 -0.00479656648283096 -0.000199651356571034 0.00276078654513843 0.0082340579438905 -3.80030230919261e-05 0.00118662639686341 0.00698343323364936
"144" -0.000163429209682621 5.30602637940976e-05 1.92579295517395e-05 0.000235600084042977 0.000332201722291529 0.000538947542332106 0.000280724419152762 0.000517972091236409 0.00515985257673115 -0.00487868679686278 -0.000201378907752191 0.00255980656184836 0.00807261216838517 -0.00013754283026445 0.00101688734458219 0.0069384847125541
"145" -0.000158620171706268 5.27404822357353e-05 2.04653008765556e-05 0.000237105087271116 0.000332404763658295 0.000547948009838255 0.000281281542396324 0.000525239026930942 0.00515186865367885 -0.00496843954049749 -0.000202966709599583 0.0023684268416245 0.0078917909654775 -0.000219561419551263 0.000859518917257773 0.00688670322780595
"146" -0.000153754897377792 5.2532450168516e-05 2.16474978989082e-05 0.000238803845138529 0.000332657795909889 0.000557433811661849 0.000281618542520748 0.000532401153629403 0.00514354697991511 -0.00506568281074799 -0.000204393369765254 0.00218698938800427 0.00769355203268517 -0.000283205700895648 0.000714793163729327 0.00682798095976033
"147" -0.000148864454339569 5.24368573315779e-05 2.27913085184229e-05 0.000240700137769797 0.000332954343239945 0.000567379869444542 0.000281697272570621 0.000539438630203653 0.00513441020027674 -0.00517014584016018 -0.000205638274509503 0.00201579473295643 0.00747995913546508 -0.000327813515345501 0.000582940948547226 0.00676219650163488
"148" -0.000144001045523905 5.24493786896527e-05 2.38896730105616e-05 0.000242787845397299 0.000333272754467804 0.000577742743960713 0.000281478183514985 0.000546327381226359 0.00512395966473254 -0.00528141295825271 -0.000206684035379484 0.00185509314006676 0.00725312272117861 -0.000352932412326979 0.000464146425319875 0.00668922306861188
"149" -0.000139198385596158 5.25680199590918e-05 2.49367790063072e-05 0.000245062732093576 0.000333606203818882 0.000588483839578964 0.000280921486524679 0.000553039141591384 0.00511170565615542 -0.00539891929921668 -0.000207514071492532 0.00170507988575153 0.00701518295132246 -0.000358329606305514 0.000358552332341268 0.00660891518445978
"150" -0.000134497054355434 5.27911612936786e-05 2.59236929551745e-05 0.00024752258557774 0.000333936192626389 0.000599559537632778 0.000279996971155603 0.00055955457582615 0.00509716154493877 -0.0055219620961305 -0.000208110902902557 0.00156589740891694 0.00676828820638304 -0.000343980427366674 0.000266248644445145 0.00652111607876525
"151" -0.000129932121442537 5.31123764609875e-05 2.684374170976e-05 0.000250155969513735 0.000334254307301686 0.000610914849354068 0.000278668050383178 0.000565843896708741 0.00507985180034576 -0.00564969718870614 -0.000208459569017379 0.00143763903493211 0.00651455456499498 -0.000310089144972442 0.000187285835382186 0.00642566379753975
"152" -0.000125533387115445 5.35270808701309e-05 2.7695602600146e-05 0.000252958359017499 0.000334541921481868 0.000622503006009105 0.000276917489909762 0.00057189529753691 0.0050593126867848 -0.00578115808641256 -0.000208555972241215 0.00132033778528118 0.00625607100690967 -0.000257080696780231 0.000121673500792379 0.00632238735117397
"153" -0.000121339316349743 5.40284257258035e-05 2.84725835454755e-05 0.000255914538498407 0.000334786676083193 0.000634255167654847 0.00027471734937453 0.000577676220196691 0.00503513244411995 -0.00591525358316172 -0.000208380886064389 0.0012139714134092 0.00599485810840825 -0.000185592516588696 6.93661603312248e-05 0.00621111942296155
"154" -0.000117371687914712 5.46139523090194e-05 2.91746557899756e-05 0.00025901731440115 0.000334982543624737 0.000646123338111505 0.000272053566713513 0.000583179757733812 0.0050069212367089 -0.00605078922640683 -0.000207933565316378 0.0011184536984189 0.00573286672575029 -9.64706422931836e-05 3.02892504102503e-05 0.0060916941770925
"155" -0.000113656695102138 5.5274605599479e-05 2.98007086006735e-05 0.000262253198214583 0.000335114381997345 0.000658036645661286 0.000268912744257452 0.000588381497869799 0.00497434973474551 -0.00618647742445212 -0.000207201119693177 0.00103364086203891 0.0054719549286872 9.24594242756117e-06 4.31167865768158e-06 0.00596395575379798
"156" -0.000110219598822091 5.60016615656826e-05 3.03523016843669e-05 0.000265604982777292 0.000335169130369843 0.000669929210662434 0.000265283696394587 0.000593265935413562 0.00493713204513454 -0.00632095766120775 -0.000206186845233853 0.000959326213766228 0.00521388147717366 0.000130334901695234 -8.73421989753117e-06 0.00582776634783474
"157" -0.000107076754553824 5.67860498769959e-05 3.08334146238516e-05 0.000269058097058265 0.000335140309692959 0.000681735971936476 0.00026116675998453 0.000597820919510201 0.00489506313750915 -0.00645281048018967 -0.000204885806952305 0.000895239952289693 0.00496029488243431 0.000265406640745955 -9.06876160573806e-06 0.00568300727816311
"158" -0.000104245736993048 5.76175311576912e-05 3.12368576558294e-05 0.000272591689750723 0.000335019624734256 0.000693383095388588 0.000256560138302138 0.000602031261986106 0.00484801810884016 -0.00658057156807619 -0.000203295600449289 0.000841050631313406 0.00471272186518303 0.000412921342899826 3.04912283094064e-06 0.00552959624976739
"159" -0.00010173635209421 5.84901410725548e-05 3.15782444876769e-05 0.000276193289894177 0.000334800001742791 0.000704809317363167 0.000251478499416365 0.000605890713053204 0.00479593202646744 -0.0067027673121866 -0.000201427256831954 0.000796359315040407 0.00447257186469316 0.000571210590489483 2.73172354093707e-05 0.00536748241275256
"160" -9.95611265285783e-05 5.93882126188499e-05 3.18587766537575e-05 0.000279840150629213 0.000334471790308487 0.000715934798697013 0.000245919272490982 0.000609383749792392 0.0047388476020987 -0.00681792048954091 -0.000199280660234233 0.000760708353345414 0.00424111544440689 0.000738490661403129 6.33853926335764e-05 0.00519667182747474
"161" -9.77268629695066e-05 6.03047207996472e-05 3.20797954825082e-05 0.000283511041599404 0.000334033687843429 0.000726695536322928 0.000239905015855357 0.000612507424797832 0.00467690253879938 -0.00692457322443925 -0.000196863750605451 0.00073357228726063 0.00401947748635161 0.000912896500857701 0.000110866559176808 0.00501721796691441
"162" -9.62376684634973e-05 6.12239967032999e-05 3.22506646672054e-05 0.000287185474647489 0.000333479409176341 0.000737024494185036 0.000233452978838018 0.000615257022409041 0.00461032062280246 -0.00702129850417455 -0.000194182239597107 0.000714380067410329 0.00380866409050652 0.00109248769276175 0.000169326913200422 0.0048292278761721
"163" -9.50920029721141e-05 6.21339854076434e-05 3.23785917654938e-05 0.00029083940694695 0.000332808107448056 0.000746848566570843 0.000226580536559527 0.00061762283744859 0.00453942694166825 -0.00710672620222609 -0.000191251240092177 0.000702501193798472 0.00360951601380752 0.00127528061192548 0.000238292747851913 0.00463288459770661
"164" -9.42932282042282e-05 6.30195264875365e-05 3.24699989636716e-05 0.000294450990875178 0.000332017841883633 0.000756104673770133 0.000219317455749779 0.000619609135268251 0.004464638991592 -0.0071795505227857 -0.000188078503115577 0.000697255443650955 0.00342274467705772 0.00145926916796925 0.000317244469221235 0.00442844522815628
"165" -9.38317270668156e-05 6.38715023272581e-05 3.25357381910281e-05 0.000297996145559819 0.000331105486310055 0.000764731566513941 0.000211686934476048 0.000621211053023383 0.00438646551744417 -0.00723854471254197 -0.000184685446173173 0.000697915363317058 0.00324890118527272 0.00164243572877453 0.000405617094933819 0.00421623464518964
"166" -9.37031562578257e-05 6.46749185429964e-05 3.25819348344853e-05 0.000301453130913783 0.000330075452157268 0.000772671837270271 0.000203724308843911 0.000622431347182646 0.00430550529917556 -0.00728256599800248 -0.00018108099383784 0.000703715181273069 0.00308838172259379 0.00182279515205667 0.000502811716702293 0.00399665996631198
"167" -9.39026813368525e-05 6.54108053223062e-05 3.26164548072774e-05 0.000304796828704125 0.000328929619877425 0.00077986643942713 0.000195458570891772 0.000623273637796696 0.0042224184881402 -0.00731057973300808 -0.000177282092085803 0.000713854951526486 0.00294144326399315 0.00199838513379313 0.000608188634939125 0.00377021030030427
"168" -9.4418475182956e-05 6.60676120571714e-05 3.26511898981086e-05 0.000308000975954587 0.000327665774521022 0.000786265570926401 0.000186919508927218 0.000623740285777075 0.00413793892897118 -0.00732164339465165 -0.00017330718562815 0.00072750714550602 0.00280817291174689 0.00216731815356713 0.00072106859584875 0.0035374615165705
"169" -9.52395740724492e-05 6.66284681882147e-05 3.26920848094308e-05 0.00031104472005845 0.000326295946345007 0.000791821942576683 0.000178148043694562 0.000623834205990145 0.0040528338597674 -0.00731494430719377 -0.000169175182060119 0.000743827174280379 0.00268851888926211 0.00232777301049569 0.000840738180727616 0.00329905633011228
"170" -9.63473031052516e-05 6.70821439274978e-05 3.27480203403142e-05 0.00031390649879165 0.000324820528926241 0.000796502546376756 0.000169181598936591 0.000623569155298614 0.00396790992038023 -0.00728977313011943 -0.000164906171813662 0.000761961621122045 0.00258227846881273 0.00247803459475775 0.000966447105306435 0.00305572815823818
"171" -9.77342561181169e-05 6.7411376119627e-05 3.28291521103287e-05 0.000316561298225722 0.000323247259042134 0.000800265761563441 0.000160047676976718 0.000622948704351336 0.00388398731986611 -0.00724554245662904 -0.000160519026585097 0.000781060266909189 0.00248910417901873 0.00261649965962902 0.00109740888917311 0.00280828702703176
"172" -9.93854223658639e-05 6.76027601370351e-05 3.29418232785985e-05 0.000318989777625897 0.000321583970653035 0.000803084822117002 0.000150789480852758 0.000621985027825255 0.00380187882957737 -0.00718179096798379 -0.000156035403458663 0.000800280756237323 0.00240849785277307 0.00274169590082771 0.0012328027096111 0.00255761019203319
"173" -0.000101280592925046 6.76438606397026e-05 3.30972357461808e-05 0.000321170330888826 0.000319837937734215 0.000804938419927205 0.000141442648520196 0.000620687160829809 0.00372238580142348 -0.00709818148390819 -0.00015146966722432 0.000818808252802085 0.00233983814874592 0.0028522950584942 0.00137178733699216 0.00230464066405669
"174" -0.000103407820182336 6.75178456187571e-05 3.3296049992072e-05 0.000323082440983667 0.00031801927812897 0.000805811043568496 0.000132035326629966 0.00061906524346582 0.00364625495494708 -0.00699449671283082 -0.00014684984590033 0.000835860907780901 0.0022823735772728 0.00294711816894366 0.00151348493843437 0.00205039045381523
"175" -0.000105745873156763 6.72144953858539e-05 3.35532801771678e-05 0.000324710760562964 0.000316137989973714 0.000805696344231579 0.000122608511835008 0.000617133546068744 0.00357419625629462 -0.00687065213349139 -0.000142191814784364 0.000850697370364455 0.0022352413203469 0.00302516480699142 0.00165701110080552 0.00179591552513017
"176" -0.000108281597884999 6.67219955891251e-05 3.38726273648673e-05 0.000326040520283557 0.000314206289673533 0.000804592535285344 0.000113196102187242 0.000614906917055217 0.00350683649606612 -0.0067266931284553 -0.000137518382292056 0.000862638220993013 0.00219747285207242 0.00308560221553523 0.00180146228475776 0.00154232767526841
"177" -0.000110996337331184 6.60326421536939e-05 3.4261262172262e-05 0.00032705587416921 0.00031223192792311 0.000802504127996542 0.000103821904568368 0.00061239846903274 0.00344471062122517 -0.00656279004446175 -0.000132849161379344 0.000871070165901888 0.0021680011656774 0.0031277786902351 0.00194592392706394 0.00129077508569488
"178" -0.000113869218444636 6.51336564389327e-05 3.47241365335597e-05 0.00032774542994806 0.000310229613334995 0.00079944692966932 9.45221352157862e-05 0.000609624812798212 0.00338828142184705 -0.00637924444296976 -0.000128198247700748 0.000875452627515861 0.00214569015821906 0.00315123138333267 0.00208948277766537 0.00104243433744228
"179" -0.000116892373799411 6.40159515526229e-05 3.52637977297531e-05 0.000328097108008371 0.00030821216239914 0.000795439134675379 8.53206129624579e-05 0.000606601428487228 0.00333788371974123 -0.00617648451369923 -0.000123590845508375 0.000875332666814991 0.00212933391176814 0.00315568495643019 0.00223122704870654 0.000798503676049117
"180" -0.000120037612501723 6.26797826432958e-05 3.58919753271719e-05 0.000328107164359604 0.000306190611563006 0.000790508745416317 7.6245577710347e-05 0.000603344851098596 0.0032937604265302 -0.00595506868245819 -0.000119041077939151 0.000870351275303363 0.0021176981872645 0.00314104648181741 0.00237025583320592 0.000560188449644168
"181" -0.000123299926530311 6.11155538352818e-05 3.66052105398463e-05 0.000327766785861484 0.000304180998744114 0.000784686198401467 6.73154833631158e-05 0.000599872742083521 0.00325603085818659 -0.00571568307362092 -0.000114565533479211 0.000860250332397236 0.0021095078978805 0.00310741062719546 0.00250567841194282 0.000328696285079089
"182" -0.000126656424401401 5.93184445728536e-05 3.74109649230055e-05 0.000327072073564683 0.000302188988957804 0.000778010568205098 5.85549948838492e-05 0.000596198421834988 0.00322471376349298 -0.00545914841252217 -0.000110184829147308 0.000844873419351157 0.00210349227117717 0.00305505200049299 0.00263664055464556 0.000105223667991207
"183" -0.000130095365893355 5.72919415517633e-05 3.83145669462176e-05 0.000326026727586099 0.000300237564038112 0.000770530219871777 4.99803095549338e-05 0.000592347085601435 0.00319971462121492 -0.00518641189540238 -0.000105910719678486 0.000824174190655831 0.00209840252307519 0.0029844122691287 0.00276231154783973 -0.000109051443116971
"184" -0.000133599174823277 5.50355856894719e-05 3.93144773576349e-05 0.00032463040082192 0.000298335798920935 0.000762289385800654 4.16094982328068e-05 0.000588330591791838 0.00318083663079659 -0.00489855050447481 -0.000101762652815384 0.000798212822722929 0.00209301894552177 0.00289610041002653 0.00288190309502961 -0.00031298665147044
"185" -0.00013716012084091 5.25496469439474e-05 4.04150058457603e-05 0.000322885232572996 0.000296494282177381 0.000753345162085747 3.34494747137143e-05 0.000584167444145635 0.00316780458146501 -0.00459677479402593 -9.77481143656282e-05 0.000767157827031731 0.0020861758886509 0.00279087733173382 0.00299467205875223 -0.000505474678541912
"186" -0.000140759824304532 4.98381142194962e-05 4.16155709674566e-05 0.000320798290479543 0.000294723190800396 0.000743754027737634 2.55169831897551e-05 0.000579877398941894 0.00316023865387569 -0.00428242639524845 -9.38838778368831e-05 0.000731281215560253 0.00207678935770265 0.0026696420632939 0.00309992850738478 -0.000685458533591981
"187" -0.000144387314698438 4.69094013779316e-05 4.29190054552063e-05 0.000318382957200815 0.000293041283510595 0.000733580121911738 1.78198878129653e-05 0.000575480947497164 0.00315770640005644 -0.00395698035052892 -9.01835960791893e-05 0.000690963098154977 0.00206387421565154 0.00253342879669094 0.0031970443445346 -0.000851943030335225
"188" -0.000148031122705167 4.37730622725598e-05 4.43286944935536e-05 0.000315648840357628 0.000291454183429274 0.000722884060111798 1.0364789713221e-05 0.000570992752367043 0.00315970156529455 -0.00362203768631751 -8.66531098165106e-05 0.000646681500195732 0.00204654827100614 0.00238338269091617 0.00328546008065634 -0.0010039983224789
"189" -0.000151680405879702 4.04378203072131e-05 4.58414307321527e-05 0.000312608936545618 0.000289974042895703 0.000711735749625023 3.15611544975025e-06 0.000566428650526214 0.00316566499769331 -0.00327932161009319 -8.33074020999244e-05 0.000599000914780418 0.00202404909400088 0.00222074663173508 0.00336468734726948 -0.00114077793630379
"190" -0.000155324090640818 3.69164417270446e-05 4.74586764639996e-05 0.000309278867844723 0.00028861081554448 0.00070019809370084 -3.80790952848375e-06 0.000561806787080976 0.00317500421846907 -0.00293068562635763 -8.01543099618423e-05 0.000548566952391006 0.00199575813841089 0.0020468590542052 0.0034343203084805 -0.00126151228779666
"191" -0.000158952391407697 3.32235363628577e-05 4.91806821441527e-05 0.000305682228885735 0.000287368540161418 0.000688344630673053 -1.05183125148187e-05 0.000557148120557321 0.00318708992973751 -0.00257809445964919 -7.72030641421964e-05 0.000496096632681481 0.00196120231915815 0.00186312747804465 0.00349403637297732 -0.00136553009245529
"192" -0.000162557463464445 2.93731333167652e-05 5.10051749147873e-05 0.000301834105167963 0.000286257297182408 0.00067623847812314 -1.69841630539164e-05 0.0005524640676871 0.00320127658306916 -0.00222361612863541 -7.44613464751559e-05 0.00044236475225974 0.00192006290914705 0.00167101850940664 0.00354360046104661 -0.00145225305234296
"193" -0.00016613053067736 2.53842259747766e-05 5.29330765098164e-05 0.00029776242498538 0.000285283162935246 0.000663952497348308 -2.32015670507318e-05 0.000547773430185234 0.00321689306798246 -0.00186942299782851 -7.19428067506728e-05 0.000388195751096845 0.00187217790954781 0.001472042528807 0.00358287792184017 -0.00152121270606875
"194" -0.000169662847574638 2.12766483764412e-05 5.49606751694778e-05 0.000293487907775028 0.000284447385131099 0.000651550001198677 -2.91784380465693e-05 0.000543087190071399 0.00323328909859236 -0.001517762569793 -6.96432980792821e-05 0.000334464028900008 0.00181753989391864 0.00126775192431788 0.0036118192977964 -0.00157204941222032
"195" -0.000173148946522338 1.7071481933722e-05 5.7088231689758e-05 0.000289036692608971 0.000283755233025381 0.00063909436960762 -3.49170964063482e-05 0.000538425230161974 0.00324979242388977 -0.00117094912367397 -6.75795777277498e-05 0.000282056721312658 0.00175630618857695 0.00105970511321283 0.00363047693655894 -0.0016045132140535
"196" -0.000176581908119423 1.2788523879803e-05 5.93098821175019e-05 0.000284438097381834 0.000283205059719843 0.00062664888490844 -4.04220830119377e-05 0.00053379554877533 0.00326574313055244 -0.000831349694281143 -6.57539717379742e-05 0.000231891207495292 0.00168878239311207 0.000849474462809012 0.00363900318088321 -0.00161847925047434
"197" -0.000179954055261429 8.45540049304947e-06 6.16271690390882e-05 0.000279719199318469 0.000282797019764497 0.000614272941284466 -4.57002707241121e-05 0.000529215097218678 0.00328049894308881 -0.000501347362472218 -6.4175431422237e-05 0.000184889328196093 0.00161542469568832 0.000638628040157129 0.00363763644756741 -0.00161393918894919
"198" -0.000183259618608734 4.09000859279329e-06 6.40341966416574e-05 0.000274910265133528 0.000282526631727969 0.000602019309953647 -5.07582989571296e-05 0.000524693070834282 0.00329342985571744 -0.000183324764170078 -6.28472651449301e-05 0.000141968690755358 0.00153682357045308 0.000428718509689912 0.00362672210059623 -0.00159101811640703
"199" -0.000186498949692905 -2.8246628385389e-07 6.65268370228137e-05 0.000270039768590475 0.000282392007547974 0.000589940606987434 -5.5603790049806e-05 0.000520236342391875 0.00330392567478474 0.000120370557579354 -6.17805254398336e-05 0.000104038498571581 0.00145369033413892 0.000221273631410706 0.00360668485597158 -0.00154995201591879
"200" -0.000189658981889852 -4.63624330515911e-06 6.91020536677754e-05 0.00026513736151186 0.000282381594880602 0.000578080376895755 -6.02451668013614e-05 0.000515860963178868 0.00331141439174173 0.000407457083243049 -6.09741507476471e-05 7.19819704557468e-05 0.00136686046653241 1.77899202265755e-05 0.00357804855021135 -0.00149110849981676
"201" -0.000192744426233729 -8.94841712760856e-06 7.17544582543628e-05 0.000260237148010033 0.000282490361694202 0.000566484103327223 -6.46826616012473e-05 0.000511571960373201 0.00331533435387372 0.000675748409481795 -6.04365983624799e-05 4.66614074932223e-05 0.00127725575322873 -0.000180284484716879 0.00354141988260661 -0.00141498460535519
"202" -0.000195747070155623 -1.31918129792121e-05 7.44790394141041e-05 0.000255364516514074 0.000282708293643976 0.000555183260368437 -6.89324197736607e-05 0.000507372299549982 0.00331517142417784 0.000923191989161318 -6.01688783427476e-05 2.8898245739189e-05 0.00118588917516337 -0.000371557657384993 0.00349747555910948 -0.00132219439424521
"203" -0.000198663785061593 -1.73441158671901e-05 7.72681287139331e-05 0.000250554963655549 0.00028301915910123 0.000544210574776709 -7.29942804539752e-05 0.000503272414948771 0.00331041838267972 0.00114790572112247 -6.01854594014873e-05 1.94729113387754e-05 0.00109385162395673 -0.000554702300504969 0.00344696311383325 -0.00121347844495814
"204" -0.000201490792283599 -2.13778329638773e-05 8.01210967864121e-05 0.000245838488254285 0.000283414088372661 0.000533595510138622 -7.68704396939404e-05 0.000499280451029008 0.00330063377241605 0.00134820345017012 -6.04898240322743e-05 1.91176438237358e-05 0.00100227463441359 -0.0007284555506253 0.00339070874073284 -0.00108969551873348
"205" -0.000204232743413638 -2.52797919482951e-05 8.30183669646366e-05 0.000241235690766912 0.000283875262764021 0.000523349382236114 -8.05768876747317e-05 0.000495393099977942 0.00328539297214117 0.00152264445200391 -6.10781141358299e-05 2.85125619209318e-05 0.000912323962491484 -0.000891646098430856 0.00332957882906081 -0.000951818936717419
"206" -0.000206881007019128 -2.90179477273441e-05 8.59647054702068e-05 0.000236784494448641 0.000284384000182793 0.000513494135489845 -8.41090344417933e-05 0.00049161492175131 0.00326431602953941 0.00167003750221051 -6.19623199434344e-05 4.82857566595829e-05 0.000825200647057505 -0.00104318687094813 0.0032644989227449 -0.000800946748959183
"207" -0.000209439892263868 -3.25796984872189e-05 8.89418562327561e-05 0.000232504737468483 0.000284922094678197 0.000504035932863026 -8.74740205970867e-05 0.000487947301449709 0.00323706606738756 0.00178948209134793 -6.31487398869544e-05 7.89968335737794e-05 0.000742099416886568 -0.00118209126165333 0.00319642634551404 -0.000638273906890079
"208" -0.000211903310193135 -3.59399203216801e-05 9.19440919604472e-05 0.00022842449874585 0.000285470270227761 0.000494978610270007 -9.06738626076961e-05 0.000484390825338373 0.00320335681631531 0.00188037243168465 -6.46364733414876e-05 0.000121141034829186 0.000664206050648699 -0.00130748251980589 0.00312635187315333 -0.000465106131575629
"209" -0.000214275552779201 -3.90868963790519e-05 9.49583167358674e-05 0.000224567819518043 0.000286008369600291 0.000486322785598865 -9.3710098666611e-05 0.000480945507754696 0.0031629377838375 0.00194242206475231 -6.64363170254336e-05 0.000175141115743598 0.000592684041961462 -0.00141860034145272 0.00305528959893965 -0.000282838901991073
"210" -0.000216555437068657 -4.20033946535103e-05 9.79748129648307e-05 0.000220953841519385 0.0002865127705651 0.00047805886877576 -9.6585926593975e-05 0.000477604683600908 0.0031156269771868 0.00197566858857654 -6.85444613556905e-05 0.000241349940297001 0.000528643103679092 -0.00151479851298466 0.00298425807827464 -9.29532811340684e-05
"211" -0.000218744813590472 -4.46809818294381e-05 0.000100978315183073 0.00021760207914046 0.000286963115789364 0.00047017731133385 -9.93004779843337e-05 0.000474367846042123 0.0030612879563317 0.00198046822313172 -7.09674874273363e-05 0.000320040545638503 0.000473148366152848 -0.0015955708683085 0.00291427151059434 0.000102976884076993
"212" -0.000220843676555147 -4.71053848284662e-05 0.000103958160510452 0.0002145323512405 0.000287338405480545 0.000462664422228062 -0.000101852672502352 0.000471230539925146 0.00299984945181435 0.00195747991233121 -7.37104027609341e-05 0.000411403580639512 0.000427197827123553 -0.00166055012787927 0.00284634641661501 0.000303324808728141
"213" -0.000222854025186727 -4.92692756321426e-05 0.000106900085503977 0.0002117588003807 0.000287611158644518 0.000455504665114074 -0.000104237668405771 0.00046818843232539 0.00293130474242071 0.00190766509991172 -7.67701289097789e-05 0.00051554367884561 0.000391698457733698 -0.00170950598876559 0.00278147040489382 0.00050639513756018
"214" -0.000224776212571685 -5.11715058078808e-05 0.000109785788528511 0.000209293382838617 0.000287762403101414 0.000448672581887426 -0.000106456415250224 0.000465234756729223 0.00285571237321301 0.00183225670204392 -8.01489798222519e-05 0.000632485806530125 0.000367473850339663 -0.00174236749848255 0.00272059968547885 0.000710455743329463
"215" -0.000226614380695634 -5.28067228726612e-05 0.000112600501761664 0.000207145513369742 0.000287771590638868 0.000442147043478494 -0.000108503098484041 0.000462361696481752 0.00277320164323292 0.00173273467886362 -8.38460436300076e-05 0.000762150537921347 0.000355248269909939 -0.00175921540283037 0.00266465609085507 0.000913739234566103
"216" -0.000228368856859214 -5.41764215268609e-05 0.000115328042983665 0.00020532328864641 0.000287612771101758 0.000435899213269291 -0.000110371083502628 0.000459563683957396 0.00268398244551016 0.00161079453400737 -8.78586419718031e-05 0.000904368212328546 0.000355637188982178 -0.00176028386756311 0.00261451017646649 0.00111446542764218
"217" -0.000230043840351397 -5.5285416190895e-05 0.000117950992753327 0.000203833001186859 0.000287271346757414 0.000429907540478848 -0.000112059775679047 0.000456830864733187 0.00258832707162303 0.00146832466828363 -9.21933108149716e-05 0.00105886352518852 0.000369151891639875 -0.00174596789414272 0.00257096693562859 0.00131084922985958
"218" -0.000231644276589224 -5.6138810009702e-05 0.000120452437647614 0.000202673798913401 0.000286729619640617 0.000424139925291684 -0.00011355462962905 0.000454156836010514 0.00248661755159677 0.00130736234826525 -9.68298087306335e-05 0.00122525811514457 0.000396163148527089 -0.00171681108606331 0.00253476474378546 0.0015011286255602
"219" -0.000233167084762435 -5.6749393995773e-05 0.000122810798512696 0.000201848624559176 0.00028596740878454 0.000418569211366387 -0.000114855038462213 0.000451533977929355 0.00237929365184279 0.00113005327086143 -0.000101776071929958 0.00140305900723242 0.000436929875686747 -0.00167351153964334 0.00250656076551764 0.00168357236343058
"220" -0.000234614587850564 -5.71224664399922e-05 0.000125013450998692 0.000201351475031429 0.000284974639586555 0.00041317122304103 -0.000115947983559431 0.00044895020699766 0.00226689822227806 0.000938626936139995 -0.000107022006725004 0.0015916603102364 0.000491575912559597 -0.00161691615288638 0.00248692624736875 0.00185651233821058
"221" -0.000235991639821043 -5.72813312619021e-05 0.000127034184115592 0.00020117828248852 0.000283738682648431 0.00040791455380278 -0.00011682893350731 0.000446398328500615 0.00215006031276773 0.000735357291779643 -0.000112555787000081 0.00179033093779592 0.000560085048241663 -0.00154800280189756 0.00247633806928417 0.00201835499589331
"222" -0.000237299647486224 -5.72404085244572e-05 0.000128862396210181 0.000201318463865544 0.000282249106909902 0.000402777612802317 -0.000117482764680108 0.000443869188413052 0.00202949445533489 0.000522531315979567 -0.000118367194397192 0.00199821322607585 0.000642307476722677 -0.00146788045533909 0.00247517193587173 0.00216760414883322
"223" -0.000238537539798321 -5.70170010677254e-05 0.000130477718062192 0.000201765552309515 0.000280504659795224 0.000397740891279693 -0.000117900122605458 0.000441358825905373 0.00190598490217293 0.000302427345758873 -0.000124450512653382 0.00221432228795952 0.000737960420597354 -0.00137777427507499 0.00248368350457458 0.00230288479154676
"224" -0.000239706431018118 -5.66382573325887e-05 0.000131859367471984 0.000202497505567965 0.000278497608205909 0.000392776046519565 -0.000118077540101443 0.00043884741919768 0.00178041976350932 7.72873493669147e-05 -0.000130783618857788 0.00243753961727523 0.000846610079416074 -0.00127901085078506 0.00250201547830394 0.00242296694103435
"225" -0.000240804936260179 -5.61275565763828e-05 0.000132992243350812 0.000203507222888853 0.000276231342406545 0.000387875183967833 -0.000117993897795318 0.000436338543159912 0.00165373993925377 -0.000150715174874936 -0.0001373587433372 0.00266661759995352 0.00096770502670645 -0.00117300391984721 0.00253018586173062 0.00252677371652465
"226" -0.000241834952416569 -5.55095708918847e-05 0.000133860421455042 0.000204771868628824 0.000273713387156555 0.00038302260379969 -0.000117641988184056 0.000433817486910505 0.00152696085626949 -0.000379480494435869 -0.000144152924399122 0.00290017259536465 0.00110053725781584 -0.00106123274441039 0.00256808069897721 0.00261340466877926
"227" -0.00024279345511998 -5.48180449718688e-05 0.000134451725975199 0.00020627136253928 0.000270949191904087 0.000378207349766006 -0.000117011695854023 0.000431273917400968 0.00140113186322542 -0.00060700990131594 -0.0001511537330187 0.00313669090435081 0.00124427458149359 -0.000945228003014361 0.0026154606512741 0.00268214680440545
"228" -0.00024367258568118 -5.40772760094998e-05 0.000134749311588195 0.00020798894470223 0.000267953842619527 0.000373430954386345 -0.000116090166477733 0.000428709697626844 0.00127734743749175 -0.000831409426091981 -0.000158340362054856 0.00337453147422932 0.00139796356325233 -0.000826553390078505 0.00267194828418526 0.0027324872743639
"229" -0.000244469728358453 -5.33178191141527e-05 0.000134743470315186 0.000209895860505447 0.000264741798862688 0.000368688353360687 -0.000114864586982556 0.000426112409439127 0.0011567164500516 -0.00105089977342601 -0.000165689832983636 0.0036119312163578 0.00156051891219125 -0.000706775902359705 0.00273703762858573 0.00276413467676116
"230" -0.000245181190502869 -5.25776071485418e-05 0.000134425067606108 0.000211969228132304 0.000261334536281845 0.000363986808217578 -0.000113324950590459 0.000423479668692792 0.00104034641417237 -0.00126382533092184 -0.000173184417481492 0.00384702159417826 0.00173074591616469 -0.000587456065998429 0.0028100886630189 0.00277700203016004
"231" -0.000245799146350696 -5.18832867064898e-05 0.000133782244881141 0.000214181720257016 0.000257751070746813 0.000359337420612541 -0.000111459755765914 0.000420805797507199 0.000929320272802384 -0.00146865719418535 -0.000180798639961498 0.00407784101539223 0.00190733823917587 -0.00047011478994453 0.00289032699708637 0.00277123542258213
"232" -0.000246316825722567 -5.12747921081741e-05 0.000132812821315407 0.000216504570575023 0.000254025989459328 0.000354750109588624 -0.000109263546117453 0.000418079331879147 0.000824679511468567 -0.00166400355686366 -0.000188509098540449 0.00430235249367774 0.00208889070973791 -0.000356234263286772 0.00297685242687556 0.00274718743397923
"233" -0.00024671757730511 -5.07748149307469e-05 0.000131511884061628 0.000218913691466332 0.000250187159421947 0.000350248156964699 -0.00010671914485908 0.000415307002600778 0.000727386424951769 -0.00184860078898051 -0.000196296391368244 0.00451846812135664 0.0022739157136915 -0.000247223774489154 0.00306864996510875 0.00270542900777934
"234" -0.000246995600727066 -5.04214797279204e-05 0.000129881155754135 0.000221378416708 0.000246268605234683 0.000345854755760553 -0.000103823691945643 0.000412482833183451 0.000638339530403471 -0.00202132476197043 -0.000204132256084374 0.00472407458080928 0.00246084389436623 -0.000144402111733226 0.00316458832371721 0.00264672881437738
"235" -0.000247140300169567 -5.02454356603822e-05 0.00012792019567923 0.000223868149541263 0.000242311245593946 0.000341599072068216 -0.000100565918614934 0.000409601734482097 0.000558302877113395 -0.00218118948441896 -0.00021199753316916 0.00491706755918779 0.00264804434594984 -4.89946710251318e-05 0.00326342912647643 0.00257205942108722
"236" -0.000247132991782606 -5.02763900695934e-05 0.000125633865099311 0.000226352971691695 0.000238347236231117 0.000337507321407461 -9.69470975149029e-05 0.000406661583125652 0.00048793070960035 -0.00232733743640546 -0.000219866583177052 0.00509538684632611 0.00283383919152437 3.7893732827183e-05 0.0033638594079776 0.00248256212404265
"237" -0.000246958923924778 -5.05382425735861e-05 0.000123034247749727 0.000228805715499952 0.000234428195164872 0.000333622849171756 -9.29510786703314e-05 0.000403665528407754 0.000427732367710129 -0.00245904942265558 -0.000227715015307259 0.00525706656580324 0.00301652467814412 0.000115277967661205 0.00346447238954693 0.00237953317815068
"238" -0.000246604457175544 -5.10629498424467e-05 0.000120131126548596 0.000231198555992392 0.000230593032261103 0.00032997948449731 -8.85828464059723e-05 0.000400613543733899 0.000378067435886956 -0.00257573328242957 -0.000235523282530269 0.00540025399795956 0.00319436811819676 0.00018231553622445 0.00356381879359497 0.00226441993207223
"239" -0.000246051103991486 -5.18738957142107e-05 0.000116934351149152 0.000233499091675988 0.000226886474541294 0.000326616864672294 -8.38425741441512e-05 0.000397502508683454 0.00033913540403389 -0.0026769269523557 -0.00024327055564573 0.00552327333309405 0.00336564581340463 0.000238300561899812 0.00366039921364883 0.00213878148669276
"240" -0.000245285862424082 -5.29939320500903e-05 0.000113464734321835 0.000235679035259634 0.000223356289813898 0.000323577070621893 -7.87293102213948e-05 0.000394331008859154 0.000310989026685455 -0.00276229129890756 -0.000250936766182309 0.00562464961680923 0.00352865460914254 0.00028267715915989 0.00375268631572729 0.00200427058035343
"241" -0.000244282372471524 -5.4435122037988e-05 0.000109741674707374 0.000237717841593129 0.000220049605244902 0.000320908737633404 -7.32449539609915e-05 0.000391105907307947 0.000293521545603505 -0.00283161427769001 -0.000258505488941053 0.00570316019838022 0.00368173297121349 0.000315038617432445 0.00383915237580295 0.00186260862621193
"242" -0.000243028264747853 -5.62237816108275e-05 0.000105787571091595 0.000239583611280477 0.000217010449538217 0.000318650667662447 -6.73981789431038e-05 0.000387825469831211 0.000286478653188454 -0.00288480696044712 -0.000265957088819988 0.00575785972748641 0.00382327503362505 0.000335126237055607 0.00391828427510749 0.00171556835224789
"243" -0.000241503313611481 -5.83677903025258e-05 0.000101630002419286 0.000241253874648023 0.000214289188343527 0.000316850192160421 -6.12007572695966e-05 0.000384493273600626 0.000289484499141603 -0.00292190838215599 -0.000273278164447818 0.00578811211873594 0.00395176962747102 0.000342831429588445 0.00398861185465474 0.00156493677734402
"244" -0.00023969040640672 -6.08795155997197e-05 9.7295108766594e-05 0.000242707546811812 0.000211925426971657 0.000315547247784124 -5.46605145337996e-05 0.000381105635191972 0.000302036893752964 -0.00294309117722187 -0.000280453192202081 0.00579360337240332 0.00406579605808629 0.000338188358239065 0.00404870730098897 0.00141250724672502
"245" -0.000237573598983409 -6.37663839128861e-05 9.28130716933766e-05 0.000243919070578326 0.000209958788334302 0.000314781916371485 -4.77993986028151e-05 0.000377663957706918 0.000323537649744715 -0.00294864536953816 -0.000287467275151115 0.00577436587137154 0.00416404572889119 0.000321371226986343 0.00409723042488355 0.00126004593857827
"246" -0.000235137260416586 -6.70291667404175e-05 8.82170592589813e-05 0.000244872907901312 0.000208432719832305 0.000314597087530678 -4.06335345938859e-05 0.000374173818175296 0.000353280515636454 -0.00293899259812978 -0.000294318314058928 0.00573075662223138 0.00424536936172813 0.000292677183737912 0.00413293954723932 0.00110928060039341
"247" -0.000232362341653159 -7.06680011912394e-05 8.35428090233306e-05 0.00024555274038324 0.000207384613306896 0.000315023448594935 -3.31821712878958e-05 0.00037063898357865 0.000390508100726064 -0.00291467493501901 -0.000300994232061483 0.00566347190968299 0.00430876118771439 0.000252534665766516 0.00415470230346001 0.000961866694742238
"248" -0.00022924213310756 -7.4681994645948e-05 7.88244938566342e-05 0.000245938958489803 0.000206839124961879 0.000316093425145371 -2.54760418173778e-05 0.000367048893946044 0.000434421114358304 -0.00287635662628044 -0.000307483270188173 0.00557350580467751 0.0043533751719691 0.000201490185478851 0.00416152731902369 0.000819386679222725
"249" -0.000225762768419194 -7.90646182449312e-05 7.40989350667723e-05 0.000246019095450565 0.000206827364220986 0.000317834682893472 -1.75477777697207e-05 0.000363410604543469 0.000484156452134837 -0.00282482964958465 -0.000313787781806821 0.00546213505878051 0.00437856444297669 0.000140182774115217 0.00415255545236438 0.000683312214624871
"250" -0.000221916636375742 -8.38041152325044e-05 6.94031104481616e-05 0.000245784037180479 0.000207374450424492 0.000320267654110537 -9.42875251167197e-06 0.000359720835789104 0.000538858541270908 -0.00276099372486411 -0.000319896602802998 0.00533088815327293 0.00438386025170978 6.93528583040619e-05 0.00412709646867953 0.000555011862763102
"251" -0.000217699499710044 -8.88883112496414e-05 6.47736551145899e-05 0.000245220963114145 0.000208497019046713 0.000323406111290484 -1.15829765118482e-06 0.000355980229210942 0.000597643582263918 -0.00268586884670238 -0.000325813204847419 0.00518148893401212 0.00436898403434643 -1.01832406188627e-05 0.00408463083107704 0.000435720508122472
"252" -0.000213111202990609 -9.43015079918842e-05 6.02504893364942e-05 0.000244326306405552 0.000210201207318215 0.000327262637501639 7.22224720069299e-06 0.000352184008161963 0.000659643362814467 -0.00260057670411901 -0.000331531202381136 0.00501583198523768 0.00433386599905688 -9.75330838792523e-05 0.00402480566161267 0.000326535326731739
"253" -0.00020815302850692 -0.000100028685376095 5.58698466442033e-05 0.000243090474572562 0.000212497199514548 0.000331834326849814 1.56653941837584e-05 0.000348326262913028 0.000723984860407083 -0.0025063268402088 -0.000337049685204824 0.0048359363979007 0.0042786261304537 -0.00019174620250126 0.00394744653421841 0.00022839698508567
"254" -0.0002028301795363 -0.000106042270375808 5.16647209920733e-05 0.000241513636320982 0.000215381966467561 0.000337120046077852 2.41206641786571e-05 0.000344410707766618 0.000789819790483203 -0.0024044152601055 -0.000342372612609525 0.00464388529450249 0.00420359732251185 -0.000291822977232027 0.00385256874127525 0.000142097912107438
"255" -0.000197151458647396 -0.000112325362128787 4.76714845001386e-05 0.000239591683544817 0.000218848907605498 0.000343110795415321 3.25350387030633e-05 0.000340426224026351 0.000856311290804592 -0.00229619743192619 -0.000347495084349613 0.0044418035130953 0.00410928900278834 -0.000396728036845168 0.00374036386708429 6.82559896573051e-05
"256" -0.00019113504960778 -0.000118850229456563 4.39197494641127e-05 0.00023732713872481 0.00022287984847677 0.000349780477481946 4.08492999823596e-05 0.000336367244364388 0.000922636591754007 -0.00218308026790371 -0.00035241551757489 0.0042318111051076 0.00399640124676086 -0.000505390756337894 0.00361120066059631 7.33231744708602e-06
"257" -0.000184798029666509 -0.000125590191980316 4.04435147813446e-05 0.000234722813068569 0.000227457234884955 0.00035710808879619 4.90057011173013e-05 0.000332229835380345 0.000987987350689406 -0.00206648643234795 -0.000357136920615808 0.00401599497407602 0.00386579256072312 -0.000616728013415383 0.0034656108150978 -4.03840484237444e-05
"258" -0.00017816609689629 -0.000132517647543694 3.7266872350004e-05 0.000231780874006581 0.000232553942417131 0.000365057647311979 5.69371340142232e-05 0.00032800518176367 0.00105158226569605 -0.00194784308216174 -0.000361651101341663 0.00379636998587714 0.00371847873757617 -0.00072964332835572 0.00330428835950538 -7.47649696081979e-05
"259" -0.000171267452164286 -0.00013960407281116 3.44141590261473e-05 0.000228504439437676 0.000238127992821298 0.000373586406505031 6.4577986899361e-05 0.000323679904938013 0.00111262307148161 -0.00182854920589585 -0.000365956597122604 0.00357486713838894 0.00355560576040703 -0.000843041441988555 0.0031280755764955 -9.58579699912951e-05
"260" -0.000164135713326824 -0.000146819955674918 3.19041014304207e-05 0.000224905178816719 0.000244145045314706 0.000382650296224515 7.1861805751551e-05 0.00031925572476295 0.00117032814552419 -0.00170996367650912 -0.000370049368593429 0.00335330443667507 0.00337845200505277 -0.000955837589822703 0.00293795021836338 -0.000103864165977965
"261" -0.000156807359453177 -0.000154134002822172 2.975457204334e-05 0.000220991575188792 0.000250556144067638 0.000392194278170655 7.87166571646498e-05 0.00031471725100066 0.00122391141415236 -0.001593360995735 -0.000373923332732828 0.00313337316008806 0.00318839458959486 -0.00106695162081405 0.00273501960515093 -9.91440652224503e-05
"262" -0.00014933283317153 -0.000161518513036928 2.79802009019296e-05 0.000216772100379907 0.000257308528100288 0.00040215913285853 8.506811934583e-05 0.000310059394648543 0.00127256434599217 -0.00147991834520022 -0.000377568203101007 0.0029166241901724 0.00298687081265944 -0.00117533644594766 0.00252049347231731 -8.2206289416814e-05
"263" -0.000141751622940764 -0.000168943988130775 2.65877920251659e-05 0.000212254537535981 0.000264342316875724 0.000412474942342826 9.08447127069692e-05 0.000305266399863684 0.00131547256239063 -0.00137068821684652 -0.000380967598718621 0.00270447323676078 0.00277539501930841 -0.00127996812971722 0.00229569695525019 -5.36976025362102e-05
"264" -0.000134122480856613 -0.000176376442965944 2.55791172260276e-05 0.000207457054758031 0.000271596282167779 0.000423076972088081 9.5972180891608e-05 0.000300335896875796 0.00135178423573527 -0.0012665913700995 -0.000384113724746532 0.00249818505687536 0.00255551859866946 -0.00137987021815941 0.00206201471647983 -1.4393955890466e-05
"265" -0.000126497926974327 -0.000183788236483203 2.49594481677768e-05 0.000202389995037622 0.000279004190031444 0.000433893919615428 0.000100380949710252 0.000295260260823271 0.00138062581842247 -0.00116838637643045 -0.000386987978130869 0.00229888703282039 0.00232880476590204 -0.00147410514134797 0.00182090617697195 3.4810799389794e-05
"266" -0.000118943384090186 -0.000191151852013709 2.47196052012201e-05 0.000197069352283168 0.000286494705505138 0.000444844106236557 0.000103996506642587 0.000290030203614379 0.00140107971372374 -0.00107666121085894 -0.000389567467172915 0.00210755312383094 0.0020968306643378 -0.00156179004439845 0.00157388609349594 9.29160852229149e-05
"267" -0.00011151767983686 -0.000198445266036775 2.48475432096362e-05 0.000191505868234934 0.000293998442178992 0.000455849175082045 0.000106745856179798 0.000284636422702746 0.00141220309433214 -0.000991833404595362 -0.000391830435484747 0.00192501957898769 0.00186114716302015 -0.00164210422828671 0.00132250089883002 0.00015883576750791
"268" -0.000104285170089343 -0.000205633547909042 2.53364739111354e-05 0.000185720695035302 0.000301439255074732 0.000466831441425252 0.000108569485300956 0.000279081185530444 0.00141299713154616 -0.000914132516369987 -0.00039375337828412 0.00175198253113766 0.00162328637458775 -0.00171428841281558 0.00106832629874113 0.000231396965706126
"269" -9.73180147959272e-05 -0.000212695930303703 2.61645632171845e-05 0.000179727782414933 0.000308742004666744 0.000477708898575591 0.000109394736737853 0.000273357460129942 0.00140244524766733 -0.000843604363882613 -0.000395299707005278 0.00158900410648472 0.0013847149894048 -0.00177765924044546 0.000812944438610009 0.000309364791515236
"270" -9.06843883571464e-05 -0.00021961047875522 2.73126219394326e-05 0.000173547735684901 0.000315838241135907 0.000488407158827894 0.000109171136532038 0.000267465476238797 0.00137948137564699 -0.00078012376336151 -0.000396443365206294 0.00143652808202401 0.00114685540859344 -0.00183161886983996 0.000557939337169992 0.00039145728189206
"271" -8.44540319369661e-05 -0.000226350542301644 2.87492569974365e-05 0.000167197982807131 0.000322650610801911 0.000498844626232309 0.000107835912236865 0.000261404854942041 0.00134303304004528 -0.000723396262412876 -0.000397145340884436 0.00129487350899379 0.000911047599528949 -0.00187565415716458 0.000304884000633148 0.000476359040177954
"272" -7.86991705451257e-05 -0.00023290350977992 3.04468639240561e-05 0.000160694698798028 0.000329110894693598 0.000508944810771931 0.000105340260686323 0.000255177132660337 0.00129201996892071 -0.000672973615905327 -0.000397363818000529 0.00116425251567019 0.000678547352591627 -0.00190934432246747 5.53280023465033e-05 0.000562741992132657
"273" -7.34896568172782e-05 -0.000239245530657692 3.2373040182228e-05 0.000154058653836175 0.000335148120554487 0.000518636823708837 0.000101641042154642 0.000248790040467958 0.00122536662104402 -0.00062827112822286 -0.000397058973534152 0.00104477098772532 0.000450518549086393 -0.00193237792665245 -0.00018921131496492 0.000649275120545109
"274" -6.88906326237144e-05 -0.000245360762079169 3.44946720961406e-05 0.000147310960389824 0.000340703780987368 0.000527856335916118 9.67035255367072e-05 0.000242251561151306 0.00114204482052741 -0.000588585240368421 -0.000396181012863522 0.000936435940151841 0.000228024954782456 -0.00194454084079115 -0.000427255397734286 0.000734648938681841
"275" -6.49749361227692e-05 -0.000251237916723052 3.67675148238658e-05 0.000140468390033276 0.0003457171310561 0.000536534792304596 9.04966119993741e-05 0.000235566895590157 0.00104108375475299 -0.000553105760440647 -0.000394689664195294 0.000839157488411257 1.202344946914e-05 -0.00194574358208559 -0.000657389846425017 0.000817584556617867
"276" -6.18003370067166e-05 -0.00025685797288079 3.91519889213375e-05 0.000133554737073353 0.00035013403711602 0.000544621937418763 8.30008972267502e-05 0.000228756721419271 0.000921623365037113 -0.000520961483770815 -0.000392535394091333 0.000752766076764115 -0.000196643427350519 -0.00193600587838106 -0.000878258170935424 0.000896848890497888
"277" -5.94308857155677e-05 -0.000262219478772464 4.16093455800851e-05 0.0001265878473933 0.000353911803605181 0.00055205969438929 7.42043585771288e-05 0.000221830373252989 0.000782965645894961 -0.000491208100095308 -0.000389661218325824 0.000677006258624453 -0.000397247209385524 -0.00191546447642481 -0.00108856717193248 0.000971274367721026
"278" -5.79192090036372e-05 -0.000267304568435447 4.40919292605871e-05 0.000119589916184775 0.000357009025802334 0.000558812676401528 6.41082481517586e-05 0.000214810800711173 0.000624603046983829 -0.00046287090255413 -0.000386022765285765 0.000611545658780763 -0.000589168201305676 -0.00188439046461807 -0.0012871112655966 0.00103976815603605
"279" -5.73190144871716e-05 -0.000272110689992069 4.65542831517169e-05 0.000112579452930492 0.000359393816634063 0.000564837317617113 5.27129614349027e-05 0.000207713678925899 0.000446293021451612 -0.000434949655677818 -0.000381565796919762 0.000555981321454623 -0.000771922088065489 -0.00184316422440275 -0.00147277897052808 0.00110132954177495
"280" -5.76727660911824e-05 -0.000276638458257492 4.89537205947408e-05 0.000105574434023515 0.000361047810236667 0.000570107086426338 4.00367593456162e-05 0.000200564144122178 0.000248091190856364 -0.000406450848289169 -0.000376239911564923 0.000509844455887693 -0.000945121535624086 -0.00179229374964383 -0.00164455142941419 0.00115505767386128
"281" -5.90152416541241e-05 -0.000280875724600549 5.12471567686657e-05 9.86009801707991e-05 0.000361951491901748 0.000574603003800937 2.61142316319055e-05 0.00019338683257098 3.04258304874296e-05 -0.000376398158998182 -0.000369999978269805 0.000472607164733057 -0.00110850689422594 -0.00173239650588097 -0.00180153113284732 0.00120016228096664
"282" -6.13804103940774e-05 -0.000284830183737292 5.3388950603235e-05 9.16695827983946e-05 0.000362104409323088 0.000578308834223212 1.0977588738011e-05 0.000186208349984666 -0.000205864204817585 -0.0003438491561946 -0.000362797020143566 0.000443688149811925 -0.00126193449098175 -0.00166420275135375 -0.00194294293994525 0.00123598130248635
"283" -6.4790363707266e-05 -0.000288499316577818 5.53390007186942e-05 8.48027404564705e-05 0.000361509641047661 0.00058122143283017 -5.32384902457884e-06 0.000179056337839628 -0.000459486182095994 -0.0003079111692499 -0.000354584710935171 0.00042245323199273 -0.00140536747222042 -0.00158854358225808 -0.00206813868811284 0.00126197720843338
"284" -6.92538973755592e-05 -0.00029189204098451 5.70555498076062e-05 7.80161194331497e-05 0.000360182814647599 0.000583341476587349 -2.27311872128844e-05 0.000171958165317214 -0.000728676029091867 -0.000267750105706167 -0.000345325165211372 0.000408231180672159 -0.00153886330489931 -0.00150634773930046 -0.00217661907529124 0.00127774627738038
"285" -7.47840503841749e-05 -0.000295010601976398 5.85003731686034e-05 7.13253164897905e-05 0.000358143971691859 0.000584677787266884 -4.11765634870384e-05 0.000164945514962873 -0.00101118165325776 -0.000222613068756997 -0.000334984894216734 0.000400309669996825 -0.00166259403467574 -0.00141861478073905 -0.00226803779519122 0.00128303114089546
"286" -8.13700187521552e-05 -0.000297866148589343 5.96403577896928e-05 6.47456653973665e-05 0.000355429696682229 0.000585247526615642 -6.05780390577388e-05 0.000158048510996179 -0.00130428137979554 -0.000171826669114129 -0.000323533787902924 0.000397951128989777 -0.00177681722335236 -0.0013264119367913 -0.00234220316396944 0.00127770667090083
"287" -8.89997585806176e-05 -0.0003004643738013 6.04433300704061e-05 5.8292309736928e-05 0.000352079007127319 0.000585077330383317 -8.08464658433334e-05 0.000151298258658527 -0.00160482830240102 -0.000114820515248852 -0.000310948718695654 0.000400400608199147 -0.00188187266931061 -0.00123086025112537 -0.00239909939899664 0.00126179478063447
"288" -9.76527256429092e-05 -0.000302823077931484 6.08854398382161e-05 5.19732535781102e-05 0.000348141384103305 0.000584192453272138 -0.000101889138444912 0.000144725895939421 -0.00190932064743598 -5.11113831570783e-05 -0.000297211836299592 0.000406882303744477 -0.00197817741782682 -0.00113310911558503 -0.00243887802347666 0.00123544251684351
"289" -0.000107295162336454 -0.000304957311934039 6.09393103057332e-05 4.57989766455092e-05 0.000343678138018472 0.000582630194278105 -0.000123596484891742 0.000138355447051076 -0.00221399457256541 1.9671768164811e-05 -0.000282313909694208 0.000416616403258651 -0.00206622354488758 -0.00103432811392746 -0.00246187009891128 0.00119893660172497
"290" -0.000117876368166863 -0.000306874182378916 6.05899610673591e-05 3.97823903870671e-05 0.000338753076230655 0.000580431687026096 -0.000145853960303076 0.000132221937565273 -0.00251495151987949 9.77951139716278e-05 -0.000266261058741269 0.000428824793150399 -0.00214654654855836 -0.000935685903605498 -0.00246858164601477 0.00115267710605341
"291" -0.000129354634621021 -0.000308598799411158 5.98270056975793e-05 3.39254971540857e-05 0.000333437717648147 0.000577640258658441 -0.00016854540317616 0.000126350155515828 -0.00280830044080746 0.000183415010268433 -0.000249062602509456 0.000442742630505415 -0.00221973574362195 -0.000838330397358467 -0.00245969848895242 0.00109719315768762
"292" -0.000141664084380752 -0.000310147718358895 5.86427390528868e-05 2.82364151831136e-05 0.000327812888348471 0.000574305066012339 -0.000191545917261078 0.000120764004141294 -0.00309029735014475 0.000276577233254736 -0.000230739706879505 0.000457623134035214 -0.00228642358999437 -0.000743372794086878 -0.00243607541170981 0.00103310777466803
"293" -0.000154735931050432 -0.000311537885032967 5.7033696137033e-05 2.27187815843677e-05 0.000321956974053209 0.000570476466616578 -0.000214720791401116 0.000115485759572262 -0.00335748823700447 0.000377221390016709 -0.000211320095787727 0.000472749357794582 -0.00234726098564061 -0.00065187265829915 -0.00239872183539245 0.000961142511053465
"294" -0.00016848362619332 -0.000312787038456836 5.50128916382552e-05 1.73732350767046e-05 0.000315962849631666 0.000566214051926688 -0.000237936046661855 0.000110536591061389 -0.00360685862553523 0.000485168761658139 -0.000190850917915699 0.000487444257216718 -0.00240292281400982 -0.000564822109747786 -0.00234880356169416 0.000882099576614456
"295" -0.000182832574807439 -0.000313920970196701 5.25851574502703e-05 1.22013006563561e-05 0.000309918375299543 0.000561563358290758 -0.000261061367168293 0.00010593405545861 -0.00383591443233058 0.000600141418533645 -0.000169385492361186 0.000501073331676198 -0.00245408657172713 -0.000483130632914042 -0.00228762662498301 0.000796845961171892
"296" -0.000197680193225167 -0.000314953987782472 4.97707147545393e-05 7.20274490114241e-06 0.000303914596113852 0.000556590887798824 -0.000283953648880469 0.00010169533898093 -0.00404275282284799 0.000721751764551096 -0.000146989432498133 0.000513059029246025 -0.00250140876815342 -0.000407617296283586 -0.00221660845741928 0.0007063057218066
"297" -0.000212932694879148 -0.000315907977963774 4.6594588404892e-05 2.37399607452029e-06 0.000298041704550283 0.00055134519310708 -0.000306480532920392 9.78231341398686e-05 -0.00422609024963484 0.000849517261160973 -0.000123736865490051 0.000522876176946249 -0.00254555212124306 -0.000338992458952212 -0.00213726829498763 0.000611448589380579
"298" -0.000228481316783945 -0.000316805884439741 4.30896077540137e-05 -2.29290636610392e-06 0.000292393193600059 0.000545881813358257 -0.000328506754632795 9.43292570394603e-05 -0.0043852642002005 0.000982849883421567 -9.97180164268092e-05 0.00053006916590451 -0.00258714381790228 -0.000277860244207378 -0.00205120040252521 0.000513258429219841
"299" -0.00024422612672909 -0.000317664862311914 3.92844735930824e-05 -6.80020085402929e-06 0.000287054188568064 0.000540254225882299 -0.000349905796641168 9.12136156373906e-05 -0.004520182888174 0.00112108196418327 -7.50270226907049e-05 0.000534244107964931 -0.00262677813357778 -0.000224708067849167 -0.00196004685095784 0.000412740266053343
"300" -0.000260050496581308 -0.000318497491736706 3.52311849539236e-05 -1.11509648960883e-05 0.0002821167543847 0.000534515756021834 -0.000370544986774037 8.84790089743788e-05 -0.00463126734021012 0.00126345343799652 -4.97816490997216e-05 0.000535074310312691 -0.00266500368960659 -0.000179909341840544 -0.00186548232097788 0.00031088744041541
"301" -0.000275843917556781 -0.000319328413622964 3.09658366236764e-05 -1.53592717907529e-05 0.000277661671831062 0.000528709998902679 -0.000390310994715553 8.6115817774603e-05 -0.0047193590129155 0.00140913255016271 -2.4097885253418e-05 0.000532299948683485 -0.00270232897002334 -0.000143716787742731 -0.00176917964570193 0.000208683624535293
"302" -0.00029149313440789 -0.000320169823046463 2.65507707973174e-05 -1.94278670458861e-05 0.000273758057480106 0.000522882666091764 -0.00040908915905677 8.41128173338576e-05 -0.00478561954972001 0.00155721539862209 1.89284842193004e-06 0.000525722371939851 -0.00273919548343329 -0.000116265699962867 -0.00167277759820667 0.000107084209252052
"303" -0.000306890455084969 -0.000321036187246086 2.20302065401697e-05 -2.33728252381463e-05 0.000270481781811826 0.000517070966691319 -0.000426781472878037 8.24584370520395e-05 -0.00483144043517477 0.00170674629057783 2.80533314133909e-05 0.000515212971231885 -0.00277598315242001 -9.75773112144493e-05 -0.00157786075834167 6.99737682007457e-06
"304" -0.000321924538959454 -0.000321938326074175 1.74723261133619e-05 -2.7197567632889e-05 0.000267887508070791 0.000511311383803387 -0.000443291435638541 8.11284962603413e-05 -0.00485837108757155 0.0018567175257831 5.42369070513318e-05 0.000500692839424738 -0.00281299687662895 -8.75664668758641e-05 -0.00148593945178022 -9.07178977154996e-05
"305" -0.000336497133093936 -0.000322894250476743 1.29291594528352e-05 -3.09185641287502e-05 0.000266028628848632 0.000505625006937718 -0.000458550504748397 8.0098736410593e-05 -0.00486801144603306 0.00200609963570429 8.02903919430948e-05 0.000482138890090381 -0.00285048970219037 -8.6038543773055e-05 -0.00139842160144778 -0.000185263865812844
"306" -0.000350503592240041 -0.00032390696690106 8.46823340370504e-06 -3.45474070593792e-05 0.00026494638307396 0.000500037962160476 -0.000472481952650684 7.93411895606217e-05 -0.00486199205330548 0.00215383650223979 0.000106051789694601 0.000459575558956368 -0.00288862186349073 -9.27093123260481e-05 -0.00131658745898448 -0.000275911450727386
"307" -0.000363860934869924 -0.000324992815157546 4.15191151797313e-06 -3.80941058504676e-05 0.000264670225770582 0.000494561752694337 -0.00048504676180827 7.88191935842065e-05 -0.00484188805998085 0.00229886967387099 0.000131355857949605 0.000433070957250633 -0.00292749747821191 -0.000107199119249631 -0.0012415912904253 -0.000362010600168639
"308" -0.000376481751753702 -0.000326154849431768 3.85213474805422e-08 -4.15743322903645e-05 0.000265213972609158 0.000489205153999651 -0.000496203708416653 7.84937244502649e-05 -0.00480919922794797 0.00244014907958664 0.000156030978253869 0.000402724075853513 -0.00296713259816498 -0.000129054469395006 -0.00117441987645984 -0.000442996647604075
"309" -0.000388290952015022 -0.0003274011691987 -3.81176885687289e-06 -4.50035669329247e-05 0.000266588503043315 0.000483967570059989 -0.000505933328261881 7.83224605545439e-05 -0.00476532642281828 0.00257664294622165 0.000179903650845747 0.000368664550451302 -0.00300748081252172 -0.00015774432525958 -0.00111590307294953 -0.000518388617086165
"310" -0.000399230838595247 -0.000328737693522866 -7.33709664328175e-06 -4.83924301153144e-05 0.000268781504664027 0.000478837823165993 -0.000514235395398844 7.82523358079666e-05 -0.00471153884584133 0.00270736958411478 0.000202806764875806 0.000331048558269956 -0.00304842512003329 -0.000192678490549142 -0.00106670462644169 -0.000587795558846623
"311" -0.000409250983492347 -0.000330177015772281 -1.04881752047276e-05 -5.17596994429339e-05 0.000271769647964101 0.000473800668084813 -0.000521130986185839 7.82298659960345e-05 -0.00464901073658042 0.00283140041022425 0.000224553315464788 0.000290049883021362 -0.00308978231103527 -0.000233216401108158 -0.0010273146247169 -0.000650923203523666
"312" -0.000418311766837576 -0.00033171964620135 -1.32121225705514e-05 -5.51234718432487e-05 0.000275519104928757 0.000468829611959512 -0.000526652269879947 7.82019810372959e-05 -0.00457876122970862 0.00294787299865922 0.000244973635265673 0.000245853176598174 -0.00313130834200888 -0.000278671855586551 -0.000998038354170109 -0.00070756479898412
"313" -0.000426391185418451 -0.000333376257472651 -1.54702239239464e-05 -5.85007743484241e-05 0.00027998082045576 0.000463897436615541 -0.000530849142087971 7.8102902541859e-05 -0.00450169208331744 0.00305601026204993 0.000263893925728864 0.000198660794905183 -0.00317271220700922 -0.00032832058745716 -0.000979015313624052 -0.000757610180537117
"314" -0.000433476192071089 -0.000335150837227222 -1.72187076098645e-05 -6.19048087729389e-05 0.000285090148883934 0.000458961064449468 -0.000533794408523645 7.78721933225985e-05 -0.00441858358522482 0.00315513255106477 0.000281139554660069 0.000148671931046814 -0.0032136521803357 -0.000381409570893925 -0.000970212010005805 -0.000801039396380996
"315" -0.000439575087001574 -0.000337055024471366 -1.84346826474774e-05 -6.53633137056452e-05 0.000290770556081619 0.000453970980724214 -0.000535576363055727 7.74403598441758e-05 -0.00433009647990747 0.00324467032933224 0.000296544640014231 9.60949001911992e-05 -0.00325374905636271 -0.000437169962948322 -0.000971430029132219 -0.000837916610344884
"316" -0.000444706428999664 -0.000339094217649549 -1.90953606521804e-05 -6.88869911059946e-05 0.00029693380151091 0.00044887996023468 -0.000536299391345368 7.67396377544725e-05 -0.00423677863749547 0.00332416761785843 0.00030994116663703 4.11392488492516e-05 -0.00329259357278635 -0.000494811358374638 -0.000982323267718878 -0.000868389386619312
"317" -0.000448903919564895 -0.000341282297901241 -1.91859018311203e-05 -7.25034445850103e-05 0.000303478725845829 0.000443627684849666 -0.000536084056781445 7.56977302789142e-05 -0.0041390627369534 0.00339329301774984 0.00032117618169505 -1.59865467622898e-05 -0.00332975284236932 -0.000553542286438639 -0.00100240652995223 -0.000892686587994618
"318" -0.000452217263104986 -0.000343632064111072 -1.87030611286786e-05 -7.62310759730255e-05 0.000310294077544626 0.000438151968845689 -0.000535065406241343 7.42476696997223e-05 -0.00403728517378158 0.00345184116556507 0.000330093811448442 -7.50814837306586e-05 -0.00336477890403063 -0.000612572588565819 -0.00103106015439997 -0.000911106396027455
"319" -0.000454709621224496 -0.000346153137689743 -1.76565927773389e-05 -8.0089887983724e-05 0.000317259392359304 0.000432382425099647 -0.000533396258165951 7.23136696971474e-05 -0.00393167922072639 0.00349973790708776 0.000336548768326311 -0.000135944539799236 -0.00339722072455064 -0.000671114116853265 -0.00106755513168996 -0.000924011882876284
"320" -0.00045646059641267 -0.000348864585537661 -1.60623521778483e-05 -8.41037216409896e-05 0.00032424437789167 0.000426252590612007 -0.000531237391457939 6.9827459755067e-05 -0.00382236972087728 0.00353704076966933 0.000340412731648108 -0.000198387067954396 -0.00342662894625016 -0.000728383515913916 -0.00111105984659923 -0.000931828618152902
"321" -0.000457558666697319 -0.000351784018397642 -1.39453647317393e-05 -8.82956931627675e-05 0.000331114681523186 0.000419687687742968 -0.000528762781078047 6.67178444295202e-05 -0.00370939744067698 0.00356393181988519 0.000341554172235744 -0.000262229374038214 -0.00345256978825853 -0.0007836091703628 -0.00116065357320059 -0.00093502597619594
"322" -0.000458107749400337 -0.00035492402932488 -1.13425513584003e-05 -9.26860609209496e-05 0.000337725134274469 0.000412619745894561 -0.000526150633455979 6.29274520290175e-05 -0.00359270447586459 0.00358070991352272 0.000339861271431742 -0.000327303197226045 -0.00347461478229797 -0.000836050171558571 -0.00121534386663638 -0.000934123687059189
"323" -0.000458220032424088 -0.000358311281922582 -8.301700374287e-06 -9.72937046172836e-05 0.000343936863477929 0.000404975902140443 -0.000523592927016226 5.83862080710947e-05 -0.00347214907181083 0.00358778959403965 0.000335225246056864 -0.000393448814331921 -0.00349237216891529 -0.000884980323086559 -0.00127408538780229 -0.000929658855802775
"324" -0.000458017128868372 -0.000361959750438063 -4.8766316971151e-06 -0.000102140200043532 0.000349603279092109 0.000396688645927184 -0.000521281554483509 5.30418981750073e-05 -0.00334748396831551 0.00358569186012702 0.00032756379997576 -0.000460518030613288 -0.00350548136856982 -0.000929693910588604 -0.001335778387821 -0.000922203404491025
"325" -0.000457635847514024 -0.000365891674458992 -1.12961950783648e-06 -0.000107242517043474 0.000354576374563907 0.00038769667908183 -0.000519410491993721 4.68414087988908e-05 -0.00321839039069904 0.00357502113501065 0.000316798208411601 -0.000528379359412437 -0.00351360985748335 -0.000969525622282901 -0.00139929457197345 -0.00091233787938583
"326" -0.000457207404591154 -0.000370125621923374 2.86184518572343e-06 -0.000112617104659541 0.00035872254742236 0.000377943010221787 -0.000518171325441447 3.9741207146144e-05 -0.00308445263882477 0.00355646683892609 0.000302862259651938 -0.000596909160943973 -0.00351646396688006 -0.00100384371775997 -0.00146349460840706 -0.000900640237603457
"327" -0.000456873996749047 -0.000374687248770206 7.02083816612574e-06 -0.000118281743994024 0.000361897447266277 0.000367372052063652 -0.000517758405295484 3.17065774798174e-05 -0.00294516389084717 0.00353078516644436 0.000285721492788046 -0.000665998805982273 -0.00351380526294726 -0.00103204445201546 -0.00152722342249325 -0.000887689880641049
"328" -0.000456789779178763 -0.000379595002037174 1.12604134845573e-05 -0.000124247055726994 0.000363977105841066 0.000355945212860394 -0.000518362408089109 2.27030765152015e-05 -0.00279995286397836 0.00349876851136664 0.000265347566592298 -0.000735548898924927 -0.00350543784090324 -0.00105357706379848 -0.00158933203910168 -0.000874045080380594
"329" -0.000457086643148802 -0.000384861034575955 1.549223422019e-05 -0.000130517485872332 0.000364842553399834 0.000343633923747014 -0.000520150622728581 1.27208814480396e-05 -0.00264817469686531 0.00346125247389572 0.000241730328774456 -0.000805462121124529 -0.00349119744383875 -0.00106794259879515 -0.00164869197473859 -0.000860243793624008
"330" -0.000457917970929916 -0.000390509255456075 1.9617522503937e-05 -0.000137098719212098 0.000364383790034713 0.000330411942508528 -0.000523299166401067 1.74820260330423e-06 -0.00248910447379161 0.00341908921129669 0.000214893697212044 -0.000875656191088405 -0.00347098748956533 -0.00107467674481009 -0.00170419277869451 -0.000846778531387833
"331" -0.00045942537754 -0.000396547605985613 2.3539751794916e-05 -0.000143997143075493 0.000362503216903003 0.000316272705780716 -0.000527958226369402 -1.02174392147505e-05 -0.00232195702265865 0.00337312842715749 0.000184876382448159 -0.000946047921547891 -0.0034447546948848 -0.00107338314666056 -0.0017547613811415 -0.000834106814011288
"332" -0.000461740712131941 -0.000402991763483497 2.71566282115457e-05 -0.00015120533411328 0.000359127238168706 0.000301221722439435 -0.000534268746733053 -2.31564767670333e-05 -0.00214593560405153 0.0033242164877806 0.000151733499747768 -0.00101655816295938 -0.00341248432912103 -0.0010637322573672 -0.00179937468780299 -0.000822634126816322
"333" -0.00046499307023717 -0.000409848115246423 3.03717446370708e-05 -0.000158716456237404 0.000354191596014502 0.000285275045117168 -0.000542352397165548 -3.70502015485017e-05 -0.00196016703140253 0.00327316676688347 0.000115564034477393 -0.00108710169015902 -0.00337421543329866 -0.00104544487541531 -0.0018370561482464 -0.000812711949923032
"334" -0.000469301925049059 -0.000417118269544602 3.30858874534369e-05 -0.000166516675665914 0.000347649523093277 0.000268470866862823 -0.000552307746802657 -5.18559407349107e-05 -0.00176379992042195 0.00322076120130537 7.6480858253809e-05 -0.00115759011478404 -0.00333003505635194 -0.0010183202065727 -0.00186689055083109 -0.000804623795822944
"335" -0.000474771856127831 -0.00042480118399065 3.5200465116416e-05 -0.000174590168605794 0.000339478409599282 0.00025085114224211 -0.000564220634131232 -6.7529757337564e-05 -0.00155598486399151 0.00316772153505228 3.46290899239162e-05 -0.00122793004246518 -0.00328006930140897 -0.000982237228548782 -0.00188803401443391 -0.000798594818711047
"336" -0.000481498910452525 -0.000432896162392921 3.66264997714941e-05 -0.000182913712527724 0.000329677308024315 0.00023248324281729 -0.000578142872391893 -8.40151093491029e-05 -0.00133590412075343 0.00311472016525614 -9.80903090261944e-06 -0.00129801428423977 -0.00322448666144304 -0.000937149062440284 -0.00189972045790392 -0.000794773436537798
"337" -0.000489562443191614 -0.000441391487103413 3.72765885133413e-05 -0.000191459844836113 0.000318257793127484 0.000213442625600072 -0.000594109586553238 -0.000101234810624534 -0.00110283556600179 0.00306234176273594 -5.66381347077463e-05 -0.00136771892493245 -0.00316349427743005 -0.000883106666421364 -0.00190128389233202 -0.000793241611796284
"338" -0.000499017462274446 -0.000450271541808445 3.70719315022312e-05 -0.000200196357531811 0.000305265766163511 0.000193825389533894 -0.000612123985294104 -0.000119112088146928 -0.0008561558148646 0.00301109324516004 -0.000105614863850304 -0.00143690462841465 -0.00309733129911503 -0.000820238369700718 -0.00189214948807784 -0.000794003030673219
"339" -0.000509912234170086 -0.000459517497139666 3.59459812569276e-05 -0.000209086565205132 0.000290760985290321 0.000173739254003361 -0.000632165076868275 -0.000137550700485738 -0.0005953981898115 0.00296139562047807 -0.000156477880892313 -0.00150540999127543 -0.00302626104476792 -0.000748771890242049 -0.00187186156212617 -0.000796995994889869
"340" -0.000522266641883827 -0.000469106233161947 3.38286119646256e-05 -0.000218090944272894 0.000274829761437223 0.000153298765132327 -0.000654185217272341 -0.000156454539171676 -0.000320301245564678 0.00291356739732908 -0.000208927044911072 -0.00157304571545113 -0.0029505851362731 -0.000669034844277751 -0.0018400775027873 -0.000802079015556688
"341" -0.000536079017059427 -0.000479007224786833 3.067935695264e-05 -0.000227158543694041 0.000257577402977671 0.000132641046966777 -0.000678101667236947 -0.000175708393586408 -3.08737388110095e-05 0.00286782310794357 -0.000262641976652864 -0.00163959734795379 -0.00287062024525024 -0.000581445994717162 -0.0017965995409652 -0.000809048119353466
"342" -0.000551330341616982 -0.000489182586914963 2.64556545384458e-05 -0.000236249995258597 0.000239132486468829 0.000111913307111941 -0.00070381014773925 -0.000195197968716636 0.00027256768563927 0.0028242611437737 -0.000317273850269082 -0.00170481806030273 -0.00278670079122622 -0.000486527412077417 -0.00174136607773115 -0.000817633907973575
"343" -0.000567979076964475 -0.00049959984974472 2.11296445722482e-05 -0.000245308314372968 0.000219647232703785 9.12599664022344e-05 -0.000731179221995173 -0.000214799119533584 0.000589311261855283 0.00278287644024789 -0.000372451192043463 -0.0017684329481351 -0.00269918780073198 -0.000384896403925244 -0.00167446737381289 -0.000827504895722941
"344" -0.000585952075229439 -0.000510214486035449 1.46946755118688e-05 -0.000254279881703418 0.000199292370576546 7.08535157889471e-05 -0.000760038485544186 -0.000234381711433797 0.000918210158506984 0.00274352889897224 -0.000427779000093625 -0.00183013954855527 -0.00260844158641835 -0.000277263680239707 -0.00159616684758379 -0.000838277846762642
"345" -0.000605163696778518 -0.000520981619997495 7.14511011485317e-06 -0.000263115971446328 0.000178250536591546 5.08535455224115e-05 -0.000790206143342017 -0.000253815813890082 0.00125760346517545 0.00270597563165981 -0.000482849975225662 -0.00188960458206398 -0.00251484185841338 -0.000164432911832521 -0.00150689462376799 -0.000849528472898609
"346" -0.000625495788547315 -0.000531853366284194 -1.49631276537161e-06 -0.000271763216261803 0.000156730408702699 3.1432201394937e-05 -0.000821458078188812 -0.000272970601728037 0.00160528749479393 0.00266983556980019 -0.000537239751090355 -0.0019464700292778 -0.0024187703821761 -4.72919832573903e-05 -0.00140726762084826 -0.000860788032807833
"347" -0.000646810107492176 -0.000542778284418163 -1.11996866666948e-05 -0.000280160800227487 0.0001349511757585 1.27675863923346e-05 -0.000853559366522769 -0.000291708951878963 0.00195845059131017 0.00263462511374848 -0.000590525069462033 -0.00200035337829891 -0.00232060030398455 7.31998765483359e-05 -0.00129808333012124 -0.000871565351584102
"348" -0.000668944197277894 -0.00055370290717953 -2.19192804393837e-05 -0.000288261550493117 0.000113144917472771 -4.96970969350767e-06 -0.000886243763177171 -0.000309895825181849 0.002313683807358 0.00259974470623943 -0.000642274307241467 -0.00205084472769776 -0.00222070665535341 0.000196014303867476 -0.00118032976700063 -0.000881344216927709
"349" -0.000691720246972111 -0.000564578817841525 -3.35963433599484e-05 -0.000296010156506832 9.15538858675996e-05 -2.16043314628472e-05 -0.000919223257664094 -0.000327407255420055 0.00266696365874414 0.00256448158914179 -0.000692070248007379 -0.00209752502268769 -0.00211945405523409 0.000320063946235282 -0.00105519509516585 -0.0008895971170841
"350" -0.000714927275359408 -0.000575345216604611 -4.61512767570825e-05 -0.000303363672650985 7.04332300349185e-05 -3.69743362680996e-05 -0.000952196674073867 -0.000344116881510571 0.0030137331969288 0.00252802162717111 -0.000739492262970142 -0.00213996510311721 -0.00201719762664906 0.000444224738744507 -0.000924042869603976 -0.000895798169423903
"351" -0.000738347780425867 -0.000585954597282548 -5.94960274876979e-05 -0.000310276270087699 5.00363882805714e-05 -5.09163649494389e-05 -0.000984843193595651 -0.00035990742169616 0.00334896199449916 0.00248946160573329 -0.000784148685735594 -0.00217773172548971 -0.00191426742775109 0.000567339986529784 -0.000788415459616649 -0.000899433421232093
"352" -0.000761741850885804 -0.000596348350430686 -7.35293489285479e-05 -0.00031671066678692 3.06232785402726e-05 -6.32792541260186e-05 -0.00101683070913196 -0.000374669915069301 0.00366730693802699 0.00244781432078634 -0.000825666903236637 -0.00221039641843526 -0.00181099246596952 0.000688250856981079 -0.000650014966583527 -0.00090000245247278
"353" -0.000784855065859097 -0.000606480157501357 -8.81311273859819e-05 -0.000322627254459773 1.24555987268316e-05 -7.39219744028173e-05 -0.00104781081753974 -0.000388303072844438 0.00396331007595146 0.00240203167016419 -0.000863698905941738 -0.00223754605438907 -0.00170766426729545 0.000805798323320623 -0.000510685643285965 -0.000897041094119181
