"V1" "V2" "V4" "V5" "V7" "V8" "V10" "V11" "V13" "V14" "V15" "V17" "V18" "V20" "V21" "V23"
"1" 2.29212696860121e-05 0.000253066598222319 -1.32887791209747e-05 9.29070792768014e-05 4.16151057227371e-05 0.000116377925074525 0.000232230116428616 2.88487494231863e-05 0.000460603418412664 8.31979658672085e-05 0.000116157425076966 0.000264678088682764 0.00045337906204732 0.000284043255882218 0.000679040789274136 0.00207280327882114
"2" 4.04078101504207e-05 0.000261784034721056 -3.73980352724592e-06 9.85437991131497e-05 4.54987455823157e-05 0.000123163479854096 0.000235350158019307 4.16145907510329e-05 0.000460315929516535 8.59001996029441e-05 0.000114698192679938 0.000237952984488961 0.000463273567009585 0.000305529760653863 0.000711059219341395 0.00206969982739643
"3" 5.87351217361244e-05 0.000269710437256128 6.68366021195363e-06 0.000104704558577002 4.99538007125625e-05 0.000130635122354481 0.000238996785555959 5.4430513314019e-05 0.000459871060457354 8.93718003206681e-05 0.000113271462037615 0.000207124171605772 0.000470669483342494 0.000329089753741296 0.000743585015652078 0.00206568666833685
"4" 7.7729326657964e-05 0.000276838161699301 1.7956173813191e-05 0.000111277350030233 5.49595134375103e-05 0.000138741449265779 0.000243178876823603 6.71295593131431e-05 0.000459394735064981 9.35374538223672e-05 0.000111907746163696 0.000172374132203018 0.000475534552721797 0.000354455802250009 0.000776290919803356 0.00206140302941495
"5" 9.71971765146918e-05 0.000283141384102362 3.00485999081255e-05 0.000118167764115553 6.0502950894298e-05 0.000147427557224203 0.000247914376693337 7.95631449630144e-05 0.00045899898751682 9.83223443877074e-05 0.000110616762088881 0.000133956495015456 0.000477841103643053 0.000381326173349324 0.000808821680251699 0.00205738276404616
"6" 0.000116959610126543 0.000288618574601865 4.29182165236027e-05 0.000125258351906917 6.6553746058212e-05 0.000156630923363374 0.000253212038899242 9.15645648577131e-05 0.000458795507109027 0.000103638844889794 0.000109420342430814 9.21295054141567e-05 0.000477596315683002 0.000409401911305083 0.000840844634813381 0.00205417051853858
"7" 0.000136827745083702 0.000293259917191913 5.65229659612436e-05 0.000132450336701473 7.30911301900164e-05 0.000166288424166855 0.000259083553232356 0.000102983921015155 0.000458879226510441 0.000109402087145161 0.000108327628655664 4.72125435767213e-05 0.000474814416052063 0.00043836457170406 0.00087200695180741 0.00205222273215108
"8" 0.000156624953080555 0.000297083210227407 7.08116583941952e-05 0.000139633713480861 8.00802996497156e-05 0.00017632684758946 0.000265536558482473 0.000113674715541905 0.000459338865997195 0.000115521394463456 0.000107353587747519 -4.68302028904848e-07 0.000469541232322897 0.000467903533043112 0.000901986627565536 0.00205198198647923
"9" 0.00017617984596842 0.000300088768144625 8.57201884547088e-05 0.000146701818804388 8.74854700643759e-05 0.000186674287067535 0.000272570964279299 0.000123493133521887 0.000460248972700932 0.000121907595232296 0.000106505788600569 -5.05456475860932e-05 0.000461855732358688 0.000497687388536068 0.000930474919462927 0.00205385896325027
"10" 0.000195329347575617 0.000302307810927408 0.000101189928057682 0.000153542453657948 9.52713271709833e-05 0.000197249066896905 0.000280187757448561 0.000132299487234817 0.000461669689050797 0.00012846575974286 0.000105793755894664 -0.000102644996329653 0.0004518376729698 0.00052741033289787 0.000957174619686807 0.00205817307319999
"11" 0.000213908296255767 0.000303748339946545 0.000117142983472446 0.000160058742026092 0.000103391481829197 0.000207974299712644 0.000288379697125101 0.000139972473806063 0.000463637763896772 0.000135105260508644 0.00010522143390948 -0.000156352243419496 0.000439606774799735 0.000556760582095194 0.000981811736153395 0.00206522367783257
"12" 0.000231780156198283 0.000304447343321923 0.000133509115980377 0.000166147881062369 0.000111806182135449 0.000218763507646988 0.000297139638322533 0.000146396903248836 0.000466185502328107 0.000141733391615556 0.000104787928007894 -0.000211248632547677 0.000425283640261614 0.000585431118838293 0.00100413426251716 0.00207523306918037
"13" 0.00024880070107028 0.000304430414325917 0.000150204967016428 0.000171715432693373 0.000120465994474443 0.000229540496689112 0.000306453561911804 0.000151475471191746 0.000469321644794865 0.000148262339563878 0.000104495043015687 -0.000266895365577388 0.000409024065265435 0.000613132267985025 0.00102392118878053 0.00208839663092548
"14" 0.000264855811639054 0.000303737462338429 0.000167141128310776 0.000176666994018037 0.000129318069718128 0.000240212790426469 0.000316299721464528 0.000155112085010258 0.000473033598205365 0.000154603619575475 0.000104343139805745 -0.000322855728923708 0.000390995426627224 0.000639597767056402 0.00104098083228213 0.00210486345415245
"15" 0.000279838917211852 0.000302409055715262 0.000184233531791205 0.000180917186977827 0.000138312323893083 0.000250702318416922 0.000326658680494685 0.000157243156582784 0.000477305314110992 0.000160668652014932 0.000104327239511299 -0.000378674231716942 0.000371379919850337 0.000664563471478059 0.001055141432562 0.0021247151218432
"16" 0.000293649892383977 0.000300488015218919 0.000201388468931061 0.000184393795189932 0.000147399756401184 0.000260928692023059 0.000337500028389278 0.000157815383688934 0.000482101191262324 0.000166382089105746 0.00010444164332451 -0.000433895046369472 0.000350375799064827 0.000687794684532832 0.00106627695160004 0.00214800261035417
"17" 0.000306209249596092 0.000298009403263501 0.000218505956106208 0.000187020596574169 0.000156513816041325 0.000270804992000057 0.00034878991068393 0.000156775991839538 0.000487351356365661 0.00017166479242081 0.000104682015033862 -0.000488079734960026 0.000328198769951563 0.000709071651797791 0.0010742738534931 0.00217474011706545
"18" 0.000317443027532222 0.000295008631081375 0.000235487537838013 0.000188734281815929 0.000165597315230165 0.000280254271206447 0.000360486524646227 0.00015410388559665 0.000492986636932796 0.000176445125319981 0.000105040195901929 -0.000540788297604211 0.000305069228968757 0.00072818670109493 0.00107905394418459 0.00220488764278567
"19" 0.000327317542370532 0.000291557201113359 0.000252238648074623 0.000189485324505792 0.000174599729629715 0.000289203164480537 0.000372549382167075 0.000149804637109057 0.000498930252238587 0.00018065637075527 0.000105507829169623 -0.000591581797121857 0.000281220780052923 0.000744974903227693 0.00108057552839262 0.00223834851978377
"20" 0.000335785534536656 0.000287679245389806 0.000268655163923812 0.000189224630251982 0.000183455821181931 0.000297579131401147 0.000384923973525743 0.000143875137706448 0.000505080719758726 0.000184239149200496 0.000106076471503567 -0.000640054110255175 0.0002569038342264 0.000759276351179845 0.00107881811253371 0.00227502691468384
"21" 0.000342825820885278 0.000283431844036074 0.000284637047194864 0.000187919431236295 0.000192108549016882 0.0003053149884876 0.000397562838673352 0.000136353536881559 0.000511325920728493 0.000187136282877364 0.000106736613766966 -0.000685803381985701 0.00023235350223734 0.000770950610282497 0.00107378119764687 0.002314718661253
"22" 0.000348429529583027 0.000278857491822351 0.000300084733338771 0.000185538093230377 0.000200490591740318 0.000312344153831169 0.000410398700780766 0.000127273780816312 0.00051755031222254 0.000189299429302557 0.000107479532467591 -0.000728470992194167 0.000207832298367926 0.00077988948148088 0.00106549978840323 0.00235723106897932
"23" 0.000352600396576605 0.000273997183289137 0.000314900401740525 0.000182071547651463 0.00020855135837008 0.000318612274321062 0.000423371726304529 0.000116695943217428 0.000523625625914514 0.000190685197633527 0.000108292749057142 -0.00076769702902657 0.000183578833255402 0.000785998336092979 0.00105401930798687 0.00240226911071204
"24" 0.000355360418470582 0.000268905333450446 0.000328991105032746 0.000177512146700271 0.000216233838697379 0.000324068510050017 0.000436411552873661 0.00010470486888649 0.000529429003376356 0.000191254555697821 0.000109167652889401 -0.000803165660622131 0.000159855632129642 0.000789209174278061 0.00103942207106331 0.00244952879296721
"25" 0.000356737057414453 0.000263618316973812 0.00034225808831592 0.000171861867506313 0.000223472833815805 0.000328660507073718 0.000449448758198131 9.13743019417614e-05 0.000534810960691725 0.000190977067823273 0.000110092659272995 -0.000834597555654272 0.000136908224326318 0.000789467036336571 0.00102178948790413 0.00249863989106783
"26" 0.000356771580369524 0.0002581801601705 0.000354615086600977 0.000165130006503134 0.000230214887366279 0.000332345776566628 0.000462395943833317 7.68070182597008e-05 0.00053964131790666 0.00018982630303102 0.000111058890976485 -0.000861744968824694 0.000114979427339721 0.000786740993836249 0.00100123710462009 0.00254917756719883
"27" 0.000355513656062252 0.000252635464088285 0.000365977376887034 0.000157345595399634 0.000236412551672276 0.000335093522800204 0.000475189706112769 6.11186385907504e-05 0.000543783835820445 0.000187783014831947 0.000112052200635552 -0.000884380475000004 9.42975149913272e-05 0.0007810204044545 0.000977888943014572 0.00260063849310852
"28" 0.000353019794595582 0.000247012432494309 0.00037626204102606 0.000148534671453658 0.000242011234264738 0.000336872031832106 0.000487732735880942 4.44266189017804e-05 0.00054710144243713 0.000184831880347434 0.00011306709454716 -0.00090233967047599 7.50851830761136e-05 0.000772307721056758 0.000951882636583041 0.00265249461230098
"29" 0.000349363265356447 0.000241359065800372 0.000385396194206546 0.000138734471131159 0.000246959202162905 0.000337653084689777 0.000499943312015018 2.68537496632815e-05 0.000549462645134345 0.000180964018931921 0.00011408905162067 -0.00091548593452338 5.75626883354298e-05 0.000760636814226783 0.000923373377961064 0.00270416992306926
"30" 0.000344607193726823 0.000235698362060498 0.000393313388588363 0.000127995296060003 0.000251218938636753 0.000337426880202229 0.000511737904199998 8.54386934485959e-06 0.000550740296404717 0.00017617881049155 0.000115106901891063 -0.000923708162439055 4.19043237940721e-05 0.000746040647045116 0.00089252127515246 0.00275497536773122
"31" 0.000338839907095101 0.000230071422275652 0.000399952709224901 0.000116366967129124 0.000254743195250823 0.000336174772574872 0.000523025604333994 -1.03668369996402e-05 0.000550824007907919 0.000170473463214598 0.000116106175466388 -0.000926959548720219 2.82947972644635e-05 0.000728592689612416 0.000859505266259333 0.00280424530844876
"32" 0.000332136831061535 0.000224497170640735 0.000405255098688796 0.000103910387357904 0.000257496785230701 0.000333893550993627 0.000533716742447358 -2.97308576903727e-05 0.000549600636738854 0.000163860479095725 0.000117078678664059 -0.000925216665126075 1.68783320221483e-05 0.000708367204122011 0.000824504390699714 0.00285122962064002
"33" 0.000324587357979915 0.000219011089829529 0.000409180437215761 9.06854495704108e-05 0.000259450590939708 0.000330582095078523 0.000543722019628324 -4.94033282577642e-05 0.00054697815479335 0.000156341162077998 0.000118006958397578 -0.0009185023291833 7.78591953461699e-06 0.000685466837132282 0.000787716757003352 0.00289517207919233
"34" 0.000316272686836975 0.000213622399368168 0.00041168611638326 7.67661527314621e-05 0.000260571056551502 0.000326246304498262 0.000552951487325906 -6.92432652788551e-05 0.000542868244436342 0.000147942093268391 0.000118876194797269 -0.000906879040068578 1.1226677235155e-06 0.000660001955936599 0.000749338149606149 0.00293528761018006
"35" 0.000307277119223226 0.000208352235800491 0.000412742315824548 6.22194825344638e-05 0.000260836530053028 0.000320895136688556 0.000561320352104131 -8.90992188288804e-05 0.000537204973604741 0.000138679212917309 0.00011967650116181 -0.000890446293154358 -3.03699983029472e-06 0.000632112448579162 0.000709582142526534 0.00297079513996194
"36" 0.000297697642775523 0.000203224171026002 0.000412334872327013 4.71229040527445e-05 0.000260229177340637 0.000314543635931119 0.000568747974310823 -0.000108821879881462 0.00052993809211205 0.000128580511890801 0.00012038652994569 -0.000869337626870243 -4.64559166070518e-06 0.000601954140703759 0.000668663723966227 0.00300090305665983
"37" 0.000287603257280188 0.000198240992134952 0.000410443867234477 3.15545024992237e-05 0.000258734522383734 0.000307211948074868 0.000575142418474117 -0.000128279102033001 0.000521025642692819 0.000117669499901852 0.000120992633577067 -0.000843720739712682 -3.67683943021911e-06 0.000569687647690792 0.000626803004843174 0.00302489157669507
"38" 0.000277083913864441 0.000193419522185813 0.000407073782184541 1.55911291374256e-05 0.00025634945760433 0.000298927837482651 0.000580436312122628 -0.000147322519505111 0.000510457288383145 0.00010598324249489 0.000121475522383036 -0.000813798418720738 -1.48670656616284e-07 0.000535506734710312 0.000584226448839084 0.00304204768747018
"39" 0.000266213473284251 0.000188754985705153 0.000402226260814685 -6.86594122470939e-07 0.000253068434814254 0.000289716721752518 0.000584550977178853 -0.000165828673492621 0.000498221901499174 9.35579312797222e-05 0.00012181652725323 -0.000779803795906539 5.8998337085602e-06 0.000499611476453309 0.000541165750519423 0.00305174511062394
"40" 0.000255064537694327 0.000184256639383879 0.000395915962931443 -1.72075845618243e-05 0.000248889242699093 0.000279611309057546 0.000587413624510227 -0.000183674903712942 0.000484339311665123 8.04290005337235e-05 0.000121998777834339 -0.000742013090694135 1.44096865953334e-05 0.00046222081996618 0.000497857358395466 0.00305347346133131
"41" 0.000243704004229251 0.000179924691417902 0.000388170548942615 -3.38897836769269e-05 0.000243835856147905 0.000268650675807996 0.000588973468959293 -0.00020073121638084 0.000468850255477165 6.66437827832965e-05 0.000122000202771683 -0.000700693790082605 2.52720588501748e-05 0.000423569190059302 0.000454537539571168 0.00304675614683071
"42" 0.000232187474429697 0.000175747439378763 0.000379025953300037 -5.06533645685452e-05 0.000237915465255759 0.000256877465613289 0.000589171878369297 -0.000216888543852048 0.000451810596146166 5.2248512227197e-05 0.000121801391541357 -0.000656163498560922 3.836056698021e-05 0.000383898417331862 0.000411447938399654 0.00303128638089072
"43" 0.000220570430532219 0.000171716934160263 0.000368519310536731 -6.74309599784614e-05 0.000231149873511349 0.000244332741284903 0.000587953854182819 -0.000232049609146269 0.00043329010595151 3.72929850998037e-05 0.000121385526535862 -0.000608761921990148 5.35268451281712e-05 0.000343471618317821 0.000368825084799476 0.0030068867074784
"44" 0.000208904037654216 0.000167837526059461 0.000356701015383998 -8.41514152728755e-05 0.000223565097414051 0.000231062642567869 0.000585286966207039 -0.000246118405496776 0.000413385439987201 2.18269360963943e-05 0.000120733598144013 -0.000558837725479527 7.06041133754466e-05 0.000302553859433824 0.00032691206439214 0.00297352164315996
"45" 0.000197219205638133 0.00016407955465638 0.000343626877753428 -0.000100747000950781 0.000215193577733095 0.000217119792090724 0.000581137121486964 -0.000259008364384322 0.000392198160237158 5.9044149321385e-06 0.000119828874010174 -0.000506754726232802 8.93915253290773e-05 0.000261414067030385 0.000285940275790247 0.00293128707431391
"46" 0.000185557807091598 0.000160443208031653 0.000329368293644457 -0.000117152439410507 0.00020607743000192 0.000202555487435207 0.000575484960668643 -0.00027064014918619 0.000369867616408294 -1.0416194765593e-05 0.000118654604653185 -0.000452892094516469 0.000109669410220829 0.000220344698495172 0.000246140964746787 0.00288039944631412
"47" 0.000173930724152159 0.000156892468715066 0.000313990436982201 -0.000133307283884846 0.000196255287748757 0.000187424932299804 0.000568316143864539 -0.00028095656949597 0.000346527536451686 -2.70701751976801e-05 0.000117195377924701 -0.000397636057853214 0.000131207053864313 0.000179619529448606 0.000207739640289629 0.0028212348182194
"48" 0.000162366629583689 0.000153435405060119 0.000297577040968534 -0.000149156910323874 0.000185780005075394 0.000171783205519495 0.000559628238051354 -0.000289893249466646 0.000322338191105971 -4.40084016058506e-05 0.000115438400099293 -0.00034138339289619 0.000153763586592559 0.000139522975158926 0.00017095195955735 0.00275429776836405
"49" 0.000150870591849855 0.000150035018638945 0.000280207711480265 -0.000164651642943438 0.000174702001945835 0.000155692922762216 0.000549433113179449 -0.000297405885041638 0.000297467704292568 -6.11650909672767e-05 0.000113379250176552 -0.000284529017068495 0.000177087348920943 0.00010034269700125 0.00013598347346309 0.00268020035090106
"50" 0.00013944874472433 0.000146682492068888 0.000261969344878504 -0.000179745065334291 0.000163076303672042 0.000139208335465827 0.000537742998263995 -0.0003034676603795 0.000272094962154032 -7.84768000294302e-05 0.000111007288395305 -0.000227480841570343 0.000200925094696039 6.23465488361879e-05 0.000103027463975665 0.00259965398622035
"51" 0.00012808734546716 0.000143346381462104 0.000242962639595279 -0.000194387538379704 0.000150969325973776 0.000122399283892993 0.000524597376767925 -0.000308037605090404 0.000246413861590034 -9.58754021799858e-05 0.000108321083832909 -0.000170615744611018 0.000225002913413784 2.58037949890955e-05 7.22620410450807e-05 0.00251340342880487
"52" 0.000116789662983745 0.000140020307595748 0.000223275656329106 -0.000208547553004057 0.00013843909861744 0.000105322911041149 0.00051003051361457 -0.000311111919506486 0.00022062095315117 -0.000113303850329811 0.000105323602746477 -0.000114338482260412 0.000249076181719389 -9.03769181622272e-06 4.38424627566939e-05 0.00242231725677597
"53" 0.000105532853204847 0.000136677670686486 0.000203009455898229 -0.000222192654285815 0.000125556268109215 8.80451886239853e-05 0.00049409151363536 -0.000312685232098474 0.000194912030531679 -0.000130695672661257 0.00010202292458852 -5.90372635171176e-05 0.000272891279665807 -4.19281024941797e-05 1.79170012968777e-05 0.00232727921639969
"54" 9.42971482635866e-05 0.000133299106989583 0.000182265983195779 -0.000235287054835387 0.000112392487130188 7.06319121038244e-05 0.000476848311204996 -0.000312756084200935 0.00016949595420083 -0.000147986166173961 9.84242664097738e-05 -5.06805696944394e-06 0.00029619816556104 -7.26616019108236e-05 -5.40265629612615e-06 0.00222915202529146
"55" 8.30671253685036e-05 0.000129872912896808 0.000161150795198224 -0.000247811347217057 9.90194548519815e-05 5.31434718106344e-05 0.000458367384111658 -0.000311346918596161 0.000144576885480444 -0.000165114154742624 9.45453540657855e-05 4.72001520837824e-05 0.000318769603895704 -0.000101033866185994 -2.60182238918785e-05 0.00212885515917287
"56" 7.18095619195527e-05 0.000126376836381194 0.00013976400347294 -0.000259742717759619 8.55099901009826e-05 3.5648594893136e-05 0.00043873083770935 -0.000308483386439727 0.000120352962121968 -0.000182010996970031 9.04055741420162e-05 9.74220408996056e-05 0.000340385578577835 -0.000126870414471932 -4.38554448308532e-05 0.00202725696773006
"57" 6.04966296054854e-05 0.000122796849774978 0.000118211624576083 -0.000271060127393492 7.19438295266449e-05 1.82137600199566e-05 0.000418033291286698 -0.000304188314345937 9.7023370595416e-05 -0.000198619503577982 8.60303594052424e-05 0.000145286844465642 0.00036084144704663 -0.000150035204268737 -5.88765359041042e-05 0.00192518675428441
"58" 4.91075643176035e-05 0.000119129559365206 9.65939067971698e-05 -0.000281754023375663 5.83976864492003e-05 8.98997621141488e-07 0.000396376788981719 -0.000298513605728204 7.47778809217077e-05 -0.000214882222929509 8.14467765483595e-05 0.000190490060065484 0.000379961618120927 -0.000170413557125338 -7.10711335996103e-05 0.00182346498231172
"59" 3.75978617316046e-05 0.000115354829419499 7.50129470725438e-05 -0.000291811017290644 4.49385536673709e-05 -1.62293123344761e-05 0.00037386022125865 -0.000291512781031595 5.3791668842361e-05 -0.000230734297079948 7.6689357457475e-05 0.000232749258106942 0.000397588713456497 -0.000187915246933403 -8.04396659082856e-05 0.00172284767584076
"60" 2.59591045892419e-05 0.00011147446600397 5.35688819522024e-05 -0.00030122655606212 3.16498609037924e-05 -3.31108590637687e-05 0.000350604747087891 -0.000283245991047955 3.42319988752436e-05 -0.000246127783402351 7.17961317320873e-05 0.000271814180756947 0.00041358034524574 -0.000202500686116181 -8.70411963713333e-05 0.00162401646237201
"61" 1.41479742081283e-05 0.000107472261080252 3.23570947569539e-05 -0.000309989845835571 1.86033572439708e-05 -4.96822143219516e-05 0.000326730853447967 -0.00027378199950862 1.62547283168033e-05 -0.000260999601821002 6.68082771988959e-05 0.000307467222461808 0.000427824003558994 -0.000214149012928487 -9.09360774563653e-05 0.00152760665301622
"62" 2.1501429028804e-06 0.000103357790110312 1.14717190348176e-05 -0.00031809365868596 5.87816815189541e-06 -6.58812333555026e-05 0.000302369033092468 -0.000263188982631516 -5.29995228613661e-09 -0.000275301929471405 6.17687653398806e-05 0.000339521933385625 0.000440229947363853 -0.000222888187347424 -9.22362331267922e-05 0.00143416024108979
"63" -1.00584965317936e-05 9.91260932287897e-05 -8.99850949982362e-06 -0.000325542862153797 -6.46439959188271e-06 -8.16565445174386e-05 0.000277646651634137 -0.00025156198511215 -1.44382780638979e-05 -0.000288989442963302 5.67246872012548e-05 0.000367806218161552 0.000450732781390188 -0.000228770248135111 -9.1065788172387e-05 0.00134419218345596
"64" -2.24940748579861e-05 9.47840994241844e-05 -2.89660821579991e-05 -0.000332330670027797 -1.83485165014332e-05 -9.69448280435775e-05 0.000252699575995863 -0.00023898368126228 -2.69376703293898e-05 -0.000302017120208255 5.17214317876626e-05 0.000392205369767144 0.000459291454542252 -0.000231883689148976 -8.75868357403302e-05 0.00125811180174947
"65" -3.51638293832576e-05 9.0337203199649e-05 -4.83544108561032e-05 -0.000338455493300349 -2.97080356916386e-05 -0.000111697828792292 0.000227669699695103 -0.000225544461880841 -3.74334760524121e-05 -0.00031433954154882 4.68111002470526e-05 0.000412627140971724 0.000465887866688016 -0.000232364036878595 -8.19814892796609e-05 0.00117628408156804
"66" -4.8074324514253e-05 8.57982925945891e-05 -6.70833122386808e-05 -0.000343917270103231 -4.04790898687805e-05 -0.000125861765420864 0.000202696627580431 -0.000211345217526765 -4.58678541222479e-05 -0.000325926138081761 4.20410265715039e-05 0.000429022649438141 0.000470524670868224 -0.000230351655023952 -7.44553412005686e-05 0.00109900114758752
"67" -6.12258619003524e-05 8.11760803772073e-05 -8.50881461704074e-05 -0.000348715320126556 -5.06101029869823e-05 -0.00013939124669158 0.000177911188481452 -0.000196492577070441 -5.22134980665729e-05 -0.000336742269917399 3.74631960363829e-05 0.000441365023891447 0.000473237409680466 -0.000226040739923713 -6.5233754315352e-05 0.00102652244996736
"68" -7.46118533289707e-05 7.64823294845002e-05 -0.000102304664790342 -0.000352848660784187 -6.00485051747474e-05 -0.000152240886223147 0.000153453827876122 -0.00018108910329315 -5.64689868657822e-05 -0.000346756560595433 3.31226668439597e-05 0.000449675844601728 0.000474068694049232 -0.000219632472584051 -5.45524289002906e-05 0.000959033519544559
"69" -8.82155127660083e-05 7.17403477136541e-05 -0.000118671438555906 -0.000356314785497612 -6.8738774281182e-05 -0.000164368943983629 0.000129465869463523 -0.000165239331645436 -5.86389445878987e-05 -0.000355950764462688 2.90643462774207e-05 0.00045402156487751 0.000473080175400694 -0.000211357070367817 -4.26711939850632e-05 0.000896645200559703
"70" -0.000102011560792768 6.69729793669731e-05 -0.000134140517479581 -0.000359109936934947 -7.66345695756734e-05 -0.000175739653045721 0.000106073787533184 -0.000149048255834465 -5.8765872551551e-05 -0.000364306122876884 2.53297908459837e-05 0.000454492452193057 0.00047035987902624 -0.000201468616403506 -2.98536559451564e-05 0.000839459972560855
"71" -0.00011597921833383 6.21835815778499e-05 -0.000148671187933812 -0.000361228934413588 -8.37100157314074e-05 -0.000186315060774072 8.34071651250108e-05 -0.000132629338434191 -5.69131106152133e-05 -0.000371806288506616 2.19604393477794e-05 0.000451215083048069 0.000466005842606132 -0.000190220503003266 -1.63642465825687e-05 0.000787534606225861
"72" -0.000130075409969404 5.74199302288705e-05 -0.000162218265703487 -0.000362673558390024 -8.99228972939298e-05 -0.000196074213416722 6.1585300925159e-05 -0.000116086104812592 -5.31558558610822e-05 -0.000378447977527726 1.89891957829999e-05 0.000444353201760716 0.000460138581060202 -0.000177884845989993 -2.47041047785521e-06 0.000740895621637365
"73" -0.000144264533969278 5.26858781231818e-05 -0.000174755507794696 -0.000363428407666454 -9.5249715613783e-05 -0.000204982059433191 4.07329378297847e-05 -9.95149247908765e-05 -4.7593203712839e-05 -0.000384222836708637 1.64446272559234e-05 0.000434112047557529 0.000452869413382747 -0.000164735118641757 1.15581887465751e-05 0.00069949609783135
"74" -0.000158487223584472 4.80185779764464e-05 -0.000186261521570317 -0.000363495540373657 -9.96688346836304e-05 -0.000213023671604505 2.09462820847456e-05 -8.30184527720585e-05 -4.03462771601671e-05 -0.000389144796381274 1.43523584278827e-05 0.000420708637876652 0.000444351535851983 -0.000151045094090324 2.54656177693957e-05 0.000663326931909115
"75" -0.000172696732205432 4.34340507866076e-05 -0.000196711562905933 -0.000362862758087518 -0.000103171857053406 -0.000220180443234415 2.33006837026078e-06 -6.66915713271896e-05 -3.15394777504085e-05 -0.000393210993057393 1.27331955692186e-05 0.000404399039870694 0.000434721022212777 -0.000137084448769489 3.90070886153797e-05 0.000632313781301489
"76" -0.000186824082043303 3.89677307895413e-05 -0.000206102565349208 -0.000361523913899824 -0.000105744011936532 -0.000226441364814636 -1.50192142039317e-05 -5.06224702275508e-05 -2.13304357435096e-05 -0.000396444253988607 1.1593458605307e-05 0.000385462016063469 0.000424132305376005 -0.000123114945403753 5.19455344750423e-05 0.000606378271797883
"77" -0.000200810095942004 3.46404686915058e-05 -0.000214427560186258 -0.000359467367889717 -0.000107392411658661 -0.000231796609110588 -3.10297916453156e-05 -3.48900499124291e-05 -9.86846278973025e-06 -0.000398859142270291 1.0949168546119e-05 0.000364194127170235 0.000412750111078709 -0.000109383157162673 6.406415086266e-05 0.000585436519431849
"78" -0.000214573894753218 3.04776503930696e-05 -0.000221687303688686 -0.000356685356754382 -0.000108112929989963 -0.000236245441924431 -4.5621223640302e-05 -1.95686284684906e-05 2.67995375493465e-06 -0.000400475798678315 1.07930969166746e-05 0.000340913969763892 0.000400726143486059 -9.61256021306341e-05 7.51659357228947e-05 0.000569367715479827
"79" -0.000228044524363314 2.65097070304193e-05 -0.000227890166282303 -0.000353170505583062 -0.00010791917041663 -0.000239786891288289 -5.87388682784396e-05 -4.72109904137562e-06 1.61455820179991e-05 -0.000401324615778592 1.11250425159392e-05 0.00031594916367572 0.000388236128880823 -8.35538504124035e-05 8.50810943061154e-05 0.000558080886738551
"80" -0.000241143888750856 2.27534474856149e-05 -0.000233052050491422 -0.000348911957290016 -0.000106834551131794 -0.00024242549568626 -7.03287685538542e-05 9.58697291171321e-06 3.03458213963038e-05 -0.000401437959439695 1.19327945911529e-05 0.000289631686379166 0.000375438902091085 -7.18614068946054e-05 9.36533840901894e-05 0.000551448700716057
"81" -0.000253794063985776 1.92380127306548e-05 -0.000237193395850757 -0.000343902689493553 -0.000104876216697862 -0.000244171549673226 -8.03549382470659e-05 2.33174432715256e-05 4.51062548216053e-05 -0.000400847750829865 1.32027749519691e-05 0.000262308723766731 0.000362509219409117 -6.12255108880895e-05 0.000100753097781115 0.000549379797139627
"82" -0.000265908624507402 1.59823554423005e-05 -0.00024033465946365 -0.000338138930397657 -0.000102074429755384 -0.000245039610122249 -8.87847719775083e-05 3.64264602471274e-05 6.02491577797717e-05 -0.000399592775770025 1.49119911821216e-05 0.000234327291738522 0.000349603270869325 -5.17946306269504e-05 0.000106279570560219 0.000551733083410132
"83" -0.000277402333808414 1.30081473759616e-05 -0.000242508108803713 -0.000331616312140586 -9.84623923874193e-05 -0.000245048763133401 -9.56117197259461e-05 4.88821954708678e-05 7.5591275590881e-05 -0.00039771483731947 1.70380136057762e-05 0.000206013101460716 0.000336892987354192 -4.36901260260786e-05 0.000110153810647934 0.000558413385018609
"84" -0.000288199367328832 1.03376700496085e-05 -0.000243746948567686 -0.000324330738637529 -9.40753114739829e-05 -0.000244214211268993 -0.000100816378448614 6.06788482201368e-05 9.09742129280381e-05 -0.000395253730817662 1.95499740779078e-05 0.000177715931270895 0.000324525028809947 -3.70156458801984e-05 0.000112320942554045 0.00056928809353739
"85" -0.000298222918023295 7.98081590605349e-06 -0.000244087295097668 -0.000316284124462522 -8.89647126444692e-05 -0.000242564886549298 -0.000104417717212906 7.17910260436879e-05 0.000106218008149885 -0.000392255993149828 2.24160745669621e-05 0.000149748018297481 0.000312656739505823 -3.18514465799727e-05 0.000112748429577953 0.000584251113880454
"86" -0.000307384684597648 5.96057578430197e-06 -0.00024357153834701 -0.000307481279321713 -8.3169638839456e-05 -0.000240128318999379 -0.000106423601537204 8.22259374525456e-05 0.000121169909867197 -0.000388768201159664 2.55997775270149e-05 0.000122418462501429 0.000301430802120724 -2.82571351966029e-05 0.000111426660738901 0.000603183879374911
"87" -0.000315620793479614 4.28267200640362e-06 -0.000242238267565709 -0.000297922802495509 -7.67390192708244e-05 -0.000236930792686115 -0.000106862828801396 9.19926108984536e-05 0.000135681580516334 -0.000384830135520963 2.90656041513255e-05 9.60280036683219e-05 0.000290980010240967 -2.62631198667371e-05 0.000108369285478376 0.000625960424942174
"88" -0.000322855480306473 2.96344156875743e-06 -0.000240135824025514 -0.000287627848802174 -6.97317050617123e-05 -0.000233010489664936 -0.000105773158527493 0.000101102567591705 0.000149605497215447 -0.000380495172712088 3.27758336060347e-05 7.08380062032463e-05 0.000281435385534143 -2.58796946043356e-05 0.000103606581032251 0.000652473740124995
"89" -0.000329028708683068 2.00825185634174e-06 -0.000237309664082525 -0.00027660255449217 -6.21980600465601e-05 -0.000228399045689826 -0.000103194288416071 0.000109587617397515 0.00016281649900022 -0.000375801961582358 3.66846557697009e-05 4.71079787706265e-05 0.000272900701498177 -2.71101879239608e-05 9.71855638443459e-05 0.000682566341577974
"90" -0.000334073066975943 1.43251979868026e-06 -0.000233809520208294 -0.000264869226835676 -5.41965482057621e-05 -0.000223134418492442 -9.91847843032451e-05 0.000117467360423312 0.000175188189249151 -0.000370803001719651 4.07576542205094e-05 2.50590736605599e-05 0.000265493709576221 -2.99242500764373e-05 8.91735370417841e-05 0.000716140465920717
"91" -0.000337941304416834 1.23201327017623e-06 -0.000229681408542514 -0.000252446223759372 -4.57872014148313e-05 -0.000217254976482762 -9.3806266968582e-05 0.000124791834865678 0.000186616461772487 -0.000365536053901436 4.49490524280403e-05 4.90318974256415e-06 0.00025928761889119 -3.4288009137937e-05 7.96485303547011e-05 0.000753021716891572
"92" -0.000340588827271602 1.41828826526897e-06 -0.000224975156298298 -0.000239364993099264 -3.70266922230729e-05 -0.000210802179889953 -8.71284728145234e-05 0.000131591437533421 0.000197003081361572 -0.000360051882973851 4.92206934552582e-05 -1.31970898688544e-05 0.000254369253879863 -4.01442290621362e-05 6.87059554379699e-05 0.000793078333978941
"93" -0.000341971332878459 1.98941068717367e-06 -0.000219736851410738 -0.000225650170370515 -2.79700900594779e-05 -0.000203815570141538 -7.92261948755332e-05 0.000137918200711346 0.000206261537533093 -0.000354384532220604 5.35299614046711e-05 -2.90772519774556e-05 0.000250784111409485 -4.74344652975488e-05 5.643525048553e-05 0.000836106373626539
"94" -0.000342067005480326 2.94346462124622e-06 -0.000214017508125697 -0.00021133590687464 -1.86849101051757e-05 -0.000196334777833098 -7.01800500928226e-05 0.000143818191249286 0.000214325427914303 -0.00034857099817406 5.78406580345522e-05 -4.26214520707052e-05 0.000248579850195807 -5.60724742317643e-05 4.29631722372239e-05 0.000881937585112529
"95" -0.000340850686419905 4.27754542331064e-06 -0.000207862693218154 -0.000196461393825805 -9.22289900732209e-06 -0.000188405445601277 -6.00803853860168e-05 0.000149343852266458 0.000221123133933677 -0.000342655040598636 6.21128502058038e-05 -5.37401240469287e-05 0.000247783252257953 -6.59733623460299e-05 2.8397133193796e-05 0.000930365333059242
"96" -0.000338308247178383 5.99801118717435e-06 -0.000201313849987425 -0.000181067524568998 3.59970199603963e-07 -0.000180066148942587 -4.90106579437994e-05 0.000154550765930889 0.000226615517445814 -0.000336670479718195 6.63102987109471e-05 -6.23552778094841e-05 0.000248395402186819 -7.7041487215952e-05 1.28665120846914e-05 0.000981144874990946
"97" -0.000334438564668944 8.09009515550382e-06 -0.000194416224728706 -0.000165197792233 1.00078144740584e-05 -0.000171358964588222 -3.70701920739362e-05 0.000159488990862264 0.000230762444642677 -0.000330646695440252 7.04015387619264e-05 -6.84265768916082e-05 0.000250407006665049 -8.91690739769646e-05 -3.50351342925715e-06 0.00103402630281306
"98" -0.00032924265639109 1.05551764473344e-05 -0.000187208179930721 -0.000148903876628192 1.96695530706401e-05 -0.000162324834210697 -2.43572399887259e-05 0.000164208749225813 0.000233542040766558 -0.000324613848146499 7.43512127208204e-05 -7.19476382524546e-05 0.000253793210249694 -0.000102244758789922 -2.05701140589506e-05 0.00108875575040466
"99" -0.000322739495096263 1.33855171919748e-05 -0.000179728396724684 -0.000132230619538243 2.92976056894775e-05 -0.000153001977439355 -1.09610640011286e-05 0.000168770867633717 0.000234934689995001 -0.000318599428596034 7.8127342368593e-05 -7.29140350518847e-05 0.000258499420052813 -0.000116152876833522 -3.82142458821357e-05 0.00114499970097195
"100" -0.000314949187888626 1.65679551916408e-05 -0.000172012094336854 -0.000115235870345344 3.88442873990731e-05 -0.000143429730094116 3.01075980204711e-06 0.00017322024282091 0.000234944182449046 -0.000312625590695243 8.17022998555325e-05 -7.13656429337505e-05 0.000264461692546281 -0.000130765076464685 -5.62867011947228e-05 0.00120245019354529
"101" -0.000305897777400291 2.01080196415689e-05 -0.000164089876183505 -9.79727790884037e-05 4.82723184009092e-05 -0.000133646031133495 1.74657457347118e-05 0.000177607812471658 0.000233582540484398 -0.000306719471224939 8.50489394454967e-05 -6.73517303700775e-05 0.00027160110062739 -0.000145955443383198 -7.46563754265492e-05 0.00126075051966851
"102" -0.000295636624955887 2.39824633352951e-05 -0.00015599186894466 -8.04985096336655e-05 5.75369300526492e-05 -0.000123688855429567 3.23074649376894e-05 0.000181975138729842 0.000230863528931792 -0.000300895562046514 8.81468891341725e-05 -6.09529195745943e-05 0.000279822560902122 -0.000161595693140982 -9.31793098541954e-05 0.00131954672173238
"103" -0.000284204930530198 2.81887445800714e-05 -0.000147746028430366 -6.28731478351412e-05 6.66098665449934e-05 -0.000113587422156066 4.74364500719531e-05 0.000186362399226536 0.00022682422817931 -0.000295167455992566 9.09691642373826e-05 -5.22619750851456e-05 0.000289001245194257 -0.000177545952622111 -0.000111729707665915 0.00137841646015072
"104" -0.000271665034503973 3.2717216928664e-05 -0.000139372875895339 -4.51545877689389e-05 7.54551300465822e-05 -0.000103377845921997 6.27627929320263e-05 0.000190808820214768 0.000221496399753725 -0.000289556865183348 9.34970539881683e-05 -4.13939831716119e-05 0.000299022662804481 -0.000193675295223574 -0.00013017047527022 0.00143698158503977
"105" -0.000258067237591785 3.75675642873816e-05 -0.0001308929642801 -2.74028404806562e-05 8.40472709454146e-05 -9.30901946427026e-05 7.81935450868134e-05 0.000195348454622431 0.000214935921769315 -0.000284073470628038 9.57148089241534e-05 -2.84767652336472e-05 0.000309745520266734 -0.000209838742474573 -0.000148365469314005 0.00149480433635041
"106" -0.000243496640725847 4.27133876548572e-05 -0.000122325623950314 -9.67907549442124e-06 9.23697510587717e-05 -8.27540353332335e-05 9.36470343634389e-05 0.000200004183064157 0.000207198332915846 -0.000278722455294368 9.7604013867893e-05 -1.36555045642398e-05 0.000321013401114439 -0.000225903798275749 -0.000166194746144867 0.00155143664542601
"107" -0.000228017611718717 4.81585544115186e-05 -0.000113683627502434 7.95837731043703e-06 0.000100401061745116 -7.23949836149039e-05 0.000109035839322499 0.00020479945004133 0.000198348770642 -0.000273515461606889 9.91517074223474e-05 2.91420060297689e-06 0.000332676664154141 -0.000241728931392982 -0.000183530239874046 0.00160644483681349
"108" -0.000211716844003987 5.38845245146637e-05 -0.000104982292403869 2.54505895546267e-05 0.000108125196682979 -6.20385036646216e-05 0.000124284671524702 0.000209751449801612 0.000188459669960986 -0.000268457332000594 0.000100350528775071 2.10592466295866e-05 0.000344566235049615 -0.000257178135643515 -0.000200253378932404 0.00165937448914323
"109" -0.000194681705903029 5.98840207760517e-05 -9.62279008679829e-05 4.27427215884493e-05 0.000115538685195002 -5.17061315146503e-05 0.000139327223403301 0.00021487762016614 0.000177615060622543 -0.000263552160401576 0.000101186498508526 4.06181077052826e-05 0.000356511615844558 -0.000272123061617013 -0.000216255556828543 0.00170975531540652
"110" -0.000176992095004366 6.61537019831685e-05 -8.74326908912132e-05 5.97741105866095e-05 0.000122632828899422 -4.14215254542303e-05 0.000154085447138764 0.000220173046668273 0.000165894107237397 -0.000258803253138551 0.000101657603204506 6.13865684384213e-05 0.000368346821322851 -0.000286420968759669 -0.000231422512361825 0.00175716361109755
"111" -0.000158747713534455 7.26800689686659e-05 -7.86017263712615e-05 7.64931961340166e-05 0.000129405916653281 -3.1202564310953e-05 0.000168506819316643 0.000225650403719661 0.000153396080649989 -0.000254212357770915 0.000101757511041261 8.31889442501672e-05 0.000379898104536262 -0.000299955163190974 -0.000245656411905334 0.0018011431350437
"112" -0.00014004365537547 7.94485559086951e-05 -6.97433518624725e-05 9.284492796126e-05 0.000135856024242761 -2.1068702220789e-05 0.000182531068442332 0.000231292066609564 0.000140204289433954 -0.000249779774231445 0.000101485815469141 0.000105824985785019 0.000390999452975896 -0.000312603776629433 -0.000258871866109695 0.00184128289324841
"113" -0.000120978059033468 8.64500528795591e-05 -6.08554630795202e-05 0.000108790049195822 0.000141996648501132 -1.10282475390928e-05 0.000196117792188139 0.000237106776102753 0.000126432332232787 -0.000245504168971071 0.000100843044787268 0.000129114271455612 0.00040147184331101 -0.000324254014005375 -0.00027098215157737 0.00187712497595444
"114" -0.000101642520702832 9.36825097938395e-05 -5.19480559407733e-05 0.000124271195773608 0.00014783129853787 -1.10566461364693e-06 0.000209219630557177 0.000243066694944805 0.000112170312024915 -0.000241384962264268 9.98333586302891e-05 0.000152841073151604 0.000411180248634049 -0.000334792140215492 -0.000281904697503693 0.00190833953292904
"115" -8.214521239925e-05 0.000101127215909565 -4.30177843095708e-05 0.000139254627428844 0.000153368684155101 8.69426131087458e-06 0.000221801024390704 0.000249159169349817 9.7521955151826e-05 -0.000237420451038057 9.84583622313184e-05 0.00017682758292949 0.00041995357419582 -0.000344132421791667 -0.000291584147162587 0.00193450580846668
"116" -6.25771297435408e-05 0.000108769165828008 -3.40743760015498e-05 0.000153693869080021 0.000158621697863871 1.83555041623051e-05 0.000233832736106522 0.000255359941445073 8.25888863521302e-05 -0.000233605516799236 9.67298308336249e-05 0.000200872632991429 0.000427664877028147 -0.000352184418327863 -0.00029996870916621 0.00195532348080165
"117" -4.30274621886851e-05 0.000116615223624308 -2.51173064565477e-05 0.000167556069658395 0.00016361063343152 2.78714139147222e-05 0.000245295459502394 0.000261646602443133 6.74777268855054e-05 -0.000229942540231233 9.46590436261166e-05 0.000224794767699223 0.000434184580648655 -0.000358873292109896 -0.000307004085848355 0.00197048207102095
"118" -2.35990852361853e-05 0.000124641637946166 -1.61540600622104e-05 0.000180801508291395 0.000168341141560799 3.72267357652464e-05 0.000256160404746335 0.000267979060763491 5.22915932567699e-05 -0.000226426495842531 9.22600074648147e-05 0.000248404727524507 0.000439406387925296 -0.000364137389260394 -0.00031266244021909 0.00197973070465037
"119" -4.37890731443303e-06 0.000132829047993591 -7.18250523834181e-06 0.000193412464837655 0.000172839307238896 4.64205964924181e-05 0.000266430689189196 0.000274339175942161 3.71222426210121e-05 -0.000223050453198403 8.95438280480077e-05 0.000271538172871523 0.000443217638845516 -0.000367932689938629 -0.000316927364466103 0.00198281246874668
"120" 1.45481463550524e-05 0.000141176635176611 1.78375584300974e-06 0.000205353520287349 0.000177114977283284 5.54389355619015e-05 0.000276088624562679 0.000280678335238658 2.20692937876211e-05 -0.00021981369110063 8.65321112558695e-05 0.000294016876937511 0.000445550398498934 -0.0003702198823939 -0.000319786101980525 0.00197957837953652
"121" 3.30990200033961e-05 0.000149660593598832 1.07421248684563e-05 0.000216606218052691 0.000181189063272344 6.42744526393701e-05 0.000285137251098749 0.000286969398748036 7.22476031568962e-06 -0.000216710019421529 8.32451996291344e-05 0.000315692014357612 0.000446335165377769 -0.000370989385471955 -0.000321249515471502 0.00196987731680957
"122" 5.11936627176251e-05 0.000158269479254141 1.9679081456579e-05 0.000227148510738382 0.000185080064871129 7.29226463545454e-05 0.000293577861574004 0.000293162620306335 -7.32436962820315e-06 -0.000213733274070817 7.97061834252888e-05 0.000336410136492926 0.000445531098949976 -0.000370234889901998 -0.000321332274825401 0.00195363930320298
"123" 6.87683431737916e-05 0.00016699005446697 2.85925515659705e-05 0.000236968766480759 0.000188803917486023 8.13735320792646e-05 0.000301426627689625 0.000299229256117697 -2.14916259620855e-05 -0.000210881915404736 7.59378765792203e-05 0.000356043137895853 0.00044310604213386 -0.000367971079770764 -0.000320067850119571 0.00193080281092861
"124" 8.57483772153678e-05 0.000175793165162568 3.74638473596331e-05 0.000246054340153456 0.000192376122538497 8.96190198311375e-05 0.000308686251836435 0.000305123910014881 -3.52076166538674e-05 -0.000208148850489269 7.19676060290764e-05 0.000374458748243286 0.000439056564498708 -0.000364235086010464 -0.000317499002305895 0.00190139390869844
"125" 0.000102082648174627 0.000184674934027253 4.62804018361289e-05 0.000254390992738481 0.000195809887617381 9.76525398358065e-05 0.000315371886434089 0.00031080229823758 -4.83968677774023e-05 -0.000205527924778253 6.78275607745579e-05 0.00039154335637998 0.000433397378061076 -0.000359067211439285 -0.000313681007662431 0.00186548850803473
"126" 0.00011771206076961 0.00019359696730903 5.50270704758424e-05 0.000261978068128725 0.000199121989371514 0.00010546401861673 0.000321508658151554 0.000316227621427783 -6.0998081447767e-05 -0.000203011388777428 6.35448434830253e-05 0.000407199855273587 0.000426144421949698 -0.000352544225972345 -0.000308681241239363 0.00182316982900255
"127" 0.000132597162324654 0.000202553690457337 6.36834209848372e-05 0.000268805859249903 0.000202319049806975 0.000113042938715028 0.000327109705063839 0.000321358447843471 -7.29546476898493e-05 -0.000200597639974546 5.91507279083519e-05 0.00042133810914446 0.000417364720180432 -0.000344739325985449 -0.000302578411384199 0.00177465013547416
"128" 0.000146695302505454 0.00021150765839546 7.2234220225467e-05 0.000274876217974184 0.00020541210344548 0.000120382448049043 0.000332201836451245 0.000326159548914391 -8.42226448690684e-05 -0.000198271127465888 5.46794571989813e-05 0.000433890179566358 0.000407109246457861 -0.000335753437701664 -0.000295471262452985 0.00172012241236881
"129" 0.000159973643621825 0.000220429894392939 8.06523706488752e-05 0.000280191846846455 0.00020840453531939 0.000127469573599994 0.000336806616803935 0.000330589110779809 -9.47578210590512e-05 -0.000196027309007264 5.01661323497948e-05 0.000444790703363861 0.000395459959211557 -0.00032570231352276 -0.00028745167973257 0.00165985843010777
"130" 0.000172412560088775 0.000229307627426978 8.89193390789679e-05 0.000284749650380258 0.000211305529972555 0.000134293294600416 0.000340947268137078 0.000334617670650832 -0.000104524233046313 -0.000193857151692564 4.56422993761145e-05 0.00045399099739519 0.000382523321273072 -0.000314701708354236 -0.000278630408560655 0.00159419741980867
"131" 0.0001839883105949 0.000238093327185881 9.70062124445378e-05 0.000288560323647406 0.000214112780772392 0.000140838809897229 0.00034464959624795 0.000338213488072992 -0.000113501518936926 -0.000191751790232028 4.11437955826052e-05 0.000461463352977479 0.00036840364943963 -0.000302904022520692 -0.00026912899490988 0.00152349692156626
"132" 0.000194700650881307 0.000246775368008983 0.000104889668631064 0.000291624490235501 0.000216823750815997 0.000147092342490065 0.000347936745759123 0.000341340890353336 -0.000121669368241649 -0.000189706413709549 3.67059929430012e-05 0.000467183135480336 0.000353225762057172 -0.000290448481872077 -0.00025906797362603 0.00144817354876319
"133" 0.000204534953680993 0.000255305475791324 0.000112542440569414 0.000293952940584565 0.000219435793855737 0.000153044379527684 0.00035083420861581 0.00034398472241528 -0.000129014074440005 -0.000187701456678896 3.23632829922696e-05 0.000471148372210364 0.000337123074169025 -0.000277487037606109 -0.000248572314206983 0.0013686766175909
"134" 0.000213495157577338 0.000263652727328899 0.000119930515811593 0.000295554982209282 0.000221941525150225 0.000158671419548717 0.000353358126505202 0.000346113536437603 -0.000135539281017081 -0.00018573420145661 2.81474071029233e-05 0.000473358282387882 0.000320239831582992 -0.000264196770636948 -0.000237776954555615 0.00128551368206426
"135" 0.000221593792755277 0.000271787702809974 0.000127031481124255 0.000296438652981901 0.000224337019753611 0.000163965586492654 0.00035553546748825 0.000347715094414554 -0.000141235128510789 -0.000183792330777414 2.40957737591253e-05 0.000473840341522917 0.000302726606253849 -0.000250731927221046 -0.000226814885320974 0.00119919924725024
"136" 0.000228842090911791 0.000279665382382836 0.000133812131507991 0.0002966157740966 0.000226597550285883 0.00016890442401441 0.000357382923426547 0.000348772049743885 -0.000146120243932008 -0.000181867247313434 2.02369009216602e-05 0.000472621401071476 0.000284737184631084 -0.000237266719630395 -0.000215814904997017 0.00111029607894805
"137" 0.00023525537775932 0.000287253793549074 0.000140244595008323 0.00029609919471349 0.000228720448314655 0.000173472893500143 0.000358914622121639 0.000349272327567378 -0.000150207879317126 -0.000179954331846933 1.66022332669562e-05 0.000469750645099823 0.000266433008271289 -0.000223973660629069 -0.000204918291399003 0.00101938151819665
"138" 0.000240860805438157 0.000294513517175019 0.00014630343305759 0.000294901907080831 0.000230681885425741 0.000177654703336982 0.000360151047677754 0.000349212813494558 -0.000153508365290993 -0.000178037215812276 1.32189875598507e-05 0.000465284852725571 0.000247969921266367 -0.000211013901177042 -0.000194243956640951 0.000927049820015595
"139" 0.000245684841803872 0.000301411780497927 0.000151958418839241 0.000293035410597159 0.000232469118135624 0.000181435143806129 0.00036110053764164 0.000348589672105694 -0.000156050278152711 -0.000176116628877482 1.01145398364031e-05 0.00045929279110113 0.000229508710971156 -0.000198546298957287 -0.00018392325904589 0.000833914860050019
"140" 0.000249752346029697 0.000307898807873945 0.000157177198210837 0.00029051616357738 0.000234051885584469 0.000184791236784016 0.000361767080939949 0.000347401241450027 -0.000157865287823394 -0.000174181319486389 7.31393205308435e-06 0.000451848220645527 0.000211214030712305 -0.000186725452849712 -0.000174063355632259 0.00074062216564141
"141" 0.000253095011306396 0.000313940108643481 0.000161943086051484 0.000287361885069518 0.000235416868664137 0.000187715506310156 0.000362164084801006 0.000345661764379094 -0.000158976615548669 -0.000172227731756611 4.83589290580598e-06 0.000443053820656096 0.000193228653837763 -0.000175695200407886 -0.000164782963448253 0.000647761234092278
"142" 0.00025575622747721 0.000319506803694503 0.000166232038094405 0.000283586561340312 0.000236543996071093 0.000190187351303798 0.000362295096470289 0.000343378250155602 -0.000159409625418561 -0.000170255733470267 2.70388568664828e-06 0.000433009054540968 0.00017570192285545 -0.000165580531175279 -0.00015617667387698 0.000555960965925457
"143" 0.00025775973907581 0.000324554106522272 0.000170015821638521 0.000279206559500416 0.000237400552469974 0.000192191702020564 0.000362157786031289 0.000340559352052844 -0.000159211519400803 -0.000168263289457152 9.33066104270796e-07 0.000421817120104294 0.000158778290529646 -0.000156509148081581 -0.000148338939021946 0.000465844659587909
"144" 0.000259149518206376 0.000329047874641978 0.000173282471222367 0.000274238485104124 0.000237964883587018 0.000193716176427945 0.000361742559590639 0.000337224563255847 -0.000158413284407779 -0.000166248287390407 -4.66139295384881e-07 0.00040959730493127 0.000142584127035535 -0.000148573437108805 -0.000141345560813834 0.000377987715612777
"145" 0.000259956089167087 0.000332949972448601 0.00017601204875727 0.000268701391140471 0.000238217994962262 0.000194752704771093 0.000361055431959323 0.0003333993018981 -0.000157049209542454 -0.000164213199564998 -1.47965829225938e-06 0.000396477526716475 0.000127240691672811 -0.000141864122272645 -0.000135261654486024 0.000292974449541507
"146" 0.000260221316161962 0.000336237055191306 0.000178193190362999 0.000262612157213786 0.000238129426246466 0.000195286731251933 0.000360080266127839 0.000329100174753847 -0.000155159624543257 -0.0001621626288706 -2.09647367515748e-06 0.000382582831345206 0.000112866265589819 -0.000136440996195522 -0.000130143018850791 0.000211354319443949
"147" 0.000259981191830228 0.000338881377705572 0.00017981901139845 0.000255990572558719 0.000237682851553884 0.000195313898367171 0.000358812936785109 0.000324358407570937 -0.000152773200628945 -0.000160102734333649 -2.32082211249049e-06 0.000368053182550393 9.95439855372465e-05 -0.000132364056758997 -0.000126029864629791 0.000133608393185146
"148" 0.000259264640844406 0.000340844410691176 0.000180874660934102 0.000248852089043535 0.000236852615053199 0.000194825992842503 0.000357237928089184 0.000319200282143794 -0.000149930309903233 -0.000158040247050575 -2.14231532078246e-06 0.000353015497493624 8.73758211548212e-05 -0.000129662765804266 -0.000122953788667054 6.02496576742757e-05
"149" 0.00025810854368333 0.000342111979440389 0.000181364608512167 0.000241220558276191 0.000235618575487773 0.00019381838477384 0.000355344006617264 0.000313659461844519 -0.000146668214016398 -0.000155980378921898 -1.56427641773692e-06 0.000337613847696032 7.64280151207625e-05 -0.000128353745271266 -0.000120926787400446 -8.31543082214418e-06
"150" 0.000256540753313843 0.000342659999612692 0.000181286555741161 0.000233112030548458 0.000233963501712938 0.000192293189624821 0.000353112964661496 0.000307765738201223 -0.000143011758356073 -0.000153931797866981 -5.93053318382351e-07 0.000321976093872929 6.67596632255439e-05 -0.000128434112383094 -0.000119952170204251 -7.169498104551e-05
"151" 0.000254589757846484 0.000342465189400163 0.000180642191973508 0.00022454649642058 0.000231869212877914 0.000190248069427477 0.000350532759798291 0.000301561420036653 -0.000138994042562469 -0.000151906151210751 7.65809945633397e-07 0.000306243981995109 5.84227734010752e-05 -0.00012988110216694 -0.000120016446177361 -0.000129548093541639
"152" 0.000252292113616149 0.000341528455544895 0.000179439546737961 0.000215537787733447 0.000229318735137679 0.000187685862133985 0.000347580203869982 0.000295072396701377 -0.000134645898919683 -0.000149914404326224 2.50993458938889e-06 0.000290533742139076 5.14618382273437e-05 -0.000132658978233681 -0.0001211039605236 -0.000181560829207366
"153" 0.000249661407895902 0.000339835454023071 0.000177694672913462 0.000206109649155683 0.000226309502797684 0.000184614228199801 0.000344244302280412 0.000288345315722247 -0.000129990409268839 -0.000147965950325868 4.62037707540168e-06 0.000274979668150471 4.58866175451167e-05 -0.000136719328604231 -0.000123173021181721 -0.000227540116549324
"154" 0.000246722046318866 0.000337377613993097 0.000175416164694442 0.000196278771422331 0.000222826288525474 0.000181041928449976 0.000340505278460845 0.000281415013651846 -0.000125057255308942 -0.000146072648732683 7.08179910233731e-06 0.000259702535809037 4.17070444757543e-05 -0.000142000160215406 -0.000126192833735112 -0.000267307946116308
"155" 0.000243500376520232 0.000334168349628979 0.000172626665532385 0.000186061965718887 0.000218867573900647 0.000176980869693294 0.00033634779794523 0.000274319095050875 -0.000119859025578185 -0.000144246367805861 9.88869249025747e-06 0.000244807000203309 3.89315755596229e-05 -0.000148412369807181 -0.000130094086377917 -0.000300719867869791
"156" 0.000240001416298049 0.000330199945764915 0.000169350083934163 0.000175482413254121 0.000214433251644798 0.000172443398569007 0.000331757379455155 0.000267101253440551 -0.000114415926043546 -0.000142496056218323 1.30129564652296e-05 0.000230403803961926 3.75378703873818e-05 -0.000155873386839903 -0.000134827952765112 -0.000327748206315522
"157" 0.000236247671691527 0.000325490767244103 0.000165604463657015 0.000164552201786861 0.000209521237371121 0.000167446625463205 0.000326715827189169 0.000259792244108462 -0.00010875523857072 -0.000140834801775194 1.64389733573379e-05 0.000216579719927263 3.75065517689077e-05 -0.000164281414587439 -0.000140316341034582 -0.000348382468269966
"158" 0.000232246357520623 0.00032004623238503 0.000161421608094923 0.000153293745435653 0.000204137261136428 0.000162012310778707 0.000321213031942908 0.000252435417476376 -0.000102881957178062 -0.000139270249038753 2.01478364873556e-05 0.000203428404342107 3.88019423183281e-05 -0.000173527523110587 -0.000146485015922565 -0.000362679623423136
"159" 0.000228010722955814 0.000313895118491091 0.000156827396181395 0.000141717142938876 0.000198290870632605 0.000156156223601831 0.000315233864866523 0.000245060348455491 -9.68131101476855e-05 -0.000137820042468221 2.41139409380599e-05 0.000191014010878094 4.13852541166523e-05 -0.000183488869216453 -0.000153251430016473 -0.000370745562677519
"160" 0.000223546307053723 0.000307065849297509 0.000151865012445481 0.00012984824645318 0.00019199980032429 0.000149910475730694 0.000308775694658484 0.000237716254888982 -9.05560266724863e-05 -0.000136488687759723 2.83173329647253e-05 0.000179415944231185 4.52003816768585e-05 -0.000194044194088796 -0.000160520293857383 -0.000372763752836591
"161" 0.000218850678216199 0.000299578314278788 0.000146564350654219 0.000117707937120356 0.000185279202243797 0.00014330032910302 0.000301834813597732 0.000230435266786631 -8.41242057615676e-05 -0.000135286201229051 3.27277001536999e-05 0.000168691803837359 5.01781242203008e-05 -0.000205068801058673 -0.000168212744980132 -0.000368968368473442
"162" 0.000213932260022188 0.000291467913456361 0.000140961128328445 0.000105306700263032 0.000178145395076149 0.0001363545633338 0.000294393593875491 0.000223241470943267 -7.75215200876986e-05 -0.000134221116637211 3.73250797090043e-05 0.00015887836485601 5.6259840699724e-05 -0.000216423268522212 -0.000176224020286354 -0.000359607443318459
"163" 0.000208796607472852 0.000282779164479888 0.000135096982243525 9.2669830020479e-05 0.000170627186264914 0.000129103897158568 0.000286462837359016 0.000216175750061111 -7.07578073834586e-05 -0.000133309350780239 4.20808690108868e-05 0.000150022221626849 6.33738034436007e-05 -0.000227979977787311 -0.000184462657141226 -0.000344996965030214
"164" 0.000203434510204718 0.000273552015667051 0.000129013948227939 7.98105342357565e-05 0.000162746435246536 0.000121581144098959 0.000278037919848979 0.000209267960896165 -6.38351958286849e-05 -0.000132554505999045 4.69715580198094e-05 0.000142140155716326 7.14352221639072e-05 -0.000239592218381911 -0.000192821902940802 -0.000325486647533538
"165" 0.000197848904580974 0.000263830240029316 0.000122751984314365 6.67587024140151e-05 0.000154542348692064 0.000113829131872462 0.000269125215563195 0.000202546764881015 -5.67614776342854e-05 -0.000131963058956925 5.19666252844253e-05 0.000135260476550572 8.03617666221412e-05 -0.00025112938915497 -0.000201206619474222 -0.000301478064205375
"166" 0.000192038560699909 0.000253673020424512 0.00011635421378964 5.35247543630937e-05 0.000146042950650811 0.00010587556799083 0.000259731914926467 0.000196033593746262 -4.95377641106287e-05 -0.000131548851326639 5.70407278365316e-05 0.00012937859875118 9.00687273546695e-05 -0.000262453441975661 -0.000209514174123471 -0.000273373875191076
"167" 0.000186003160914156 0.000243126552959174 0.000109863383942654 4.01372696305199e-05 0.000137288921072629 9.7765149583521e-05 0.000249873660540838 0.000189762934721839 -4.2165771558713e-05 -0.000131321119054822 6.21667731180501e-05 0.000124503738801762 0.000100464092255694 -0.000273434491027255 -0.000217649715605597 -0.000241625735086005
"168" 0.000179730324611924 0.000232245209201452 0.00010332039390491 2.66161629311586e-05 0.000128312784683416 8.95368426045057e-05 0.000239560632823907 0.000183749668530188 -3.46527106715701e-05 -0.000131282354267923 6.73155174939073e-05 0.000120615549324142 0.000111455557271758 -0.000283932175111682 -0.000225508284609453 -0.00020670712450072
"169" 0.000173223359750444 0.000221093198101328 9.67687342823606e-05 1.29866139039752e-05 0.000119162886872323 8.12285019588001e-05 0.000228807242571692 0.00017801528540112 -2.6998093477165e-05 -0.000131444978847955 7.24628530720459e-05 0.000117699311324587 0.000122954185067706 -0.000293823865388056 -0.000232996778246215 -0.00016907854622957
"170" 0.00016647748079491 0.000209726251830182 9.02489193593712e-05 -7.26938422514657e-07 0.000109874889878989 7.2883236750425e-05 0.000217636390340512 0.000172579602098939 -1.92094864915695e-05 -0.000131814038665674 7.75784134760725e-05 0.000115722655545307 0.000134860874662731 -0.000302980362793599 -0.00024002093260998 -0.000129254168039859
"171" 0.000159491595992048 0.000198208243696485 8.38003093389273e-05 -1.45005633206842e-05 0.000100497843891677 6.45406271409295e-05 0.000206071970268763 0.000167455213154344 -1.12820247850988e-05 -0.000132399551754004 8.26429995178345e-05 0.00011465184395915 0.000147092447279954 -0.000311286137761015 -0.000246482398705514 -8.7707399260218e-05
"172" 0.000152263552051969 0.000186603407996638 7.74668300411067e-05 -2.83048887167211e-05 9.10780712574621e-05 5.62450418926332e-05 0.000194138400707313 0.000162659642362839 -3.22565964495693e-06 -0.000133210813916801 8.76208049398894e-05 0.000114442635219989 0.00015954962321231 -0.000318618764282823 -0.000252293744376929 -4.49548812095947e-05
"173" 0.0001447938280819 0.000174970568348936 7.12743433031312e-05 -4.21165109906e-05 8.16548785178639e-05 4.80314760787856e-05 0.000181862082820175 0.000158194855746269 4.95947356263199e-06 -0.000134251237233685 9.24936429099293e-05 0.000115041116603464 0.000172152867579051 -0.000324878908849662 -0.000257369711464155 -1.46309755331525e-06
"174" 0.000137075492446497 0.000163365561485868 6.52621618860602e-05 -5.590751348577e-05 7.22735588798298e-05 3.99416911897596e-05 0.000169271026466258 0.000154067195188154 1.32634698667093e-05 -0.000135534491736727 9.72344009512883e-05 0.000116385542041583 0.000184813247773769 -0.000329958795093666 -0.000261623529592463 4.22780066591444e-05
"175" 0.000129124887989848 0.000151869764731388 5.94651095854744e-05 -6.96449477225381e-05 6.29863011600524e-05 3.20164856782457e-05 0.000156409619017888 0.000150293135302402 2.1681396131386e-05 -0.000137066469343947 0.000101817187964885 0.000118421452909089 0.000197444904505059 -0.00033375959858439 -0.000264973849580477 8.57853311388674e-05
"176" 0.000120933019649438 0.000140528203797158 5.39075827467443e-05 -8.33013320135866e-05 5.38283535571656e-05 2.42889962231169e-05 0.000143298254823489 0.000146864973493654 3.02133071429663e-05 -0.000138856899957455 0.000106220139694478 0.000121074618574917 0.000209976966363791 -0.000336198261901612 -0.000267348178811382 0.000128634006309494
"177" 0.000112510602259362 0.000129403686763374 4.86185377805569e-05 -9.68483553956301e-05 4.4848234811936e-05 1.67937704792105e-05 0.000129984067231811 0.000143787216361088 3.88461341546842e-05 -0.000140911839588579 0.000110419990145855 0.000124268833556686 0.000222329111988054 -0.000337189951722996 -0.000268671820772644 0.000170371759367097
"178" 0.000103864272540622 0.000118551158373889 4.361567644776e-05 -0.000110255022704383 3.60826216891412e-05 9.56484063738417e-06 0.000116494305968071 0.000141055224149211 4.75713656860448e-05 -0.000143237810604796 0.000114398173244218 0.000127919179957407 0.000234434806784862 -0.000336664191887558 -0.000268873266937842 0.000210615404011138
"179" 9.50037637845783e-05 0.0001080279682847 3.89225332672858e-05 -0.00012349204203837 2.75759894314908e-05 2.63166283607e-06 0.000102875307105005 0.000138664956397729 5.63787858443698e-05 -0.000145844562119278 0.00011812803787846 0.00013195296146707 0.000246230521935846 -0.000334559922073339 -0.000267892875641288 0.000248983183027591
"180" 8.59405082054125e-05 9.78839013665942e-05 3.45521901285904e-05 -0.000136532057357832 1.93524423010451e-05 -3.97916484833075e-06 8.91569043677927e-05 0.0001366048609211 6.52583494522772e-05 -0.000148738719352668 0.000121596642331977 0.000136264825216483 0.000257657363519402 -0.000330814101154848 -0.000265667427388369 0.000285142379717487
"181" 7.6682881550611e-05 8.8154834268308e-05 3.05164222970737e-05 -0.000149340255380331 1.14575710874102e-05 -1.02414916785004e-05 7.5386190745915e-05 0.000134870216267328 7.41966133170623e-05 -0.000151925280656988 0.000124779155465036 0.00014077854765697 0.000268659214586714 -0.000325386707983205 -0.000262144456303094 0.000318776215674044
"182" 6.72527488312017e-05 7.89011125977816e-05 2.68234399961851e-05 -0.000161891344790151 3.91554168617698e-06 -1.613718605852e-05 6.15927803110386e-05 0.000133446211268122 8.31778501752897e-05 -0.000155410967838468 0.00012766249084764 0.000145393170484992 0.000279191325523515 -0.000318242359122437 -0.000257276734070989 0.000349631967447236
"183" 5.76574054301035e-05 7.01438412409531e-05 2.34806684535319e-05 -0.000174151581989818 -3.24595393266911e-06 -2.16453825417966e-05 4.782490907591e-05 0.000132323076683245 9.21856053988964e-05 -0.00015919826211182 0.000130229810986642 0.0001500209407603 0.000289207700459869 -0.000309356291467286 -0.000251020362124532 0.000377460430827671
"184" 4.79238857546212e-05 6.19333155806514e-05 2.04840292966287e-05 -0.000186103172128735 -1.00056376376196e-05 -2.67549513931443e-05 3.41118024977024e-05 0.000131479629014458 0.000101197734672402 -0.000163296116774471 0.000132463998928863 0.000154560015753105 0.000298672358930628 -0.000298711359935751 -0.000243344219561771 0.000402095226313541
"185" 3.80649371052813e-05 5.42815646972005e-05 1.78341457624824e-05 -0.000197712129379579 -1.63452461430236e-05 -3.14536278338416e-05 2.04972446265296e-05 0.000130904265849482 0.000110202955024898 -0.000167703443255887 0.000134357040712047 0.000158914972750956 0.000307553979922146 -0.000286305306425009 -0.000234208604429524 0.00042338470837772
"186" 2.81016532240992e-05 4.72139368262545e-05 1.55246265948639e-05 -0.000208956184079989 -2.22503638424412e-05 -3.57367998446507e-05 7.01026079506793e-06 0.000130574809116143 0.000119165396061091 -0.000172415880373589 0.000135892500476552 0.000162991656769446 0.000315822339223278 -0.000272146469833824 -0.000223603392411782 0.000441229616867547
"187" 1.80534293632392e-05 4.07499170480993e-05 1.35436225107109e-05 -0.000219809191530191 -2.77042135271488e-05 -3.95969358744583e-05 -6.31131134131281e-06 0.000130475157412515 0.000128071209397278 -0.000177436745990863 0.0001370627061394 0.000166695744149031 0.000323456137571615 -0.000256256081212569 -0.000211504416750693 0.000455573828471694
"188" 7.95071365120882e-06 3.49085578303178e-05 1.18826124733505e-05 -0.00023025611143848 -3.27055834940507e-05 -4.30388458665098e-05 -1.94377841567105e-05 0.000130581018366103 0.000136897353512174 -0.000182767231864634 0.00013786289400662 0.000169933764098906 0.000330443149883369 -0.000238660114863927 -0.000197909334818242 0.000466420746519438
"189" -2.19277154267401e-06 2.96858129700086e-05 1.05231235113517e-05 -0.000240272690879533 -3.72555892724206e-05 -4.6066980751272e-05 -3.23406758906079e-05 0.000130869716346362 0.000145599595673278 -0.000188397189952749 0.000138279469100544 0.000172609257332446 0.000336761885357733 -0.000219410780776635 -0.000182822887046705 0.000473789099508398
"190" -1.23488614855834e-05 2.50835385610076e-05 9.45118319711936e-06 -0.000249842087851537 -4.13513516747613e-05 -4.86871498280853e-05 -4.49842925064641e-05 0.00013132334782184 0.000154161147666047 -0.000194318621222823 0.000138312831151484 0.000174642569538346 0.000342408726807286 -0.000198559625541129 -0.000166252924105619 0.000477772411357832
"191" -2.24992281551169e-05 2.10958203552522e-05 8.64221609961315e-06 -0.000258947945718978 -4.49993580930286e-05 -5.09118369265171e-05 -5.73541773881211e-05 0.000131914314534376 0.000162540175010097 -0.000200528130811866 0.000137957708981439 0.000175953149157601 0.000347376197761688 -0.000176175501039356 -0.000148228026805427 0.000478488470928263
"192" -3.26141705888237e-05 1.77151769613992e-05 8.0791991525901e-06 -0.000267579205680817 -4.82092711322416e-05 -5.27517289413742e-05 -6.94188128118022e-05 0.000132624000177209 0.000170708982677709 -0.000207011019050837 0.00013721754350979 0.000176459355124026 0.000351661133492347 -0.000152337049618643 -0.000128771845455904 0.000476097887967219
"193" -4.26784242729758e-05 1.49238438454515e-05 7.7353615891328e-06 -0.000275723112736749 -5.09932357653598e-05 -5.42267994536791e-05 -8.11600617741322e-05 0.000133425902351164 0.000178625269163746 -0.000213758049620359 0.000136093383613728 0.000176097017880386 0.000355263303637254 -0.000127151062349864 -0.000107934664355204 0.000470800165560192
"194" -5.26708946227274e-05 1.26949334063759e-05 7.58929756273565e-06 -0.000283367722388596 -5.33701964744825e-05 -5.53582789535702e-05 -9.25601371041914e-05 0.000134298344263887 0.00018625442498573 -0.000220746089677045 0.000134585225518289 0.000174807471509452 0.000358179594797627 -0.000100713874379962 -8.57737016309967e-05 0.000462820266494406
"195" -6.25681631655624e-05 1.10057925223163e-05 7.61073289721043e-06 -0.000290515077964169 -5.53659294608511e-05 -5.61667670296955e-05 -0.000103613238428925 0.00013521015994862 0.000193549551481933 -0.000227965502871222 0.000132705716954015 0.000172524981026082 0.000360427099204585 -7.31450981678929e-05 -6.2348698851866e-05 0.00045246248124804
"196" -7.23543722777305e-05 9.82109229017107e-06 7.77698191030329e-06 -0.000297154389379695 -5.69979973125359e-05 -5.66768251707797e-05 -0.00011429857112048 0.000136143724151465 0.000200466084357115 -0.000235390933403624 0.000130458846672142 0.000169213136607536 0.000362001040051551 -4.45798867064912e-05 -3.77446820388767e-05 0.000439996422033171
"197" -8.20112868629686e-05 9.10727830762204e-06 8.06369727418221e-06 -0.00030328062150073 -5.82885959927756e-05 -5.69112294161124e-05 -0.000124602885115273 0.000137087345437591 0.00020697024624512 -0.000243000562652453 0.000127854925559779 0.000164849551233293 0.000362904167273542 -1.5167796152255e-05 -1.20593061238202e-05 0.000425728688093481
"198" -9.15262067497096e-05 8.82082748546707e-06 8.44429497145414e-06 -0.000308900018241063 -5.92717482923803e-05 -5.69004182181037e-05 -0.000134530797197322 0.000138006631660187 0.000213008657557007 -0.000250769394940871 0.000124910825377252 0.000159392511343774 0.000363150580182463 1.4946500985798e-05 1.46127227734923e-05 0.000410033432361137
"199" -0.00010088836034802 8.9194335120896e-06 8.8929779609798e-06 -0.000314009772473291 -5.99739021132383e-05 -5.667129525254e-05 -0.000144073670501348 0.00013888506567803 0.000218534597818533 -0.000258670210057199 0.000121638093323809 0.000152841893682655 0.000362743310143968 4.55907087659684e-05 4.21401361842814e-05 0.000393256148958078
"200" -0.000110075766306537 9.36896470711993e-06 9.38704458110304e-06 -0.000318616133795268 -6.04255447476564e-05 -5.62523605424479e-05 -0.000153228493959772 0.000139707598566872 0.000223513971086256 -0.000266674518441666 0.000118059459649903 0.000145195797762338 0.000361695077619153 7.65941899769831e-05 7.04076880063942e-05 0.00037578465906071
"201" -0.000119091047018793 1.01050706053691e-05 9.90191230010964e-06 -0.00032272075193764 -6.06557541204625e-05 -5.56728293406035e-05 -0.00016199614231113 0.000140455079036032 0.000227892626096053 -0.000274751757051687 0.000114190957464834 0.000136463284343093 0.000360007503488154 0.000107768645121418 9.92596805925177e-05 0.000357977025417377
"202" -0.00012792787216155 1.10761912822209e-05 1.04197109357321e-05 -0.000326332947168569 -6.07014454161143e-05 -5.49609006686052e-05 -0.000170381241611654 0.000141111885360433 0.000231620469184157 -0.000282865369915306 0.000110057392298142 0.000126669619937466 0.000357690197413129 0.000138920648577527 0.000128538585132475 0.000340231223306333
"203" -0.000136572828482407 1.22435118439698e-05 1.091722860819e-05 -0.000329462959641231 -6.05959880608749e-05 -5.41462482532706e-05 -0.000178390662212327 0.000141662392025427 0.000234657062726046 -0.000290982906425215 0.000105682731181996 0.000115839445725582 0.00035475683338887 0.000169860679759655 0.000158086947438983 0.000322936256679684
"204" -0.000145034446626963 1.35431953859607e-05 1.13809315842637e-05 -0.000332115742247138 -6.03657687123901e-05 -5.32526955695595e-05 -0.000186027489273815 0.000142101152014876 0.000236969606750435 -0.000299059551996173 0.000101093700280245 0.000104028311529714 0.000351212195054971 0.00020037441521917 0.000187718853864496 0.000306450703358455
"205" -0.000153306576836901 1.49280858358522e-05 1.17906421216636e-05 -0.000334311115034684 -6.00483093979267e-05 -5.23124742163682e-05 -0.000193304665894883 0.000142406175035771 0.000238507363911765 -0.000307063189432012 9.63182236146112e-05 9.1273382470004e-05 0.000347070781254211 0.000230265289399753 0.000217251131380929 0.000291160003966336
"206" -0.000161390060148967 1.63480073001822e-05 1.21386537340753e-05 -0.0003360562597625 -5.96655485152301e-05 -5.13478878204044e-05 -0.000200227750954273 0.000142581398390404 0.000239235201334837 -0.000314953358630896 9.13849400840753e-05 7.76478800432614e-05 0.000342344199385486 0.000259311903601315 0.000246480301731222 0.000277401654128268
"207" -0.000169296380206998 1.77402333614928e-05 1.24118291671869e-05 -0.000337367244659873 -5.92527362895791e-05 -5.0380164637154e-05 -0.000206806374403964 0.000142613728248612 0.00023912594181613 -0.000322679691239389 8.63307677060257e-05 6.32091398804519e-05 0.000337045498743161 0.00028731971157112 0.000275213742552391 0.000265523546757152
"208" -0.000177022824871162 1.90692098802413e-05 1.26027171881084e-05 -0.000338260983177168 -5.88384756754475e-05 -4.9437612591334e-05 -0.00021305611658519 0.000142498999712601 0.000238148414181213 -0.000330204472980368 8.11830954534956e-05 4.80374073999866e-05 0.000331194342845754 0.000314068268523707 0.000303236445654236 0.000255825420185239
"209" -0.000184582508614659 2.02785891717392e-05 1.27086315196191e-05 -0.000338751222410377 -5.84394098964534e-05 -4.85324877205447e-05 -0.000218980818868567 0.000142242563511635 0.000236278791983865 -0.000337479198239151 7.59768473086531e-05 3.22178277691867e-05 0.000324802638685752 0.000339366665480205 0.000330343070995086 0.000248571398956496
"210" -0.000191980482921982 2.1330397206126e-05 1.27210162865179e-05 -0.000338856250935258 -5.80816798530596e-05 -4.76893820431377e-05 -0.000224599690274679 0.0001418393283542 0.000233498643954387 -0.000344458780792648 7.07467615020576e-05 1.58273803801271e-05 0.000317899786195588 0.000363010659876263 0.000356319272992925 0.00024403137237314
"211" -0.000199226876945125 2.21749069483606e-05 1.26424006008819e-05 -0.000338597083472186 -5.77893476657422e-05 -4.6919474333033e-05 -0.000229917118525294 0.000141292049230776 0.000229798683874778 -0.000351097782357891 6.55291089673583e-05 -1.04231960466313e-06 0.000310507139289265 0.000384821297782009 0.000380954547420714 0.000242405826634049
"212" -0.000206332464172053 2.27839402141951e-05 1.24757335752806e-05 -0.00033798847490983 -5.75731709848699e-05 -4.62331252794243e-05 -0.000234949811705323 0.000140609806293244 0.000225174627563886 -0.000357346706766714 6.03580986716106e-05 -1.82932145813206e-05 0.000302652309982268 0.000404621658714739 0.000404046808855209 0.000243855666562934
"213" -0.000213306181646296 2.31123987801079e-05 1.22235156884072e-05 -0.000337051932923518 -5.74500439974551e-05 -4.56441465174258e-05 -0.000239701451031316 0.000139798744475792 0.000219623812331529 -0.000363158872917079 5.52698963194956e-05 -3.58336166423107e-05 0.000294368721358691 0.000422245415722731 0.000425393922017955 0.000248514834230445
"214" -0.000220164664247741 2.31344960340943e-05 1.18919936619836e-05 -0.000335803307496728 -5.74294291694054e-05 -4.5157434981813e-05 -0.00024418429146182 0.000138865294433436 0.000213153031194687 -0.00036849492341838 5.02973444790564e-05 -5.3562259278759e-05 0.0002856925045443 0.000437551263612305 0.000444803360017588 0.000256461796399519
"215" -0.000226905180144791 2.28370580315752e-05 1.1495096299656e-05 -0.000334265346953391 -5.75150013025013e-05 -4.47746554733757e-05 -0.000248407512706793 0.000137828911575481 0.000205784844570072 -0.000373309202600883 4.54754306908062e-05 -7.13860510563806e-05 0.000276666483465024 0.000450419098499533 0.000462105427757814 0.000267729716987814
"216" -0.000233550373775239 2.2179700323989e-05 1.10345868445549e-05 -0.000332456750597612 -5.77210016590383e-05 -4.45008500765451e-05 -0.000252379040858016 0.000136691296242599 0.000197532283265093 -0.000377555810128798 4.0839235563189e-05 -8.91994994358355e-05 0.000267334140705747 0.000460728482657647 0.000477123820005985 0.000282317056057222
"217" -0.000240102349720781 2.11612298026833e-05 1.05308061204256e-05 -0.000330394322990246 -5.80362217630796e-05 -4.43308643237526e-05 -0.000256101463979467 0.000135477326494947 0.000188430844183946 -0.000381202831862086 3.6417771352554e-05 -0.000106903440923785 0.000257737706060607 0.000468401885204694 0.000489715787773761 0.000300130474915456
"218" -0.000246571462937064 1.97658891437568e-05 9.99186003089584e-06 -0.000328096000227458 -5.84620192037396e-05 -4.42608508328546e-05 -0.000259580296420084 0.000134204279883754 0.00017851559885349 -0.000384211755743701 3.22425866490849e-05 -0.000124394814318011 0.000247937644888366 0.000473376853075421 0.00049975374480489 0.000321081177432205
"219" -0.000252963975921008 1.79929182397775e-05 9.4345510213128e-06 -0.000325578208550153 -5.89937805676823e-05 -4.42800054575415e-05 -0.000262814726319732 0.000132887134725427 0.00016782751609307 -0.000386546083645954 2.83404629896596e-05 -0.000141575956638971 0.000237981129033474 0.000475616621492215 0.000507125991544764 0.000344989117381581
"220" -0.000259290744019441 1.58340188766479e-05 8.87763953139433e-06 -0.00032285998066392 -5.96186473912024e-05 -4.43796194037339e-05 -0.000265815142142363 0.000131546351916711 0.000156414126503966 -0.0003881867590464 2.47389876502918e-05 -0.000158343407285477 0.000227931756754111 0.000475098563909059 0.000511743736000393 0.000371662433073272
"221" -0.000265548095506147 1.33091135258527e-05 8.33825426322819e-06 -0.000319952977339349 -6.03224683307337e-05 -4.45433037034347e-05 -0.000268569647518366 0.000130206188245469 0.000144331603972031 -0.000389105997564201 2.14631127128227e-05 -0.000174597232577242 0.000217846948848036 0.000471837490662993 0.000513542211573603 0.000400840497543832
"222" -0.000271742270422438 1.04121700962506e-05 7.82830500480077e-06 -0.000316876600897693 -6.1097313676387e-05 -4.47571621939744e-05 -0.00027108879407935 0.000128885736963928 0.000131631155661341 -0.000389283806928986 1.85311917829765e-05 -0.000190246574617363 0.000207796035348759 0.000465865270990788 0.000512481742063342 0.000432250709031152
"223" -0.00027787130424183 7.17323942020203e-06 7.37367043683523e-06 -0.000313639071428409 -6.1918906267357e-05 -4.49995040731027e-05 -0.000273361437798291 0.000127611385728839 0.000118380403744892 -0.000388712105169046 1.5966456002932e-05 -0.000205186551920489 0.000197838764455215 0.000457238141676702 0.000508548245437759 0.000465565192328144
"224" -0.000283936632677336 3.59559677692545e-06 6.98840841137329e-06 -0.000310249703661648 -6.27616490955881e-05 -4.52474360917673e-05 -0.000275380065757023 0.00012640906164165 0.000104646375210144 -0.000387379215464505 1.37781710643555e-05 -0.000219326319305822 0.000188031992601508 0.000446034800218576 0.000501745485478873 0.000500399940800432
"225" -0.000289926088706246 -2.77040258413064e-07 6.69238258136736e-06 -0.000306723350975752 -6.36071740135173e-05 -4.54785671429926e-05 -0.000277145591563949 0.000125303602988644 9.04934886363174e-05 -0.000385286745420434 1.19833379270349e-05 -0.00023257395901662 0.000178456342973306 0.000432352190631419 0.000492108305652612 0.000536421823766248
"226" -0.000295840130513518 -4.43909498930692e-06 6.50055848659277e-06 -0.000303068973322203 -6.44336255303126e-05 -4.56710841130587e-05 -0.000278650556358218 0.000124311674686405 7.59922041152683e-05 -0.000382433229679725 1.05905985255358e-05 -0.000244849181244351 0.000169172136384976 0.000416308364058424 0.000479695999960226 0.000573221086456287
"227" -0.000301671089064492 -8.85047403018135e-06 6.43097716684144e-06 -0.000299287450148072 -6.52094511155367e-05 -4.57909534198795e-05 -0.000279880485118732 0.000123469186157188 6.12111560867356e-05 -0.00037883266940235 9.60281296219054e-06 -0.000256063932951263 0.000160243196381669 0.000398033374912122 0.000464581612062475 0.000610387563143228
"228" -0.000307402445008175 -1.34757124187791e-05 6.50291623928857e-06 -0.000295395318802899 -6.59082059646318e-05 -4.5815582219611e-05 -0.000280834577999084 0.000122792523430493 4.62274712315759e-05 -0.000374501841116953 9.02818382342758e-06 -0.000266153235188654 0.000151737181115618 0.000377686852382005 0.000446873610530629 0.000647518629629534
"229" -0.000313023054034826 -1.82856082042647e-05 6.72366601442181e-06 -0.000291392089475773 -6.65043712554325e-05 -4.57161992753235e-05 -0.000281495460312072 0.000122305246451115 3.11055706416851e-05 -0.000369456088833637 8.86562033703366e-06 -0.00027503803920266 0.00014371283632326 0.000355414591289397 0.000426685902114885 0.000684203266181999
"230" -0.00031851001190017 -2.32360543484227e-05 7.11868298986661e-06 -0.000287278261494331 -6.69602923570532e-05 -4.54583675254394e-05 -0.000281853777269199 0.000122039354534873 1.59198327987045e-05 -0.00036372639617014 9.10663045616479e-06 -0.000282651429056705 0.000136225091034719 0.000331388332045737 0.000404152293747673 0.000720008399484905
"231" -0.000323855125390221 -2.82918364682862e-05 7.68830222758203e-06 -0.000283063631904853 -6.72551633147128e-05 -4.50178407907439e-05 -0.000281904712508648 0.00012200215686344 7.31821350679622e-07 -0.00035734183447695 9.74804281538709e-06 -0.000288954067167384 0.000129338895488467 0.000305792276097455 0.000379437645294068 0.0007545718236731
"232" -0.000329027269442161 -3.34102915997021e-05 8.44874631450983e-06 -0.000278747470055697 -6.73557269063016e-05 -4.43654202183123e-05 -0.0002816269414866 0.000122226304601935 -1.43867724497272e-05 -0.00035033672834862 1.07810980304817e-05 -0.000293890709027818 0.00012309569385365 0.000278801588435788 0.000352701047456456 0.000787480306088129
"233" -0.000334012516311858 -3.85649208686161e-05 9.41043008343074e-06 -0.000274329027712059 -6.72336928023941e-05 -4.34661643231619e-05 -0.00028101993061388 0.000122723015203751 -2.93809315971093e-05 -0.000342751272977737 1.21903928001338e-05 -0.000297427668464012 0.000117542970348976 0.000250600009265008 0.000324123218095803 0.000818361042774353
"234" -0.000338779586439418 -4.3699777653836e-05 1.05752211311614e-05 -0.000269813645472098 -6.68641575096816e-05 -4.22993172436505e-05 -0.000280065781678979 0.000123510485809755 -4.41872093594229e-05 -0.000334630360580428 1.39606565310281e-05 -0.000299544146789335 0.00011272701539697 0.000221375378880207 0.000293896916675365 0.000846894395028659
"235" -0.000343299107254735 -4.8779407354936e-05 1.19517249960773e-05 -0.000265196388457225 -6.62173702467857e-05 -4.08350913884901e-05 -0.000278756056184503 0.000124606811756779 -5.87491441144646e-05 -0.000326023556489068 1.60771132978265e-05 -0.000300220515542676 0.000108681864416053 0.000191308012330363 0.000262217174934832 0.000872742894527798
"236" -0.000347552129039966 -5.37753065127267e-05 1.35435756905001e-05 -0.000260478634317327 -6.52720252903931e-05 -3.90476542873405e-05 -0.000277078056911752 0.000126024566956634 -7.30186524650056e-05 -0.0003169741217893 1.85099269538507e-05 -0.000299448366862947 0.000105427122933051 0.000160573453566079 0.00022928487320691 0.000895592198498062
"237" -0.000351502856391044 -5.86419519398282e-05 1.53477456886973e-05 -0.000255659496162765 -6.40044285419837e-05 -3.69178761486398e-05 -0.000275030456122574 0.000127768201247481 -8.69502853155931e-05 -0.00030753849538025 2.12446476380892e-05 -0.000297247322039637 0.000102996985013737 0.000129347186236601 0.000195304047041302 0.00091521119467791
"238" -0.000355121195554435 -6.33467334043708e-05 1.73655904419833e-05 -0.000250740423037115 -6.2393283344535e-05 -3.44221757664118e-05 -0.000272598906898687 0.000129848886820746 -0.000100500471303648 -0.000297771717241827 2.42530656986165e-05 -0.000293631427084008 0.000101400052776066 9.77960090233885e-05 0.000160476864587626 0.000931347187475622
"239" -0.000358372415619294 -6.78562763355313e-05 1.95950857320658e-05 -0.000245716405882975 -6.04157967175911e-05 -3.15405106724087e-05 -0.000269772912084763 0.000132273123017204 -0.000113626764087004 -0.000287726453854699 2.75052315548342e-05 -0.000288627155214321 0.000100643377939942 6.60857850921041e-05 0.000125012632028866 0.000943792354408348
"240" -0.000361231335116958 -7.21478369678886e-05 2.20295778310084e-05 -0.000240587138534268 -5.80672554907115e-05 -2.82610549976246e-05 -0.000266559893215859 0.000135035296806683 -0.000126297802521921 -0.000277459080261795 3.09715598515522e-05 -0.000282290778825327 0.00010073303231354 3.43613440114592e-05 8.91183702436337e-05 0.000952397441327781
"241" -0.000363663820819404 -7.61942745947546e-05 2.46609050453984e-05 -0.000235352774223214 -5.53335090049593e-05 -2.45688070847993e-05 -0.000262949727629473 0.000138136399654955 -0.000138487252279035 -0.000267022758873252 3.46253390550353e-05 -0.000274675612518516 0.000101659303429299 2.77249606415724e-06 5.29874096476908e-05 0.000957023353728524
"242" -0.000365633041143451 -7.99657993285163e-05 2.74827592532608e-05 -0.00023000917737824 -5.21993644208448e-05 -2.04527185005852e-05 -0.000258934344916889 0.000141577138132232 -0.000150161966337988 -0.000256478071524275 3.84315164715248e-05 -0.000265841859939729 0.000103407716488461 -2.8550740595603e-05 1.68159976188987e-05 0.000957557440783187
"243" -0.000367116007173453 -8.34472156844221e-05 3.04845760041211e-05 -0.000224555027242939 -4.8664758291147e-05 -1.59065546935579e-05 -0.0002545259842074 0.000145342956104388 -0.000161300695840767 -0.000245872805074049 4.23552608035084e-05 -0.000255879488932562 0.000105954685821589 -5.94786071703354e-05 -1.92053026252688e-05 0.000953932429055911
"244" -0.00036807108043144 -8.66187559558891e-05 3.36551360103661e-05 -0.000218990827099484 -4.47207118564882e-05 -1.09288608688544e-05 -0.000249716646974286 0.000149431816153156 -0.000171881865745362 -0.000235262972647845 4.63647903685262e-05 -0.000244871138563046 0.000109268982897116 -8.99019983468905e-05 -5.48961044273564e-05 0.000946111988521796
"245" -0.000368479468785378 -8.94755412112409e-05 3.69805064214948e-05 -0.000213314831177577 -4.0376639835831e-05 -5.51965507246748e-06 -0.000244518010272213 0.000153821137384176 -0.000181899517856239 -0.000224697804899443 5.04205740061536e-05 -0.000232923713410294 0.000113319025951241 -0.0001197130991213 -9.00844512762449e-05 0.000934107441890515
"246" -0.00036830784068091 -9.20027831608981e-05 4.04479744665318e-05 -0.00020752221008717 -3.56300114991281e-05 3.24241235653689e-07 -0.00023893088435369 0.000158500725320825 -0.000191328134983169 -0.000214226211872816 5.4490603443616e-05 -0.000220135901601414 0.000118053257933748 -0.000148810302626389 -0.000124600975206286 0.000917926821510777
"247" -0.000367528864428525 -9.41969361726768e-05 4.40396029996332e-05 -0.000201619218664571 -3.04916866706129e-05 6.58746514575385e-06 -0.000232971837164672 0.000163442502198376 -0.000200158901832928 -0.00020389418720657 5.8541759711974e-05 -0.000206639910681022 0.000123429216794264 -0.00017710738699774 -0.000158288251857581 0.000897646000703111
"248" -0.000366121666805199 -9.60526240933697e-05 4.7744968206778e-05 -0.000195596465759265 -2.49722333403103e-05 1.32697986246781e-05 -0.000226645780542531 0.000168634601556287 -0.000208383895193563 -0.000193742532546569 6.25292314083918e-05 -0.00019254444023083 0.000129383489713041 -0.000204523582928686 -0.000191002071152008 0.000873330078185564
"249" -0.000364066279609101 -9.75850098841716e-05 5.15458114095156e-05 -0.000189456599021764 -1.90811908931502e-05 2.03525625814893e-05 -0.000219966044961703 0.000174046344408099 -0.000215989773876378 -0.000183804762579854 6.64269314260557e-05 -0.000177985139861104 0.000135856863261915 -0.000230989860111271 -0.000222602081607132 0.000845110679929645
"250" -0.000361340782629987 -9.87820249273317e-05 5.54246714738299e-05 -0.000183198533178296 -1.28357745761651e-05 2.78219076495414e-05 -0.000212949450122045 0.000179657462563089 -0.000222973569813555 -0.000174124848459455 7.01934732315709e-05 -0.000163091371645287 0.000142776223448111 -0.000256440332448945 -0.000252958365473599 0.000813107707645325
"251" -0.000357924747349208 -9.96593015480684e-05 5.93687409998744e-05 -0.000176822792672997 -6.25927448508609e-06 3.56601500971237e-05 -0.000205616946253034 0.000185430518551216 -0.000229326773499743 -0.000164726371947997 7.37971781930745e-05 -0.000148000394000994 0.000150074215852548 -0.000280812021744324 -0.000281952918093701 0.000777500523798992
"252" -0.000353813867731303 -0.000100227710617552 6.33599048002388e-05 -0.000170326689089511 6.25484146210202e-07 4.38460746089683e-05 -0.000197984767626018 0.000191340796423963 -0.000235044310596251 -0.000155634430193763 7.72012799524906e-05 -0.000132849333269355 0.000157668234164167 -0.000304056106226425 -0.00030947654135899 0.000738453901444865
"253" -0.000348994325090507 -0.00010050322439973 6.73804153359824e-05 -0.000163710181809153 7.79928329982066e-06 5.23521682969565e-05 -0.000190074322109829 0.000197353568445272 -0.000240120490098787 -0.000146874832804965 8.03775845245683e-05 -0.000117770062785111 0.000165481658707502 -0.000326136045424271 -0.000335438101959924 0.0006961842209476
"254" -0.000343461239544987 -0.000100498931415422 7.14214635667142e-05 -0.000156974421181236 1.52347431009193e-05 6.11544281919928e-05 -0.000181913840057648 0.000203431618846189 -0.000244547722205427 -0.000138459939361491 8.32906469539299e-05 -0.000102902608849075 0.000173427372965738 -0.00034699937329251 -0.000359732564960026 0.000650902054951668
"255" -0.000337218620274089 -0.000100239615556929 7.54644051922351e-05 -0.000150114861495613 2.28956484717958e-05 7.02271160856415e-05 -0.000173526197766139 0.000209544303509101 -0.000248321687135557 -0.000130404099329402 8.5915545348768e-05 -8.83715635333195e-05 0.000181424265719057 -0.000366618138222204 -0.000382297088172101 0.000602854540264188
"256" -0.000330257651989661 -9.97347212695724e-05 7.94984038989344e-05 -0.000143132829705967 3.0760578447653e-05 7.95358402409738e-05 -0.000164941325824868 0.00021565443399927 -0.000251440247692337 -0.000122718842138467 8.82190611299197e-05 -7.42989760135905e-05 0.00018937902294071 -0.000384964691491041 -0.000403056019186584 0.000552266266365268
"257" -0.000322589748538117 -9.90162625939532e-05 8.35107613158248e-05 -0.000136030672113051 3.87943148542737e-05 8.90524101559383e-05 -0.000156185426820987 0.000221725395129852 -0.000253893297906238 -0.000115402227174102 9.01813286843037e-05 -6.08119130881675e-05 0.00019721032582752 -0.000402012660957137 -0.000421958429217382 0.000499409016213417
"258" -0.000314226353242497 -9.80977596655747e-05 8.74915240653916e-05 -0.000128802861546051 4.69677995812457e-05 9.87400400062022e-05 -0.000147285562236299 0.000227723464366958 -0.000255677099360919 -0.000108452884883514 9.17711405222366e-05 -4.80117160197202e-05 0.000204822267333677 -0.000417741930584263 -0.000438953909511924 0.00044452141845134
"259" -0.000305179269273429 -9.70096045150322e-05 9.14306590327429e-05 -0.000121450607465361 5.52440088230262e-05 0.000108566552183175 -0.000138277892169689 0.000233611292752759 -0.000256783155351052 -0.000101869531908646 9.29765928780549e-05 -3.60036338735467e-05 0.000212139710955809 -0.000432137658112421 -0.000454006920601443 0.000387900048890118
"260" -0.000295469626078585 -9.57752254634755e-05 9.53220256044467e-05 -0.000113969935133612 6.35924843621522e-05 0.000118497105398791 -0.000129190953746227 0.000239357108902644 -0.000257204526456836 -9.56370355061005e-05 9.3769854055266e-05 -2.48739994823114e-05 0.000219067093109468 -0.000445192653689911 -0.000467097265011602 0.000329775162461975
"261" -0.000285121262053056 -9.44215561339898e-05 9.9157258770825e-05 -0.000106365489853255 7.19756831526711e-05 0.000128494078174416 -0.000120060138553554 0.000244918645196134 -0.00025694462524473 -8.97452931474209e-05 9.41395898530533e-05 -1.47107128089949e-05 0.000225528163984221 -0.000456900702788024 -0.000478211328649518 0.000270444145814659
"262" -0.000274151494099645 -9.29626868217271e-05 0.000102932350449078 -9.86329183413834e-05 8.03619006003702e-05 0.000138522648731241 -0.000110914821488824 0.000250267938085472 -0.000255988634464017 -8.41778945204611e-05 9.40731465633982e-05 -5.57810139183619e-06 0.000231448029165995 -0.000467256171861341 -0.00048734548643238 0.000210166625059481
"263" -0.000262594742912554 -9.14264776154569e-05 0.000106644744272449 -9.07699147040567e-05 8.87230451215237e-05 0.000148550512851469 -0.000101789415412906 0.000255380117423398 -0.000254330060624594 -7.89127222436287e-05 9.35563125739865e-05 2.47644025421632e-06 0.000236746759765037 -0.000476260866539496 -0.000494510874368504 0.000149189213756756
"264" -0.000250487159968915 -8.98393616364555e-05 0.000110289705457019 -8.27814958999814e-05 9.70197503207825e-05 0.000158531204870684 -9.27158489158669e-05 0.000260207117360679 -0.000251972813339521 -7.39286124785675e-05 9.2588977498442e-05 9.39101609085346e-06 0.000241366540220825 -0.000483928439135982 -0.000499725982360262 8.77867200799698e-05
"265" -0.000237864913213996 -8.82224616257076e-05 0.00011387399777786 -7.46579862874832e-05 0.000105226517525696 0.000168441875571796 -8.37230813006243e-05 0.000264742866158384 -0.000248908475685632 -6.91983342903208e-05 9.11593278198802e-05 1.5158460877162e-05 0.000245227290498619 -0.000490268114286659 -0.00050302564286928 2.61561991525505e-05
"266" -0.000224765226562202 -8.65972814704243e-05 0.00011739096027806 -6.64039907334457e-05 0.000113311649145771 0.000178240637240759 -7.48496993564683e-05 0.000268945063591555 -0.000245142800937233 -6.46957901000779e-05 8.92695678391471e-05 1.97486123192349e-05 0.000248289649438599 -0.000495301852873606 -0.000504460926666451 -3.54347688943336e-05
"267" -0.000211234560253847 -8.49816873978107e-05 0.000120845326967145 -5.80206747646318e-05 0.000121240254719756 0.000187894143696919 -6.61253168493284e-05 0.000272790485113503 -0.000240669967066202 -6.03873978434356e-05 8.6926019677011e-05 2.31571720361243e-05 0.000250497446108085 -0.000499046426834417 -0.000504075196455081 -9.67824540838892e-05
"268" -0.000197317715621186 -8.3393125132656e-05 0.00012424352156215 -4.94977846500976e-05 0.000128997147470659 0.000197373471893402 -5.75672113788469e-05 0.000276275430355925 -0.000235487977827125 -5.62456968931969e-05 8.41279109727991e-05 2.54120217751747e-05 0.00025180936470919 -0.000501532924549916 -0.000501946846461958 -0.000157700970639761
"269" -0.000183063423050548 -8.18471580724107e-05 0.000127585970932736 -4.08448651583791e-05 0.000136548336971032 0.000206646983824177 -4.92213407812348e-05 0.000279364184354777 -0.000229611820181537 -5.22373792531876e-05 8.08891838943322e-05 2.65174866706746e-05 0.000252194768043608 -0.00050279426835295 -0.000498146034886032 -0.000217985711360459
"270" -0.000168524210796864 -8.03660167867414e-05 0.000130882012077748 -3.205407950891e-05 0.000143877528426011 0.000215682979366581 -4.11015436670898e-05 0.000282052149146301 -0.000223046404683556 -4.83348323602306e-05 7.72175901881606e-05 2.6522981386003e-05 0.00025162528576103 -0.000502871566608575 -0.000492767673721818 -0.000277491698975534
"271" -0.000153746804956494 -7.89448846593857e-05 0.000134138720534673 -2.31270170191489e-05 0.000150958664171168 0.000224456562979937 -3.32351357590129e-05 0.000284326450628575 -0.000215792911246122 -4.45014232714004e-05 7.31328702419517e-05 2.54721538750777e-05 0.000250091145389625 -0.000501798390654122 -0.000485900439125735 -0.000336052557365925
"272" -0.000138786237493438 -7.76096912175888e-05 0.000137356049473097 -1.4065048698883e-05 0.00015777466978614 0.000232942985389185 -2.56475122769479e-05 0.000286177006303776 -0.000207873583941427 -4.07099506170831e-05 6.86521481223897e-05 2.3422896656649e-05 0.00024758232301624 -0.000499633888653061 -0.000477660112478195 -0.000393541031832162
"273" -0.00012370402005393 -7.63633631710567e-05 0.000140548065907794 -4.86857190388419e-06 0.00016430939227201 0.0002411138700145 -1.8364979304472e-05 0.000287591857493268 -0.00019930335995218 -3.69304082986848e-05 6.37952409411552e-05 2.04428882239156e-05 0.000244104575682702 -0.000496421928300763 -0.000468159997832129 -0.000449828768973819
"274" -0.000108546471390273 -7.52058631889389e-05 0.000143720599688242 4.46525143252764e-06 0.000170551765905222 0.000248952531595574 -1.13924197336976e-05 0.000288582911544123 -0.000190102243061082 -3.31377204986164e-05 5.85820451790813e-05 1.66238200074587e-05 0.000239660081422652 -0.000492230776537693 -0.000457526641056441 -0.000504855227722928
"275" -9.33707664816241e-05 -7.41447766002609e-05 0.000146882461831177 1.39306643139961e-05 0.000176483117812247 0.000256439888972031 -4.75735102662252e-06 0.000289138732024095 -0.000180289748423087 -2.92988786464426e-05 5.30477788289962e-05 1.20442862485227e-05 0.000234280396315318 -0.000487111485504993 -0.000445886436361924 -0.000558498828926527
"276" -7.82285105502346e-05 -7.31768890334329e-05 0.000150034119113386 2.35258472288024e-05 0.000182097092979916 0.000263551676944951 1.52523855820271e-06 0.000289265673144622 -0.000169898962203082 -2.54012233210698e-05 4.72172810104665e-05 6.80132324238175e-06 0.000227997084159779 -0.000481141492720079 -0.000433379911625314 -0.000610692274445416
"277" -6.31852254019052e-05 -7.2311684065313e-05 0.000153191470060282 3.32550021099966e-05 0.000187393701585727 0.00027028530051803 7.44962775633662e-06 0.00028897610315383 -0.000158951650501685 -2.14154453238782e-05 4.11189267387596e-05 1.00820155789016e-06 0.000220830401589874 -0.000474381433367291 -0.000420144065924146 -0.000661426462137911
"278" -4.82813630553562e-05 -7.15368787226896e-05 0.000156353139837495 4.31056636879565e-05 0.00019235552965809 0.000276616321133586 1.30003227600315e-05 0.000288269444126984 -0.000147495920338457 -1.7330314551126e-05 3.47881648016158e-05 -5.24030520490809e-06 0.000212841720809923 -0.000466908426106943 -0.000406327112232837 -0.000710610323987555
"279" -3.35767213746012e-05 -7.08503353765455e-05 0.000159529535553581 5.30785042226484e-05 0.000196987665282022 0.000282542574541574 1.81724218460281e-05 0.000287162730140416 -0.000135557222725036 -1.31257420628608e-05 2.82581761615997e-05 -1.18225412181706e-05 0.000204071700818217 -0.000458791446615804 -0.000392071063338269 -0.000758249941421305
"280" -1.91162483496409e-05 -7.02414010884888e-05 0.000162723915723947 6.31698716901293e-05 0.000201289219464243 0.000288055381379301 2.29614183467503e-05 0.000285677485875152 -0.000123181894683601 -8.79949656346792e-06 2.15623862242814e-05 -1.86138719179767e-05 0.000194580449378168 -0.000450118659548274 -0.000377526616122961 -0.000804318262088772
"281" -4.94784556739057e-06 -6.97070968624518e-05 0.000165937144033464 7.33674678216676e-05 0.000205256943742318 0.000293145138197511 2.73636907275687e-05 0.000283814327876136 -0.000110416087989916 -4.34040450034502e-06 1.4741152593047e-05 -2.55134463829755e-05 0.000184444333319722 -0.000440958123060769 -0.000362832551927317 -0.000848775232772913
"282" 8.88028558722154e-06 -6.92315971762934e-05 0.000169174923643209 8.36686992503477e-05 0.000208897772278196 0.000297810321046574 3.13796200601304e-05 0.000281601319278231 -9.73013742577497e-05 2.51423849438761e-07 7.8292410121704e-06 -3.23873556648145e-05 0.000173713172225241 -0.000431397335443878 -0.000348140003214614 -0.000891654173562512
"283" 2.23256971670459e-05 -6.88107568441259e-05 0.000172435791142483 9.40669136953873e-05 0.000212216489923821 0.000302054112540018 3.50100939263758e-05 0.000279063762775316 -8.38906066608143e-05 4.97784249791852e-06 8.61875452191849e-07 -3.9118145524542e-05 0.000162470566215196 -0.000421512877208374 -0.000333582776862711 -0.000932939069738594
"284" 3.5355933727659e-05 -6.8425542011859e-05 0.000175715861929579 0.000104542935823029 0.000215213882557543 0.00030586702885183 3.82558968508415e-05 0.000276205762569715 -7.02379726733861e-05 9.82683159729554e-06 -6.12191653652406e-06 -4.56045454875085e-05 0.000150793333412451 -0.000411377838951272 -0.000319291447609931 -0.000972620126115913
"285" 4.79342238125585e-05 -6.80608139782528e-05 0.00017901592293149 0.000115092361617941 0.000217901279047953 0.000309258109507875 4.1128263891098e-05 0.000273064166541641 -5.63937912948171e-05 1.47957882689436e-05 -1.30831082045936e-05 -5.17148619928814e-05 0.000138755896956024 -0.000401076988041673 -0.000305399503238491 -0.00101070877536042
"286" 6.00253986250674e-05 -6.77028996169913e-05 0.000182331794677937 0.000125697914481347 0.00022028719176796 0.000312228382404075 4.36336926782405e-05 0.000269657671483525 -4.24110423230215e-05 1.98664606071876e-05 -1.99878029872144e-05 -5.734798374096e-05 0.000126439721649665 -0.000390679546269175 -0.000292019006283884 -0.00104721003887509
"287" 7.16010829899556e-05 -6.73448004060503e-05 0.000185656075710879 0.000136346445861333 0.000222378245012081 0.000314781459446242 4.57762006673131e-05 0.000266005095119835 -2.83482132355465e-05 2.50279326733862e-05 -2.67987565562491e-05 -6.23992707884274e-05 0.000113922621007135 -0.000380266234983337 -0.000279264142881805 -0.00108212561154134
"288" 8.26431930827421e-05 -6.69590375587591e-05 0.000188980310738321 0.000147023516678232 0.000224183812491979 0.000316928109090062 4.75759662967466e-05 0.000262137624659167 -1.42604647799356e-05 3.02541781004118e-05 -3.3483956839798e-05 -6.67711398275268e-05 0.000101284618157971 -0.00036990081321811 -0.000267235416828884 -0.00111546074550183
"289" 9.31291057887731e-05 -6.6533807098978e-05 0.000192293571478424 0.000157707586449707 0.00022571795134897 0.000318670403032308 4.90383088892701e-05 0.000258073577262913 -2.10441539827397e-07 3.55290364063124e-05 -4.00102740438301e-05 -7.03694951939374e-05 8.86056878043088e-05 -0.000359655281058068 -0.000256025547337615 -0.00114721796120532
"290" 0.000103040277909844 -6.60629138628056e-05 0.000195587755889368 0.00016838049156717 0.000226986650858814 0.000320022457017141 5.0177890908029e-05 0.0002538377491281 1.37552322678403e-05 4.08247519042974e-05 -4.6342521534139e-05 -7.3117211014801e-05 7.59609307848169e-05 -0.000349586043910956 -0.000245702617419737 -0.0011773867831624
"291" 0.000112367339285824 -6.55301732777169e-05 0.000198842747873411 0.000179021591193838 0.000228003480774386 0.000320988132924093 5.10109962130747e-05 0.000249448370059628 2.75711703363803e-05 4.61172896681724e-05 -5.24584067678328e-05 -7.49464286378036e-05 6.34220005693996e-05 -0.000339760824997169 -0.000236340018392908 -0.00120596163971075
"292" 0.00012111014358577 -6.49075617341293e-05 0.000202054040421201 0.000189611656016574 0.000228781724794098 0.000321580441714997 5.15570920976276e-05 0.000244940195669007 4.11923459614118e-05 5.13732021854556e-05 -5.8326414564339e-05 -7.57831576215868e-05 5.10534688620763e-05 -0.000330229990398393 -0.000227993004161437 -0.00123296393377554
"293" 0.000129259601883904 -6.41935110531648e-05 0.000205195640467826 0.000200120563467126 0.000229323333981562 0.000321807079727495 5.18194819251068e-05 0.000240315420974702 5.45547663573265e-05 5.65676663907739e-05 -6.39190907548866e-05 -7.55956769813264e-05 3.893457438994e-05 -0.000321035980025288 -0.00022069245220192 -0.00125833541230008
"294" 0.000136817415133007 -6.33757495405394e-05 0.000208257024493411 0.000210526882437973 0.000229652044581043 0.000321682529900614 5.18305644886601e-05 0.000235607647572438 6.76156630104613e-05 6.16684940908269e-05 -6.92228961851591e-05 -7.43291254090882e-05 2.71058834247504e-05 -0.000312233596222671 -0.000214476020198757 -0.00128211797498169
"295" 0.00014379350184161 -6.24382051850341e-05 0.000211212232348752 0.000220804727554216 0.00022976513695248 0.00032121372880823 5.15955743818302e-05 0.000230824197982827 8.03198630934438e-05 6.66452717234354e-05 -7.42070025844218e-05 -7.1971056759418e-05 1.56379143313741e-05 -0.000303852750707862 -0.000209351050791629 -0.00130425295326697
"296" 0.00015019158729323 -6.13769616237225e-05 0.000214047607314577 0.000230929420976158 0.000229681632422717 0.000320416659394393 5.11413682833032e-05 0.000225991051352591 9.26225771909444e-05 7.14679076206021e-05 -7.88648487044342e-05 -6.84907150714202e-05 4.56199085694988e-06 -0.000295935557556677 -0.000205330267273187 -0.00132478074765697
"297" 0.000156030209159961 -6.01810191449451e-05 0.000216742787494204 0.000240868239073601 0.000229405327223876 0.000319297808587395 5.04719108623031e-05 0.000221112317007986 0.000104476096088092 7.61023205624383e-05 -8.31745444619388e-05 -6.39079931760172e-05 -6.06264419234524e-06 -0.000288497627728634 -0.000202395609781508 -0.0013436373230587
"298" 0.000161322411102589 -5.88440979737248e-05 0.000219273243355228 0.000250599035854357 0.000228948907400771 0.000317872026814611 4.96196481868518e-05 0.000216206745193628 0.000115843209269973 8.05249200133681e-05 -8.71275090234296e-05 -5.82167795316199e-05 -1.62124164887488e-05 -0.00028157201304225 -0.000200533051033428 -0.00136083881222963
"299" 0.000166085300001446 -5.73677107818878e-05 0.000221619235326409 0.000260093707189341 0.000228317613076675 0.000316152151888872 4.8588331401226e-05 0.000211283483509948 0.000126683470542105 8.47068290677117e-05 -9.07156199403802e-05 -5.14459204062079e-05 -2.58555673521828e-05 -0.000275169077092585 -0.000199707571435187 -0.00137636106511338
"300" 0.000170344887497716 -5.57421994345167e-05 0.000223763327238327 0.000269322970199171 0.000227518861097091 0.000314146551742502 4.74017238623107e-05 0.000206351399179945 0.000136958233715194 8.86210082129613e-05 -9.39313980241469e-05 -4.36304786230139e-05 -3.49736537340922e-05 -0.000269307363982566 -0.000199884788406675 -0.00139021603782299
"301" 0.000174123388638767 -5.39691073855952e-05 0.000225679833413899 0.0002782601091389 0.000226558983229395 0.00031186625333193 4.60738364194278e-05 0.000201416375679151 0.000146638549257232 9.22400650215416e-05 -9.6774584354316e-05 -3.48213989655997e-05 -4.35452880182506e-05 -0.000263983450839184 -0.000201005047166083 -0.00140237405635374
"302" 0.00017744389072774 -5.20533015241831e-05 0.00022734948749643 0.000286880136333404 0.000225444956515262 0.000309323621021655 4.46119975119463e-05 0.000196475565663963 0.000155696467482831 9.55512478549925e-05 -9.92371412479534e-05 -2.5076283443755e-05 -5.15642501469751e-05 -0.000259199582463427 -0.000203014880626795 -0.00141283742767362
"303" 0.000180340910663929 -4.99940308714115e-05 0.00022875543867282 0.000295159013844938 0.000224181231292708 0.000306529055340137 4.30393974044811e-05 0.000191543593784551 0.000164100763479314 9.85274460505549e-05 -0.000101332238643423 -1.4455828906904e-05 -5.90377977947505e-05 -0.000254956873897188 -0.00020585285315947 -0.00142164148403694
"304" 0.000182839445409718 -4.77996763133645e-05 0.000229879841669369 0.000303071338153671 0.000222774474586407 0.000303495754585947 4.13599804456205e-05 0.000186613622477041 0.000171836175586113 0.000101158457336424 -0.000103057632206834 -3.04676439264807e-06 -6.59554091453475e-05 -0.000251237311222542 -0.00020943881631912 -0.00142876180726219
"305" 0.000184971766808346 -4.54681692138434e-05 0.000230707364236102 0.00031059958844489 0.000221229837051708 0.000300233210032007 3.95945537811414e-05 0.000181690294022677 0.000178881019950758 0.000103426958360388 -0.000104423585719504 9.07152784749998e-06 -7.23450432228219e-05 -0.0002480372984991 -0.000213699541741566 -0.00143424913639817
"306" 0.000186764162255271 -4.30252545676407e-05 0.000231220207223413 0.000317720133117392 0.000219547317329786 0.000296751245355302 3.7747626036994e-05 0.00017676307631122 0.000185221294369498 0.000105328276462712 -0.000105439303555055 2.18030165802283e-05 -7.82135192648277e-05 -0.000245332837298824 -0.000218556016182743 -0.00143812234234642
"307" 0.000188254260564578 -4.04628539800494e-05 0.000231406800383701 0.000324419236762693 0.000217732438765088 0.000293064026537412 3.58299878024198e-05 0.000171835530078185 0.0001908501084541 0.000106854161181868 -0.000106118919368396 3.50438231478796e-05 -8.35844311096348e-05 -0.000243096094761706 -0.00022391461470274 -0.00144041659442554
"308" 0.000189467142700109 -3.78083692831371e-05 0.000231256241440413 0.00033068335224798 0.000215792263375394 0.000289179891332694 3.38492359971337e-05 0.000166903676348979 0.000195755605658765 0.000108004412483981 -0.000106475405481049 4.86964952083844e-05 -8.84877924340681e-05 -0.000241308025544653 -0.000229692683644873 -0.00144119816069095
"309" 0.000190436901813656 -3.50636362361005e-05 0.000230760435196958 0.000336493554655509 0.000213718283164295 0.000285108679209732 3.18119914092055e-05 0.000161948051745095 0.000199937862023846 0.000108774135272585 -0.000106522601951851 6.26340354334785e-05 -9.29485518008783e-05 -0.000239937881993158 -0.000235796427029799 -0.00144049675627895
"310" 0.000191197303985344 -3.22417879431658e-05 0.000229914706094168 0.000341846122042603 0.000211523682661777 0.000280861215102667 2.97235303614968e-05 0.000156976417281632 0.000203395213336646 0.000109175598958519 -0.000106282581148413 7.67577601416698e-05 -9.70053184375192e-05 -0.000238946101558824 -0.000242137810742157 -0.00143840967401397
"311" 0.000191767984952452 -2.93700779075728e-05 0.000228713050423742 0.00034673460523829 0.000209205286576133 0.000276452209719257 2.75892287146264e-05 0.000151969955583868 0.000206131404822002 0.000109211766852658 -0.000105774624476067 9.09451023446767e-05 -0.000100690963183508 -0.000238308302591144 -0.000248626925861635 -0.0014350062464974
"312" 0.000192184542229906 -2.64508321194499e-05 0.00022716134876097 0.000351158769292511 0.000206772178731441 0.000271892457461928 2.54159906065588e-05 0.000146936547854161 0.000208160865529516 0.000108897307584726 -0.000105017662675036 0.000105089354151339 -0.000104054224856206 -0.000237978673179841 -0.00025517459278965 -0.00143039632297542
"313" 0.000192473234706555 -2.3500861384832e-05 0.000225255814157329 0.000355113295848036 0.000204219225160288 0.000267189675190107 2.32019125769008e-05 0.000141850758625105 0.000209491067992296 0.000108246173131556 -0.000104035755911928 0.000119064698623287 -0.000107121996973799 -0.00023791802471589 -0.000261690883206379 -0.00142465756787214
"314" 0.000192653929503653 -2.05448864593936e-05 0.000223003695895629 0.00035860586820261 0.0002015543085917 0.000262355566523024 2.09487680783525e-05 0.000136709819079948 0.000210134691045998 0.000107277156377306 -0.00010285210613705 0.000132758733088889 -0.000109944893312606 -0.000238091669459532 -0.000268095710540714 -0.00141791604146633
"315" 0.000192752018170392 -1.75945967913728e-05 0.000220413440930218 0.00036164074961182 0.000198780839157826 0.000257404849516883 1.86572220958002e-05 0.000131507403155249 0.000210113827363229 0.00010600965562394 -0.000101490598140117 0.000146065088406844 -0.000112566027306674 -0.000238452338338498 -0.000274305359604112 -0.00141030707117491
"316" 0.000192792757978402 -1.46669028929645e-05 0.000217497796988783 0.000364231773936997 0.000195898754483647 0.000252346410356564 1.63317687978798e-05 0.000126238129762569 0.000209448697169222 0.000104469207416491 -9.99757086931982e-05 0.000158872926798875 -0.000115023337224584 -0.000238960046363226 -0.000280241656140475 -0.00140195146363421
"317" 0.000192792215827359 -1.17726974776593e-05 0.000214271666546207 0.00036638953197138 0.000192917678593656 0.000247195905565303 1.39698165066019e-05 0.000120893657417554 0.000208165851247176 0.00010268156508919 -9.83364923001922e-05 0.000171086002043181 -0.000117361990571568 -0.00023957828542998 -0.000285838282615933 -0.00139301741596436
"318" 0.000192770153136828 -8.92415760101416e-06 0.000210755649150569 0.00036813063985209 0.000189845015089504 0.000241964829664648 1.15771436196592e-05 0.000115472584525583 0.000206296415856641 0.000100676866769056 -9.65946429260947e-05 0.000182609223005505 -0.00011961711880908 -0.000240257160615858 -0.00029102234122808 -0.00138364719711147
"319" 0.00019273624784586 -6.14807490233712e-06 0.000206961371694661 0.000369475624741157 0.000186679210418092 0.000236665296209782 9.14235192129787e-06 0.000109968418887988 0.000203863586804884 9.84857609077252e-05 -9.47789502059442e-05 0.000193349164476971 -0.000121825441780827 -0.00024096661344782 -0.00029573534378461 -0.00137399403805993
"320" 0.000192711220110015 -3.44586849012398e-06 0.000202912680861542 0.000370439966629705 0.000183426808436127 0.000231304416367859 6.6678751921263e-06 0.000104370261466211 0.000200901935066215 9.61365820423961e-05 -9.29118312858492e-05 0.000203214224324406 -0.000124018332684649 -0.000241660588364103 -0.000299921000675557 -0.00136422660869055
"321" 0.000192704448474222 -8.32917150740082e-07 0.000198640507523732 0.000371051784474726 0.000180092618919217 0.000225900433151191 4.15066052897671e-06 9.86854256618469e-05 0.00019745112438067 9.36695432852793e-05 -9.10188956596388e-05 0.000212140535553695 -0.000126227458767266 -0.000242304965712339 -0.000303534202932323 -0.00135451595624388
"322" 0.000192722607536349 1.67635694398968e-06 0.000194166736742766 0.000371339915354153 0.000176694455515805 0.000220467363806968 1.59759110420871e-06 9.29171538626711e-05 0.000193547626503718 9.11148930613091e-05 -8.91245802502935e-05 0.000220068199726073 -0.000128485788530744 -0.000242867098033393 -0.000306533341436427 -0.00134505788704418
"323" 0.000192773268451038 4.07995290548442e-06 0.00018951938024694 0.000371328994534164 0.000173235966905103 0.000215016171153353 -9.98180838225687e-07 8.70621007454544e-05 0.000189227857994437 8.85094666861501e-05 -8.72545221353799e-05 0.00022693430196911 -0.000130809911588394 -0.000243318294847442 -0.000308887531471548 -0.00133601737888125
"324" 0.000192867602149729 6.36694770054229e-06 0.000184730881271915 0.000371043879673941 0.000169717870700301 0.000209557074728468 -3.63639523348139e-06 8.11226693625012e-05 0.000184535701190256 8.58870714402065e-05 -8.54281414235119e-05 0.000232688400078491 -0.000133217205945878 -0.000243619018223793 -0.000310564096205252 -0.00132756124617594
"325" 0.000192999046211108 8.53075942472683e-06 0.000179833728462167 0.000370522227799724 0.000166159769497311 0.000204106274529801 -6.32227487000348e-06 7.51057283124178e-05 0.000179510382625452 8.32858786290439e-05 -8.36668378952185e-05 0.000237300066587928 -0.000135726143822332 -0.000243749293258064 -0.000311545998403207 -0.00131989215753746
"326" 0.000193177948996294 1.05626571419454e-05 0.00017485856322142 0.000369795837422182 0.0001625692535048 0.000198675163171661 -9.04183115183866e-06 6.90287092414338e-05 0.000174195124982337 8.07347354726121e-05 -8.19950260771083e-05 0.000240750251558971 -0.000138353430915777 -0.000243695723137731 -0.000311830637582059 -0.00131319416981745
"327" 0.000193401146587157 1.24689272946399e-05 0.000169838251127914 0.000368889522961126 0.000158951878419291 0.000193277069488871 -1.18069070211771e-05 6.2887085535479e-05 0.000168633659314623 7.82696446453116e-05 -8.04277335439243e-05 0.000243010897198168 -0.000141096490707568 -0.000243426971128556 -0.000311407633763285 -0.00130762118762171
"328" 0.000193668711183044 1.4242488117656e-05 0.000164808661697041 0.000367842900901911 0.000155321443000883 0.00018792257908898 -1.46153621392e-05 5.66939550837695e-05 0.000162865632888575 7.59210341705309e-05 -7.89831621185056e-05 0.000244078340698107 -0.000143960715974095 -0.000242932694265392 -0.000310278358325987 -0.00130335465565788
"329" 0.000193975489163582 1.58781977310208e-05 0.000159798359904077 0.000366684743593425 0.000151686700864909 0.000182621069770411 -1.74628888008272e-05 5.04649362674779e-05 0.000156934557993669 7.37204407685579e-05 -7.7672466092089e-05 0.000243960312591958 -0.000146939893057752 -0.000242204700630697 -0.000308459739999785 -0.00130053607167327
"330" 0.000194324332008027 1.73887908251012e-05 0.000154846731563402 0.000365452775031399 0.00014806488855214 0.000177388628819754 -2.03451683608043e-05 4.42165447696189e-05 0.000150882734515931 7.16930819449588e-05 -7.65152245656635e-05 0.000242672556191319 -0.000150035758733855 -0.000241233847119955 -0.000305974538170157 -0.00129934772131211
"331" 0.000194699164665969 1.87637082802038e-05 0.000149984736008426 0.000364175572267972 0.000144460390814485 0.000172235618825384 -2.32643051716761e-05 3.79585373399555e-05 0.000144745031019698 6.98635004586111e-05 -7.55207799375748e-05 0.000240236604261146 -0.000153236655352328 -0.000240022024982846 -0.00030284318325616 -0.00129991810880705
"332" 0.000195105210989291 2.0015088382561e-05 0.000145240456528243 0.000362885084130717 0.000140889394674233 0.000167168679941514 -2.62116968627416e-05 3.17122392550476e-05 0.000138559092524496 6.825114397512e-05 -7.46975288645968e-05 0.000236687262664751 -0.000156531537691035 -0.00023856897702525 -0.000299105171469768 -0.00130238409041693
"333" 0.000195528720360867 2.11450412014561e-05 0.000140653036617292 0.000361615135823022 0.000137359526358271 0.000162204662591466 -2.91796195526471e-05 2.55008884214568e-05 0.000132369638742773 6.68803175594386e-05 -7.4052886599438e-05 0.000232069841392063 -0.0001599062554359 -0.000236878747661044 -0.000294789164595703 -0.00130684584486215
"334" 0.00019596881368857 2.21639861129367e-05 0.000136241053765149 0.000360391865156321 0.000133883539596243 0.000157343796047797 -3.21720564668636e-05 1.93324198955442e-05 0.000126203384096486 6.575872493259e-05 -7.3591753086235e-05 0.000226425174655207 -0.000163334065878344 -0.000234960690774913 -0.000289946924560054 -0.0013133912489215
"335" 0.000196410006800314 2.30657570637849e-05 0.000132037922160633 0.000359246200061412 0.000130468052586725 0.000152600558535848 -3.51742087230182e-05 1.3233547919429e-05 0.00012008653540084 6.49049643856773e-05 -7.33195681118432e-05 0.000219819913383634 -0.000166806928764207 -0.000232836251872803 -0.000284631829825267 -0.00132211602827526
"336" 0.000196854768499358 2.38732339260483e-05 0.000128065011455352 0.00035820200259606 0.000127125507736799 0.000147979198960287 -3.81905900499157e-05 7.2240653303053e-06 0.000114052418441615 6.43204376240519e-05 -7.32389842492287e-05 0.000212311040087633 -0.000170302214610418 -0.000230512171655349 -0.000278895440366242 -0.00133306775539774
"337" 0.000197292040655358 2.45883420393772e-05 0.00012434639163584 0.000357286969233465 0.000123864097190862 0.000143488223382619 -4.12040143490835e-05 1.32315843885437e-06 0.000108124219555385 6.40098238683249e-05 -7.3344234409134e-05 0.000203973988519053 -0.000173791509350449 -0.000228018860045335 -0.000272794977548294 -0.00134625994567362
"338" 0.000197715613776103 2.5220013141656e-05 0.000120902290606548 0.000356521363794445 0.000120694318566195 0.000139135558551811 -4.42102326484831e-05 -4.44606878120403e-06 0.00010232094067455 6.39749376372468e-05 -7.36361438213018e-05 0.000194885565412134 -0.00017725680079745 -0.000225375703943526 -0.000266396125217364 -0.00136172325943632
"339" 0.000198114023275789 2.57689434825202e-05 0.000117745617623759 0.000355926937334039 0.000117618200772359 0.000134920446573313 -4.72078428267887e-05 -1.00637530297037e-05 9.66620876505104e-05 6.42136065621286e-05 -7.41101451248601e-05 0.000185125004121987 -0.000180674708825658 -0.000222611753439918 -0.000259764909953663 -0.00137942591562385
"340" 0.000198485452022036 2.62572077931539e-05 0.000114894007205091 0.00035552531516434 0.000114648291076994 0.000130852753064891 -5.01791062616801e-05 -1.5507489600431e-05 9.11572825138851e-05 6.47135047561357e-05 -7.4760033160894e-05 0.000174779969619977 -0.000184023752980704 -0.000219762483635635 -0.000252966196302378 -0.0013993330664413
"341" 0.000198822872662625 2.66809249735659e-05 0.000112351899484797 0.000355329051192611 0.000111777649396813 0.000126930376654841 -5.31258791772397e-05 -2.07612110361137e-05 8.58154836033476e-05 6.54669313435511e-05 -7.5577607917072e-05 0.000163935493514527 -0.00018727761500018 -0.000216852337846427 -0.000246069285832824 -0.00142135707130691
"342" 0.000199118231235787 2.70603051199271e-05 0.000110133359805613 0.000355354343717394 0.000109024536594322 0.000123157500572806 -5.60304738790029e-05 -2.57989853285958e-05 8.06495274748264e-05 6.64581537613696e-05 -7.6554252223139e-05 0.000152687895938831 -0.000190422769647308 -0.000213915783051853 -0.000239143501847004 -0.00144542691913605
"343" 0.00019936924963771 2.7392585393552e-05 0.000108236396404126 0.000355613067304899 0.000106383939006171 0.000119532357918732 -5.88944054222674e-05 -3.06068297556371e-05 7.56544869348156e-05 6.76666052102744e-05 -7.76794113229486e-05 0.000141127598712329 -0.000193437312202612 -0.000210995960863214 -0.00023226155250249 -0.00147139260135858
"344" 0.000199573304027261 2.76986912999398e-05 0.000106660361963521 0.000356110692276259 0.00010385793354919 0.000116059302842526 -6.17051980953762e-05 -3.51645365959311e-05 7.08318154417366e-05 6.90723917976421e-05 -7.89377120560908e-05 0.000129347280557218 -0.000196301234111891 -0.000208120812044386 -0.000225482124574709 -0.00149910392399292
"345" 0.000199719942458894 2.79705377207969e-05 0.00010540459399954 0.000356860184742023 0.000101443609860537 0.000112734792566468 -6.44545522666522e-05 -3.94521923414765e-05 6.61742321705455e-05 7.06554674848738e-05 -8.03230435496746e-05 0.000117454778537696 -0.00019900571773339 -0.000205335966928047 -0.000218885152679869 -0.00152839061588865
"346" 0.000199815008956222 2.82246111334767e-05 0.00010445645213509 0.000357861789943313 9.91436758095385e-05 0.000109551824253704 -6.71414555225211e-05 -4.34645587691388e-05 6.1670560785292e-05 7.23807560026734e-05 -8.18152765282592e-05 0.00010553175506539 -0.00020152955148951 -0.00020267589720319 -0.000212521511267949 -0.0015590203113039
"347" 0.000199847578453462 2.84608339292764e-05 0.000103808595846717 0.000359118175701665 9.69502109162934e-05 0.000106515792261805 -6.97582861246363e-05 -4.7181270355168e-05 5.73127267578514e-05 7.42278276688888e-05 -8.34019925881537e-05 9.36793937907327e-05 -0.000203866644468427 -0.000200168018428175 -0.000206453685237455 -0.00159077062444923
