"V1" "V2" "V4" "V5" "V7" "V8" "V10" "V11" "V13" "V14" "V15" "V17" "V18" "V20" "V21" "V23"
"1" 0.000218799556870394 0.000177996852170402 0.000507289425004175 0.000345485706752914 0.00018313634464245 5.81335760921869e-05 0.00012371128760218 3.48867540334448e-06 0.000314869485817912 0.000618747279592712 0.00041831636442119 0.000516762402442151 0.000186718425520902 0.000274630476446595 0.000577078086314924 0.00121366785585891
"2" 0.000215612087658123 0.000176190684010462 0.000500854893423965 0.000337258684475348 0.000184832582803783 6.31264289229223e-05 0.000131227100780821 1.15180953931799e-05 0.000316899482923596 0.000630926499969648 0.000429615581135597 0.000529222135822882 0.000169503830884072 0.000252980658238709 0.000574483350021012 0.00118951832129279
"3" 0.000212747959490473 0.000173933875781532 0.000493481633219395 0.000328338558548756 0.000185730472985552 6.72897512154767e-05 0.000139289345516573 1.92483536742104e-05 0.000318199819336772 0.000639916054502388 0.000438891789455836 0.00053891791204623 0.000150938373527399 0.000231393369450393 0.000569848158295725 0.00115934612220804
"4" 0.000210185167545218 0.000171232396524301 0.000485200684132148 0.000318762481655983 0.00018583559922603 7.06024835580088e-05 0.000147818071478709 2.66034989649516e-05 0.000318695428219632 0.000645646200933256 0.000446049465201837 0.000545754318802857 0.000131095633194384 0.000209960143702801 0.000563154355429787 0.00112338999823435
"5" 0.000207893467150762 0.000168080355516021 0.000476044866278514 0.00030857645514842 0.000185153044491935 7.30502059392323e-05 0.000156712968548645 3.35081771282176e-05 0.000318326024443036 0.000648058397397327 0.000451005525404508 0.000549650865850391 0.000110050915089511 0.000188774871091318 0.00055439125184727 0.00108193434439717
"6" 0.000205841446715045 0.000164480917111221 0.000466043182480542 0.000297815849449945 0.000183691974922362 7.46161824723473e-05 0.000165875864767631 3.98890112276683e-05 0.000317025245895484 0.000647118020382243 0.00045368941631967 0.00055054971091964 8.78871969684312e-05 0.000167917598016673 0.000543556616731833 0.00103530442680643
"7" 0.000203978793924166 0.000160427666238075 0.000455237305842372 0.000286526870895032 0.000181462173326758 7.52918517735133e-05 0.000175188864828736 4.56761322913463e-05 0.00031472722107598 0.00064280596461051 0.0004540425714373 0.000548404785270424 6.46918111813042e-05 0.000147463454771928 0.000530659144775812 0.000983869794148471
"8" 0.000202257786407583 0.000155923895787465 0.000443661925411897 0.0002747509852399 0.000178475757650297 7.50660482860496e-05 0.000184529550210769 5.07994220097769e-05 0.000311371391138355 0.00063513388631156 0.000452023079040257 0.00054319214431297 4.05554299490615e-05 0.000127473747920239 0.000515713272420921 0.000928034731947005
"9" 0.000200614355257283 0.000150962577251652 0.000431355456156921 0.000262537161442998 0.000174749882341157 7.39367956650428e-05 0.000193766759557215 5.51888422884604e-05 0.000306902516320787 0.000624122042067594 0.000447600841678639 0.000534906909756636 1.55766875919886e-05 0.000108004213429575 0.000498737874662604 0.000868236255299065
"10" 0.00019898599105746 0.000145543189715925 0.00041836149948293 0.000249926615202819 0.00017029935285647 7.19028152301352e-05 0.000202766888636101 5.87821089016493e-05 0.000301269844802112 0.000609820579793905 0.000440760956681208 0.000523563468156254 -1.01454113454308e-05 8.91035606105844e-05 0.000479769346978104 0.000804942996551586
"11" 0.000197303529563619 0.000139663287351868 0.000404722013910982 0.000236972386415968 0.000165147743624429 6.89621859517314e-05 0.000211396994984222 6.15187884544518e-05 0.000294427230829579 0.000592294147983945 0.000431505048819573 0.000509194208086203 -3.65057063646139e-05 7.08119847654701e-05 0.000458849047428094 0.000738652131309667
"12" 0.000195497623821766 0.000133322462981938 0.000390479378037552 0.00022372025409387 0.000159312333820635 6.5125752571176e-05 0.000219512081973291 6.33440473864174e-05 0.000286339064672226 0.000571630240249413 0.000419850639080539 0.00049185406803259 -6.3394175359089e-05 5.31600551191691e-05 0.000436024900784013 0.000669875552774577
"13" 0.000193492207402402 0.000126525661358724 0.000375682477778064 0.000210220161678545 0.000152820859322486 6.03970655970216e-05 0.000226974046387896 6.42082808836902e-05 0.000276977836925428 0.000547931072987573 0.000405828439349608 0.000471609779383843 -9.06985673974156e-05 3.61748261590945e-05 0.00041135964379446 0.000599149243311912
"14" 0.000191212469997919 0.000119267709690497 0.000360373681832208 0.000196523931334266 0.000145697841897185 5.47953384483693e-05 0.000233643030645999 6.40681373654215e-05 0.000266331653626159 0.000521320948492122 0.000389490763951968 0.000448556447102221 -0.000118303334548254 1.98751683090518e-05 0.000384924688314355 0.000527013080788017
"15" 0.000188587862805481 0.000111559078336219 0.000344605141321021 0.000182682987829117 0.000137970805457492 4.83365492744735e-05 0.000239387859054956 6.28866986187741e-05 0.000254392054088962 0.000491939851822296 0.000370898298879779 0.000422799553937888 -0.000146085923358354 4.28400460028789e-06 0.000356799421390875 0.000454019848396256
"16" 0.000185545288299073 0.000103406872202216 0.000328420720620794 0.000168751842697425 0.000129666633864176 4.10412996975091e-05 0.000244079199313455 6.06355889204541e-05 0.000241171741847357 0.000459948193006292 0.000350133045620936 0.000394464935982894 -0.000173926318573066 -1.05884622900782e-05 0.00032708199684999 0.000380722275424937
"17" 0.000182017532272404 9.48191153543932e-05 0.000311870792707759 0.000154781467043605 0.000120820462791542 3.2935507006147e-05 0.000247591735453523 5.72922882315372e-05 0.000226690121153894 0.000425513664906823 0.000327291338749606 0.000363694059473625 -0.000201695643376042 -2.47268818900938e-05 0.000295870179496223 0.000307663145921546
"18" 0.000177940461008652 8.58120818811522e-05 0.000295006534761391 0.000140829360061385 0.000111459731961029 2.40506176024134e-05 0.000249813598195946 5.28420409815027e-05 0.000210987033509387 0.000388824397917517 0.000302481866817773 0.000330645330822524 -0.000229267833675678 -3.81231733442016e-05 0.000263281497675703 0.000235384692341434
"19" 0.000173256295545263 7.63997266968783e-05 0.000277874622575239 0.00012694954013405 0.000101616317704929 1.441779835395e-05 0.000250637320846521 4.72833183859191e-05 0.000194111887618601 0.000350079248892469 0.000275830518005617 0.000295485641244115 -0.000256512726045791 -5.07647672313148e-05 0.000229440296783176 0.000164403698388323
"20" 0.000167910680035598 6.66028508747539e-05 0.00026052772018448 0.000113194274000319 9.13306133018184e-05 4.07375758304718e-06 0.000249970822382536 4.06161025315674e-05 0.000176126423341117 0.00030948954206193 0.000247469962470348 0.000258396495139687 -0.000283298928901054 -6.26406253322991e-05 0.000194478641109798 9.52235590405311e-05
"21" 0.000161861027551925 5.64440001647107e-05 0.000243011809081202 9.96209660354869e-05 8.06293947659756e-05 -6.93723554472503e-06 0.000247733712802046 3.28544466977951e-05 0.00015711504531743 0.000267273466173267 0.00021755549152363 0.000219573211473735 -0.000309493751574093 -7.37324477468364e-05 0.000158540036394445 2.8319633703423e-05
"22" 0.000155070368339586 4.59476166807536e-05 0.000225380740527243 8.62811496885189e-05 6.95481637266968e-05 -1.85761293975298e-05 0.000243856890702418 2.40162259774661e-05 0.000137165577604342 0.000223661743834682 0.000186241126067243 0.0001792189176189 -0.000334965360301001 -8.40301979123702e-05 0.000121778891616182 -3.58626049900177e-05
"23" 0.000147507965079615 3.51438829488374e-05 0.000207681289495307 7.32274980449611e-05 5.81220733341887e-05 -3.07931641370281e-05 0.0002382881966634 1.41328452287611e-05 0.000116385999429993 0.000178887170399397 0.00015369883886014 0.000137537104811977 -0.000359583670977195 -9.35129554612853e-05 8.4355219416805e-05 -9.69129586895519e-05
"24" 0.000139152970848091 2.40655279109204e-05 0.000189960291555829 6.05114725378947e-05 4.63829605445122e-05 -4.35388275434068e-05 0.000230984020461728 3.23866219657545e-06 9.48935854599002e-05 0.000133194437491334 0.000120105282370669 9.47486937613278e-05 -0.000383217019239602 -0.000102157182689764 4.64338274883449e-05 -0.00015446271752
"25" 0.000129993258213772 1.27434857692474e-05 0.000172262976760851 4.81816592245808e-05 3.43665446005436e-05 -5.67625840193162e-05 0.00022192077147702 -8.62226158688369e-06 7.28127705550658e-05 8.68217710929102e-05 8.56449410001691e-05 5.10697613935343e-05 -0.000405740635594501 -0.000109942281642468 8.19190530510762e-06 -0.000208179113308184
"26" 0.000120030732538857 1.21404956774269e-06 0.000154635968985569 3.62857031641252e-05 2.21043384581353e-05 -7.04076576353489e-05 0.000211089656154116 -2.13929528384208e-05 5.02832678841549e-05 4.00173734598097e-05 5.05069559423078e-05 6.72402127796914e-06 -0.000427030546576192 -0.000116842485922511 -3.01977650742187e-05 -0.000257784741540882
"27" 0.000109266408217051 -1.04825759210396e-05 0.000137128388637242 2.48677828156267e-05 9.62501757303177e-06 -8.44245899963371e-05 0.000198499977130379 -3.50206950869694e-05 2.7449878705153e-05 -6.97260780628993e-06 1.48830152169649e-05 -3.80698694389253e-05 -0.000446967295388983 -0.000122825141945399 -6.8548992644507e-05 -0.000303038704116758
"28" 9.77181179897606e-05 -2.2305393717425e-05 0.000119775752768467 1.39660764188496e-05 -3.03407806400012e-06 -9.87527470123936e-05 0.000184169346076133 -4.94367396912043e-05 4.46243913801119e-06 -5.39031705344985e-05 -2.10296705725636e-05 -8.30875124445583e-05 -0.000465440023390522 -0.000127862684428463 -0.000106680669699816 -0.000343759288859499
"29" 8.54120045911661e-05 -3.42188163686789e-05 0.000102620594723613 3.61888594139545e-06 -1.5849207686681e-05 -0.000113335473798941 0.000168133264578296 -6.45721143420424e-05 -1.85212353642743e-05 -0.000100533777358397 -5.70349101759867e-05 -0.000128108150803501 -0.000482340928080166 -0.000131919821595475 -0.000144407045517716 -0.000379809193133354
"30" 7.23734946686282e-05 -4.61795355397754e-05 8.57062240674526e-05 -6.14145936148746e-06 -2.87892107792851e-05 -0.000128117165885431 0.000150448810062159 -8.03498614720283e-05 -4.13443354665219e-05 -0.000146623508750969 -9.29394650386573e-05 -0.000172920701079894 -0.000497569312024979 -0.000134965276432169 -0.000181542204326225 -0.000411104856161832
"31" 5.86493871524323e-05 -5.81461867355902e-05 6.90632170813214e-05 -1.52864226775134e-05 -4.1826427557837e-05 -0.000143038692596349 0.000131174426411148 -9.66902560032542e-05 -6.38449460062814e-05 -0.000191943340627586 -0.000128547792224923 -0.000217311688133095 -0.00051103600300841 -0.000136958998794871 -0.000217905316201605 -0.000437613020855415
"32" 4.42850855120419e-05 -7.00761170285429e-05 5.27271726598622e-05 -2.37964607521377e-05 -5.49355330460445e-05 -0.000158042137293164 0.000110390951287896 -0.000113506868515939 -8.58647282831319e-05 -0.000236259377820453 -0.000163670464787159 -0.000261077373735898 -0.000522660143757138 -0.000137871085391241 -0.000253316265422359 -0.000459350606817166
"33" 2.93343204819143e-05 -8.19333222301567e-05 3.67319153536912e-05 -3.16538814489282e-05 -6.8092008268295e-05 -0.000173070784255442 8.81936541317334e-05 -0.000130716995071113 -0.00010724760291651 -0.00027936237097378 -0.00019812317771512 -0.000304022074885785 -0.000532369120435977 -0.000137668597861161 -0.000287596827140428 -0.000476377493969056
"34" 1.38592431177293e-05 -9.36749827742065e-05 2.11044087688261e-05 -3.88432477489256e-05 -8.12711770311704e-05 -0.000188070966590395 6.46820631657614e-05 -0.000148230157972833 -0.000127839482929098 -0.000321037625335771 -0.000231726673422999 -0.000345960212735363 -0.000540103036204 -0.000136319494699632 -0.000320581207551363 -0.000488807125908154
"35" -2.0801106618369e-06 -0.000105265606393128 5.86854495329591e-06 -4.53643298864456e-05 -9.44521032096791e-05 -0.000202988160380792 3.99695690110469e-05 -0.000165955503171219 -0.000147494653931951 -0.000361087450391673 -0.000264308428075964 -0.000386708357358453 -0.000545815068684696 -0.000133792103090929 -0.000352102649506172 -0.000496790879897635
"36" -1.84071993125226e-05 -0.000116670103860179 -8.95157037324431e-06 -5.12119374009179e-05 -0.000107611223215672 -0.000217769175060767 1.41839478968891e-05 -0.000183805587270756 -0.000166067533843203 -0.000399318500054147 -0.000295703731812045 -0.000426101158972764 -0.000549465822736852 -0.000130061833351722 -0.000382003529669733 -0.000500519182968129
"37" -3.5050113615145e-05 -0.000127852872908822 -2.33330883463692e-05 -5.63975676214752e-05 -0.000120729907922336 -0.000232363084022834 -1.25499020746078e-05 -0.000201684194178508 -0.000183431811160633 -0.000435556526742441 -0.000325758567372935 -0.000463982674101163 -0.000551035519221232 -0.000125108363597479 -0.00041013998818042 -0.000500218360887756
"38" -5.19302354953593e-05 -0.000138782784606351 -3.72638111190967e-05 -6.09296561594278e-05 -0.000133790324906418 -0.000246722983652398 -4.0082544083623e-05 -0.000219502236225586 -0.00019946169445355 -0.000469637430286356 -0.000354324368709298 -0.000500205259551392 -0.000550514244260213 -0.000118912515129181 -0.000436373485869169 -0.000496149905396169
"39" -6.89704721095299e-05 -0.000149436013998946 -5.07257783216101e-05 -6.48300908000215e-05 -0.000146770335571163 -0.000260802022637533 -6.82780228286022e-05 -0.00023717330297277 -0.000214047519835973 -0.000501404699201265 -0.000381269471877743 -0.000534637936342058 -0.000547904736479232 -0.000111467846374134 -0.00046057947603052 -0.000488600313007156
"40" -8.60863336529472e-05 -0.000159784214220758 -6.37100930856918e-05 -6.81243761674519e-05 -0.000159656058466618 -0.000274559889666151 -9.69786153134043e-05 -0.00025460800423085 -0.000227091304594694 -0.000530724676620007 -0.000406468888021579 -0.000567159489707816 -0.000543225246241131 -0.000102768703563213 -0.000482641282336819 -0.000477881606727072
"41" -0.000103199426506844 -0.000169809742160516 -7.6213555609594e-05 -7.08402692773439e-05 -0.000172432308246156 -0.000287953794574807 -0.000126035795564099 -0.000271725716241602 -0.000238507272218718 -0.000557468974108556 -0.000429813239154465 -0.000597661736894967 -0.00053650816694301 -9.28144146666603e-05 -0.000502459528414649 -0.000464324502310144
"42" -0.000120221028490629 -0.000179488821268288 -8.82232296568335e-05 -7.30152632656696e-05 -0.000185077791719554 -0.000300945465840661 -0.000155293402050027 -0.000288439369920999 -0.000248222036026986 -0.000581526803036582 -0.000451199997787242 -0.00062605020818092 -0.000527801699003933 -8.16211291705101e-05 -0.000519943243083298 -0.000448276321240067
"43" -0.000137079098582606 -0.00018881155632969 -9.97444033264376e-05 -7.46932797104175e-05 -0.000197577856523408 -0.000313503262172353 -0.000184588476572348 -0.000304676179562374 -0.000256178489681688 -0.000602808280988755 -0.000470545983538884 -0.000652246111396225 -0.00051716241346889 -6.92082215823636e-05 -0.000535021300265479 -0.000430094025881602
"44" -0.000153685832279469 -0.000197762483058468 -0.000110773658230546 -7.59177765741579e-05 -0.000209915379247942 -0.000325594892188741 -0.000213772794836201 -0.000320360687959424 -0.000262333181248123 -0.000621226727604927 -0.000487775213918504 -0.000676180085386953 -0.000504668531913793 -5.56019949637036e-05 -0.000547629984311309 -0.000410140742592099
"45" -0.000169972245277154 -0.000206337020832533 -0.000121313792702219 -7.67408018625074e-05 -0.000222077713024327 -0.00033719205632603 -0.00024268551619107 -0.00033542234915508 -0.000266663912903813 -0.000636725669478166 -0.000502830672422857 -0.000697800422464602 -0.000490407573884472 -4.08450218834866e-05 -0.00055772582910239 -0.000388788749617281
"46" -0.000185855450046546 -0.000214528696311528 -0.000131373278340861 -7.72165788843562e-05 -0.000234047820914521 -0.000348272723393394 -0.000271177927838126 -0.000349796963161656 -0.00026915499428495 -0.00064925208062467 -0.000515664418412389 -0.000717065108633664 -0.000474477837211052 -2.49819118413654e-05 -0.000565279217501706 -0.000366400691182165
"47" -0.000201270087942967 -0.000222339723434355 -0.000140957472174576 -7.74040148516267e-05 -0.000245803001396819 -0.00035881064542853 -0.000299097424818638 -0.000363427574421853 -0.000269815571129544 -0.000658779768906352 -0.000526249025056811 -0.000733950616324629 -0.000456997706200395 -8.07652542338679e-06 -0.000570278687426913 -0.000343342014550239
"48" -0.000216148779498484 -0.000229767506473069 -0.00015007708358292 -7.73641365866312e-05 -0.000257334657186333 -0.000368789595271966 -0.000326306881472993 -0.000376256543165391 -0.000268663464962254 -0.000665289892416605 -0.000534562446815849 -0.00074844241045889 -0.000438089022091174 9.80344532896081e-06 -0.000572722401134487 -0.000319967811991142
"49" -0.00023042710470764 -0.000236821324109053 -0.00015873962913499 -7.71615130014781e-05 -0.000268619548418715 -0.000378193474230585 -0.00035266322531038 -0.00038823823928409 -0.000265735975786911 -0.000668782030957476 -0.000540605161960025 -0.000760541022812869 -0.000417890537860685 2.85819273166118e-05 -0.000572630362576775 -0.000296621668566834
"50" -0.000244049694071971 -0.000243504035848465 -0.000166961291124924 -7.68573521078799e-05 -0.000279639275454648 -0.000387010774269483 -0.000378042832556621 -0.000399327259722437 -0.00026108782002612 -0.00066928165576121 -0.000544385000173706 -0.000770260305788285 -0.000396549058230987 4.81637202021689e-05 -0.000570035239133735 -0.000273638032510857
"51" -0.000256964861904828 -0.000249829881641331 -0.000174753990121862 -7.65182228173365e-05 -0.000290374232599486 -0.000395230666140407 -0.000402315534824058 -0.000409486695405444 -0.000254782333814109 -0.000666816548010227 -0.000545928706060243 -0.000777624751028914 -0.000374220746211334 6.84483332769556e-05 -0.00056498755377294 -0.000251329571549416
"52" -0.000269126495587652 -0.000255805150701694 -0.000182127530401071 -7.62111445379047e-05 -0.00030080555996585 -0.000402846521818713 -0.000425370400713964 -0.000418682961467937 -0.00024690403467272 -0.000661440390275009 -0.000545273812856415 -0.000782674680790521 -0.000351067012470611 8.93222094923947e-05 -0.000557551944884141 -0.000229994610152429
"53" -0.000280494237197081 -0.000261447951880117 -0.000189102891264984 -7.59969434367145e-05 -0.000310911571571815 -0.000409852210032601 -0.000447100192763093 -0.000426890737783186 -0.000237544648520511 -0.000653218301808672 -0.00054247404843241 -0.000785458245211514 -0.00032726270115101 0.00011066799164042 -0.000547809580293226 -0.000209905856943553
"54" -0.000291034886320451 -0.000266773007253242 -0.000195687400386549 -7.59419248292211e-05 -0.000320668327887791 -0.000416247644437834 -0.000467415310758266 -0.00043409106783556 -0.000226814757154935 -0.000642236174142476 -0.00053759303605739 -0.000786037197454283 -0.000302982965614826 0.000132356366906837 -0.000535854679937173 -0.000191317601668681
"55" -0.000300718639689955 -0.00027179099491176 -0.000201898121876216 -7.6104141127869e-05 -0.00033005222085134 -0.000422032721554246 -0.000486225226256898 -0.000440268230368457 -0.000214833317709814 -0.00062859004293857 -0.000530706690662949 -0.000784483217726434 -0.000278406247898285 0.000154242130983348 -0.000521797048022519 -0.000174460116289014
"56" -0.000309531338859932 -0.000276523330429853 -0.000207751596429992 -7.65418530242239e-05 -0.000339041403299551 -0.000427206675001758 -0.000503458670912359 -0.000445410874573318 -0.000201727436819664 -0.000612392552912098 -0.000521908348700403 -0.000780879875900102 -0.000253718242446279 0.000176182189613321 -0.000505760782302721 -0.000159530332380733
"57" -0.000317450815092954 -0.000280985395541163 -0.000213258674593985 -7.73100351052651e-05 -0.000347608176581952 -0.00043177756802616 -0.000519051941621104 -0.000449515824350082 -0.000187636989452737 -0.000593774759134644 -0.000511298578778967 -0.00077531601981006 -0.000229099909631073 0.000198023103615032 -0.000487878694967473 -0.000146707501137126
"58" -0.000324473976602438 -0.000285191628921386 -0.000218429484400463 -7.84565861198558e-05 -0.000355730863302057 -0.000435750030515075 -0.00053295052674005 -0.000452582662170863 -0.000172710242759926 -0.000572875445673568 -0.000498988828624624 -0.000767893768894073 -0.000204739749240511 0.000219599644486445 -0.000468302260538195 -0.000136139911277343
"59" -0.000330596796453687 -0.000289160030377983 -0.000223272200637764 -8.0027389508182e-05 -0.000363377470914718 -0.000439129615007043 -0.00054511607015384 -0.000454617845000951 -0.00015709802328261 -0.000549850103539742 -0.00048510194500224 -0.000758720718763464 -0.000180816101082899 0.000240750253796065 -0.000447188617545088 -0.000127942367122573
"60" -0.000335824991907046 -0.000292905701323427 -0.000227805336015163 -8.20613368189489e-05 -0.000370521688113067 -0.000441925627170975 -0.000555517488473699 -0.000455632011417457 -0.000140960976724787 -0.00052486616867025 -0.000469771383480367 -0.000747909661954117 -0.000157508313712256 0.000261305856516308 -0.000424706941194906 -0.000122205619534981
"61" -0.000340168739736064 -0.000296436302974304 -0.000232025380808757 -8.45919279644635e-05 -0.000377139276165955 -0.000444150120724268 -0.000564140605006399 -0.000455635081619877 -0.000124463117016095 -0.000498101449597688 -0.000453133489309062 -0.000735586152586583 -0.000134990824266322 0.000281095815337737 -0.000401033187595629 -0.000118990925179304
"62" -0.000343642168283343 -0.000299770992829212 -0.000235939728308721 -8.76441183085678e-05 -0.000383201133008703 -0.000445811776681496 -0.000570970196941308 -0.000454650758051512 -0.000107759227988155 -0.000469745992512839 -0.000435336841896981 -0.000721871158264018 -0.000113428448352903 0.000299945469087729 -0.000376352508624875 -0.000118326770540893
"63" -0.000346268555254953 -0.000302915524834441 -0.000239557537306391 -9.12379166761536e-05 -0.000388678082383483 -0.000446921492368984 -0.000576016297880978 -0.000452696837335072 -9.1022343510488e-05 -0.000439996386718004 -0.000416537416324938 -0.000706901033049333 -9.29805639064126e-05 0.000317684370389053 -0.000350852635098681 -0.000120211962018643
"64" -0.000348072242390085 -0.000305878505371898 -0.000242872593281466 -9.53850365396892e-05 -0.000393550055034661 -0.000447496001656793 -0.000579293158755161 -0.00044980151026312 -7.44091817161113e-05 -0.000409060828633181 -0.000396892939049637 -0.00069080548365655 -7.37965535058755e-05 0.000334142423262917 -0.000324731824667805 -0.000124621985393737
"65" -0.000349087494767257 -0.000308667216568972 -0.000245887386676174 -0.000100093638829668 -0.000397783727863583 -0.000447544641439687 -0.000580824208480179 -0.000445989239984298 -5.80812131491844e-05 -0.000377147789069176 -0.000376565867488489 -0.000673721569199324 -5.60156397560115e-05 0.000349154633489932 -0.00029818689811273 -0.000131497940362781
"66" -0.000349350049913917 -0.00031128606488965 -0.000248598428851045 -0.000105357954788488 -0.000401362351684844 -0.00044708405814304 -0.000580643203353862 -0.000441297265588217 -4.2189622943418e-05 -0.000344481377896842 -0.000355723468414563 -0.000655791202907389 -3.97634972197554e-05 0.000362559657433547 -0.000271413493156317 -0.000140754203798999
"67" -0.000348895549295091 -0.000313737452078695 -0.000250993951511717 -0.000111170730736642 -0.000404256868893587 -0.000446125935991008 -0.000578795364365345 -0.000435755540213576 -2.68866098554722e-05 -0.000311276664697561 -0.000334529947648508 -0.000637147955984978 -2.51555465492567e-05 0.000374200955753727 -0.000244615481258126 -0.000152283634009587
"68" -0.000347772714420346 -0.000316016386169533 -0.000253070803231588 -0.000117515318403514 -0.000406452539067208 -0.000444684596346161 -0.00057533629089565 -0.000429399860830417 -1.23053932494446e-05 -0.000277765313525463 -0.000313154008932374 -0.000617931648412758 -1.22906119733787e-05 0.000383940541240321 -0.000217985648815456 -0.000165947549382038
"69" -0.000346025642040362 -0.000318126198015973 -0.000254814291603635 -0.00012436198300862 -0.000407928746095596 -0.000442780001842805 -0.000570321191873481 -0.000422271219566463 1.4184795348087e-06 -0.000244164263935811 -0.000291765376288307 -0.000598278409008602 -1.25387368268182e-06 0.000391640436046187 -0.000191718439166369 -0.000181585904215035
"70" -0.000343704898766787 -0.00032006046232018 -0.000256209414787849 -0.000131685756091487 -0.000408674041428957 -0.000440423968862614 -0.000563824542323179 -0.000414409177257104 1.41680070898648e-05 -0.000210702920626377 -0.000270523981496072 -0.000578320987090695 7.88790020537833e-06 0.000397178470643655 -0.000166000138236162 -0.000199017971123091
"71" -0.000340863746900846 -0.000321812529443636 -0.000257246053058285 -0.000139444552072681 -0.000408673323053988 -0.000437631075168134 -0.000555922339016983 -0.000405851508122821 2.58359419335858e-05 -0.000177599060482216 -0.000249593003116969 -0.000558190489577091 1.50812083409671e-05 0.000400449431581657 -0.000141011311958199 -0.000218043502414992
"72" -0.000337558558143207 -0.00032337283531874 -0.000257899874953996 -0.000147597620298301 -0.000407922513261975 -0.000434420322291294 -0.0005466962304465 -0.000396650624333787 3.63281369326536e-05 -0.000145071955830572 -0.000229124182870448 -0.000538012620836656 2.02861443220755e-05 0.00040135853423338 -0.000116927606370954 -0.000238441862038869
"73" -0.000333844939226747 -0.000324738522306961 -0.000258151462498324 -0.000156088529175694 -0.000406417882408342 -0.000430809330832464 -0.000536237889120479 -0.000386840965424037 4.55670932611844e-05 -0.000113332490533232 -0.00020927025414065 -0.000517905642578888 2.34868209265565e-05 0.000399827725331849 -9.39074941796888e-05 -0.000259982736889777
"74" -0.000329782297939332 -0.000325896637903145 -0.000257978965168061 -0.000164866357714785 -0.000404161396520192 -0.000426809190439396 -0.000524634862542798 -0.0003764757241109 5.34840726545542e-05 -8.25789342530672e-05 -0.00019016807871925 -0.000497984699872329 2.46805297694646e-05 0.000395803973394856 -7.210439737478e-05 -0.000282420048353613
"75" -0.000325432159925008 -0.000326839372455079 -0.000257364449396419 -0.000173869027847292 -0.000401159268643548 -0.00042244260819091 -0.000511991694046979 -0.000365597991101484 6.00307786828902e-05 -5.30128573746596e-05 -0.000171955674914221 -0.000478360522767423 2.38803412193708e-05 0.000389242950546207 -5.16566612165395e-05 -0.000305495713347327
"76" -0.000320855031708239 -0.000327553978184693 -0.000256274556717144 -0.000183032336294145 -0.000397429088401612 -0.000417724793326062 -0.000498408552394367 -0.000354253446559779 6.5176725530621e-05 -2.48119098944849e-05 -0.000154751434342416 -0.000459129140290129 2.11165979597383e-05 0.000380126428273483 -3.26877667298057e-05 -0.000328949950051183
"77" -0.000316112414408727 -0.000328035154546692 -0.000254686614742177 -0.000192289103590957 -0.000392983487917834 -0.000412676627849459 -0.000483993744831125 -0.000342490885136593 6.8900435285708e-05 1.85259169341496e-06 -0.000138668265902762 -0.000440382972430436 1.64386607741249e-05 0.000368460813499389 -1.53067888588917e-05 -0.000352515204119988
"78" -0.000311267792259136 -0.000328274209052323 -0.000252574037480068 -0.000201565414877602 -0.000387853321959488 -0.000407312823672502 -0.000468853649102768 -0.000330363460995377 7.12066521159862e-05 2.68225218934056e-05 -0.000123805418703463 -0.000422205876846359 9.90803972026767e-06 0.000354266224188478 3.923981385195e-07 -0.000375922959283035
"79" -0.000306383926271517 -0.0003282620976934 -0.000249912584262118 -0.000210791643419831 -0.000382064189486334 -0.000401656748461809 -0.000453097415517373 -0.000317914507923899 7.21070601436513e-05 4.99615173276519e-05 -0.000110248032795141 -0.00040467111229195 1.60162129031891e-06 0.000337587923780308 1.43326711621641e-05 -0.000398910968723123
"80" -0.000301527286267349 -0.000327998985463869 -0.000246675223703503 -0.000219894402050932 -0.000375659799682421 -0.000395727759538939 -0.000436837146920601 -0.000305196707333901 7.16373228870681e-05 7.11377038068193e-05 -9.80727687703816e-05 -0.00038784351241524 -8.38942036679487e-06 0.00031849334330821 2.64567225519999e-05 -0.00042121863879173
"81" -0.000296757047077345 -0.000327477998427899 -0.000242832380421824 -0.000228796369544152 -0.00036868370804245 -0.000389547385065174 -0.000420184405793763 -0.000292262693355396 6.98415898000598e-05 9.02488375051665e-05 -8.73362825775332e-05 -0.000371779361710609 -1.99584570093576e-05 0.000297071944186734 3.67227677048608e-05 -0.000442591767280102
"82" -0.000292135054213029 -0.000326701486831782 -0.000238365803903914 -0.000237426025870093 -0.000361184493978484 -0.000383136028717053 -0.000403251938111525 -0.000279157097024769 6.67826034729039e-05 0.000107205620622758 -7.80825421800392e-05 -0.000356522726500717 -3.29922309249906e-05 0.000273433347333529 4.51089068155526e-05 -0.000462791376277095
"83" -0.000287721514462525 -0.000325672120837237 -0.000233247198671909 -0.000245711298687902 -0.000353220551096232 -0.000376518131384129 -0.000386148885251873 -0.000265937739172323 6.25417223363613e-05 0.000121934228804727 -7.03410146427855e-05 -0.000342105148687221 -4.7362316576455e-05 0.000247710466188777 5.16075958653039e-05 -0.000481587531214453
"84" -0.00028358100520385 -0.0003243951740805 -0.000227460430127369 -0.000253581250617865 -0.000344858054092175 -0.000369718365929978 -0.000368983135264488 -0.000252650037271471 5.72028112839787e-05 0.000134389006418593 -6.41260910558404e-05 -0.000328558260228986 -6.29346745664833e-05 0.000220054127694345 5.62349964727296e-05 -0.000498767486813795
"85" -0.000279765621409439 -0.000322878922818668 -0.000220986359946053 -0.000260967565719919 -0.000336163675321925 -0.000362761518802773 -0.000351864558647813 -0.00023934803201571 5.08739627725902e-05 0.000144537289779163 -5.94371877482304e-05 -0.00031589193597387 -7.9564390322105e-05 0.000190635729728576 5.90235612726834e-05 -0.000514136936221855
"86" -0.000276336237087599 -0.000321137585896247 -0.00021381561105908 -0.000267807686301842 -0.000327215708166125 -0.000355671388806431 -0.000334890709598833 -0.000226087849526747 4.36672947923898e-05 0.000152367377065374 -5.62575781914259e-05 -0.000304115411674079 -9.71066988271746e-05 0.000159639049354875 6.0020216296683e-05 -0.000527521436242474
"87" -0.000273341010555464 -0.000319184430505036 -0.000205936735737124 -0.000274040435488373 -0.00031808912679098 -0.000348477648694108 -0.000318167071064669 -0.000212915121269521 3.57042953645716e-05 0.000157887934243452 -5.45551953165424e-05 -0.000293224557193168 -0.000115405977346414 0.000127270638038198 5.92917811124082e-05 -0.000538765877855113
"88" -0.000270833905523136 -0.000317039583866336 -0.000197347037057795 -0.000279612997198271 -0.000308870684301935 -0.000341207035918267 -0.000301787260257543 -0.000199887069049781 2.71163577312026e-05 0.00016112340450099 -5.42887823930854e-05 -0.000283211512179221 -0.000134310108637684 9.37465624717257e-05 5.69173028130346e-05 -0.000547738861798172
"89" -0.000268857878889572 -0.000314721906564262 -0.000188049254254577 -0.000284475884389389 -0.000299648656883329 -0.000333890852791794 -0.000285841695634524 -0.000187054416402116 1.80420588383277e-05 0.000162124053694108 -5.53955243599063e-05 -0.000274052887599223 -0.000153662208705563 5.92946800814126e-05 5.29944992855822e-05 -0.00055433194420869
"90" -0.000267455997993192 -0.000312257842353168 -0.000178055988693979 -0.000288585932563147 -0.000290508597704162 -0.000326555485672336 -0.000270415341497673 -0.000174467832109087 8.61772191401614e-06 0.00016094662856021 -5.78079596283206e-05 -0.000265729643143008 -0.000173312648759969 2.41503299509823e-05 4.76298741640142e-05 -0.000558460507479656
"91" -0.000266664607679913 -0.000309670166320396 -0.000167377076243613 -0.00029190609763518 -0.00028154391649857 -0.000319232073795686 -0.000255582554959814 -0.000162180931316081 -1.00870330404118e-06 0.000157671149308129 -6.14446430146871e-05 -0.000258206119534241 -0.000193108715121459 -1.1440575376659e-05 4.09435977641213e-05 -0.000560063630196382
"92" -0.000266516709552128 -0.000306987518119873 -0.000156043178769986 -0.000294409571508679 -0.000272843104520697 -0.000311953076021419 -0.000241421538683991 -0.000150243666795772 -1.06947457082283e-05 0.000152389313125058 -6.62131433001621e-05 -0.000251447410962345 -0.000212910590620435 -4.72325047564672e-05 3.30697326037129e-05 -0.000559106809984645
"93" -0.000267034994023064 -0.000304235573426481 -0.000144087591686231 -0.000296076352277749 -0.000264499618329087 -0.000304746834533417 -0.00022799303590609 -0.000138710651711406 -2.03026400430059e-05 0.000145204299081581 -7.20124861859931e-05 -0.000245415125657728 -0.000232578522528765 -8.2977882208075e-05 2.41422778580631e-05 -0.000555577398141993
"94" -0.000268247075787384 -0.00030144946819779 -0.000131545165183168 -0.000296888098094827 -0.000256597112249637 -0.000297648373522762 -0.000215355553693526 -0.000127628795860676 -2.9695508096e-05 0.0001362335973812 -7.87350406007974e-05 -0.000240063298394846 -0.000251988572682791 -0.000118434050429793 1.43076414817269e-05 -0.000549486940005251
"95" -0.000270156935684863 -0.000298654693319937 -0.000118470017612404 -0.000296843668012856 -0.000249225415709697 -0.000290688517014472 -0.000203557233278858 -0.000117047097720485 -3.87381950073471e-05 0.000125596720494604 -8.62653380247496e-05 -0.000235348646269389 -0.000271024207731195 -0.000153356213303688 3.71638417811102e-06 -0.000540870405511044
"96" -0.000272779102790368 -0.00029588118289998 -0.000104918198163366 -0.000295945786558268 -0.000242461242961166 -0.00028389802889304 -0.000192641286800169 -0.000107012032856605 -4.73085613913502e-05 0.00011342988548992 -9.44867592012012e-05 -0.000231222390599478 -0.00028957920967796 -0.000187512917183728 -7.4818191408183e-06 -0.000529784897900342
"97" -0.000276113984739339 -0.000293159282076099 -9.09643873591357e-05 -0.000294202535065028 -0.000236383630543364 -0.000277305237731741 -0.000182634169054577 -9.75716737290088e-05 -5.52968273228767e-05 9.98654834582216e-05 -0.000103280283648552 -0.000227641397979512 -0.000307564393144751 -0.00022068628133619 -1.91331083368208e-05 -0.000516305861745666
"98" -0.000280149161546486 -0.000290511971096885 -7.66791745406557e-05 -0.000291634895049441 -0.000231059036446549 -0.00027094785007374 -0.000173565986271251 -8.87725659742335e-05 -6.25945444942205e-05 8.50446241209674e-05 -0.000112520757616706 -0.000224556654663194 -0.000324901992963807 -0.00025266043187494 -3.10838592461905e-05 -0.000500529982223292
"99" -0.000284875796411164 -0.00028797100825098 -6.21479744354372e-05 -0.00028826868233034 -0.000226554666676678 -0.000264848747517406 -0.000165446550753606 -8.06522121983666e-05 -6.91170028876615e-05 6.91114912358383e-05 -0.000122086380444575 -0.00022192338449611 -0.000341527923395938 -0.00028324492911395 -4.31875405717541e-05 -0.000482566924933645
"100" -0.000290270657477529 -0.000285555909962878 -4.74630365237696e-05 -0.00028413685470629 -0.000222922016865446 -0.000259038870468744 -0.000158289276092867 -7.3252170683498e-05 -7.47825189947932e-05 5.22076841588167e-05 -0.000131854700898335 -0.000219695739196034 -0.000357396282977667 -0.000312262332385809 -5.53007300948547e-05 -0.000462546206210601
"101" -0.000296311316029412 -0.000283291497751084 -3.2723613400043e-05 -0.000279282624153806 -0.000220209757231949 -0.00025354464502802 -0.000152092541769874 -6.66121984548788e-05 -7.95365190065581e-05 3.44760039347179e-05 -0.000141708401883089 -0.000217836579187316 -0.000372471191501699 -0.000339548353315894 -6.72804217782404e-05 -0.000440606347290768
"102" -0.000302962539737819 -0.000281195204395784 -1.80356954460989e-05 -0.000273754071695302 -0.000218453036046445 -0.000248395156225869 -0.000146848719982819 -6.07667334258081e-05 -8.33241247854563e-05 1.6056405018128e-05 -0.000151531641570979 -0.000216303982105832 -0.000386734777778052 -0.00036496431925621 -7.89962186441125e-05 -0.000416899501079968
"103" -0.000310184171798736 -0.000279287833355244 -3.50975974213439e-06 -0.000267602706060361 -0.000217685767484817 -0.000243610892753646 -0.000142541174156037 -5.57438400412235e-05 -8.61173520626868e-05 -2.91331964586018e-06 -0.000161212802893863 -0.000215061084453234 -0.000400179110449654 -0.0003883889315461 -9.03248718169197e-05 -0.000391589120498503
"104" -0.000317935333874136 -0.000277585463930194 1.07423875234085e-05 -0.000260889283956113 -0.00021792355089221 -0.000239217190205624 -0.000139152066396025 -5.15745865366326e-05 -8.78967579459191e-05 -2.22948917503515e-05 -0.000170644171401625 -0.000214072198878439 -0.000412813479519179 -0.000409719971272022 -0.000101152054733296 -0.00036484344204315
"105" -0.000326171321487838 -0.000276099719559171 2.46016999088981e-05 -0.000253676525244132 -0.000219182981351801 -0.000235231083908892 -0.000136660115210665 -4.82842752577003e-05 -8.86570826881515e-05 -4.19618042833638e-05 -0.000179725056744626 -0.000213308165251465 -0.00042465103886994 -0.00042887508551499 -0.000111371006275329 -0.000336834326994308
"106" -0.000334837212523901 -0.000274842559283271 3.79592308765569e-05 -0.000246034432741788 -0.000221462591037228 -0.000231670400167291 -0.000135028866359245 -4.58901452399228e-05 -8.84132409960391e-05 -6.17823572350123e-05 -0.000188361508865224 -0.000212738954640465 -0.00043572020571169 -0.00044578974129125 -0.000120887073953828 -0.000307741049929757
"107" -0.000343883800211418 -0.000273828285132099 5.06928998931206e-05 -0.0002380323418055 -0.000224756455256505 -0.000228553837575149 -0.00013422943010344 -4.44130844308229e-05 -8.71865427824246e-05 -8.16367428268859e-05 -0.000196467403474071 -0.000212338210738545 -0.000446056705435885 -0.000460426124061761 -0.000129618211160163 -0.000277741585733602
"108" -0.000353253758407534 -0.000273061479047023 6.26857186053824e-05 -0.000229745180071329 -0.000229053956723712 -0.000225893170202074 -0.000134225212516531 -4.38622168266936e-05 -8.50127249966884e-05 -0.000101402805450092 -0.000203956604136691 -0.000212077686826928 -0.000455701087996232 -0.000472752655422098 -0.000137488984148796 -0.000247014672461804
"109" -0.000362892825333309 -0.000272553275087488 7.38348238136401e-05 -0.000221248067544412 -0.000234332562362024 -0.000223699574213029 -0.000134976018116401 -4.42462251364786e-05 -8.19388943632627e-05 -0.000120970523008564 -0.000210757820034719 -0.000211937450282046 -0.000464697782040278 -0.000482765643855068 -0.000144437827309768 -0.000215735259732653
"110" -0.000372741918537018 -0.000272309087673253 8.40257733102398e-05 -0.000212620918493775 -0.000240562007961377 -0.000221981917112643 -0.000136441816559936 -4.55684414992685e-05 -7.80159742540771e-05 -0.000140223760946562 -0.000216800125529265 -0.000211894364758978 -0.00047309668873218 -0.000490468633425349 -0.000150414270151261 -0.000184077169753539
"111" -0.000382748800402513 -0.000272335348028866 9.31604613620051e-05 -0.000203935948148079 -0.000247707366510059 -0.000220744821606643 -0.000138584175644137 -4.7827664362125e-05 -7.33088942429387e-05 -0.000159058797066754 -0.000222023506976887 -0.000211925665127437 -0.000480946830412205 -0.000495885700665762 -0.000155377172294132 -0.000152207059757963
"112" -0.000392856467682016 -0.000272639237045955 0.000101150723268516 -0.000195272967498841 -0.000255730289820608 -0.000219990126182001 -0.000141359523288974 -5.10157908611417e-05 -6.7892893063047e-05 -0.00017737286057549 -0.00022637679103741 -0.000212015597517904 -0.000488298521416621 -0.000499048033011177 -0.000159300427723299 -0.000120283213586978
"113" -0.000403017208567667 -0.000273224443275566 0.000107904283448696 -0.000186706998975128 -0.000264576667981537 -0.000219721206416168 -0.000144732071001421 -5.51182919470142e-05 -6.18340102105644e-05 -0.000195065259772694 -0.000229809165493256 -0.00021214000429983 -0.000495195698742916 -0.000500007190817964 -0.000162163717666348 -8.84625473428577e-05
"114" -0.000413174937844533 -0.000274095427013838 0.00011334434068765 -0.00017831413024266 -0.000274203978933673 -0.000219936315159382 -0.000148661926433944 -6.01205367866544e-05 -5.52180806410422e-05 -0.000212044913148696 -0.000232283077852574 -0.000212284568020957 -0.000501687727606574 -0.00049881524938081 -0.000163957037226124 -5.68859006969753e-05
"115" -0.000423285179716378 -0.000275256670544512 0.00011741050777785 -0.000170162899682647 -0.000284549509592487 -0.000220629407451415 -0.000153109298023524 -6.59968090633859e-05 -4.81263469651506e-05 -0.000228218318765607 -0.000233767021205614 -0.00021242750610898 -0.000507810297456322 -0.000495543716459319 -0.000164685205486226 -2.56882903179218e-05
"116" -0.000433303387353243 -0.000276712684460663 0.000120039516558586 -0.00016232466612456 -0.000295553310962496 -0.000221790841341912 -0.000158038424979486 -7.27178637697232e-05 -4.06371947364673e-05 -0.000243501585907488 -0.000234232502958636 -0.000212555733121846 -0.00051359926660261 -0.000490264374606812 -0.000164357290499854 5.00413002433745e-06
"117" -0.000443189026451937 -0.000278466549285131 0.000121195307331614 -0.00015486357543616 -0.000307157161220365 -0.000223416298872308 -0.000163417365521593 -8.02483664596098e-05 -3.2836463757153e-05 -0.000257812626232823 -0.00023366126404528 -0.00021264971469312 -0.000519083130695651 -0.000483060069505472 -0.000162993524915949 3.50738909101464e-05
"118" -0.000452902221387244 -0.000280519389133105 0.000120837404445751 -0.000147839302823221 -0.000319288987939114 -0.000225493952762902 -0.00016921197061108 -8.85464972262522e-05 -2.48047052759931e-05 -0.000271073192772545 -0.000232040656773644 -0.000212690021997536 -0.000524282465435758 -0.000474020320183381 -0.00016062584090252 6.44147930478972e-05
"119" -0.000462413644266508 -0.000282872492602185 0.000118945903946462 -0.00014131475048569 -0.000331882890462964 -0.000228007011941349 -0.000175391820877544 -9.75652223551578e-05 -1.66241140439155e-05 -0.000283210492772616 -0.000229364888906293 -0.000212663289357653 -0.000529213356467882 -0.000463238523123831 -0.000157288680061593 9.2929526777041e-05
"120" -0.000471687543366305 -0.000285526089744278 0.000115513830941491 -0.000135336137129337 -0.000344869188968999 -0.000230939693378725 -0.000181925303887776 -0.000107253211296528 -8.367894348225e-06 -0.000294160563214308 -0.000225635719631781 -0.000212550435970169 -0.000533883675966866 -0.000450811451981453 -0.000153027835400833 0.000120531041915773
"121" -0.000480698897297034 -0.000288478188829013 0.000110542665965092 -0.000129953868053364 -0.000358177264799146 -0.000234273838628836 -0.000188790421890174 -0.000117548186884338 -1.1200129219632e-07 -0.000303860050262963 -0.000220860772692552 -0.000212336846049664 -0.000538291858244608 -0.00043684570773031 -0.000147895475662561 0.000147140036390843
"122" -0.000489425263252371 -0.000291724100617839 0.000104040859722169 -0.000125210525435479 -0.000371729617788047 -0.000237992278373837 -0.000195953961991151 -0.000128388496851857 8.07839598099024e-06 -0.00031225115571308 -0.000215051064648828 -0.000212006378334675 -0.000542432958466657 -0.000421439466603055 -0.000141947383912931 0.000172687214749805
"123" -0.000497842735312421 -0.000295256607406309 9.60339731047442e-05 -0.000121138562177495 -0.00038545274207592 -0.000242068290482485 -0.00020339249103185 -0.000139704749199813 1.61384047892751e-05 -0.000319288706441054 -0.000208226620813408 -0.000211543680705062 -0.000546290122167007 -0.000404708138459956 -0.000135247372068786 0.00019711352005749
"124" -0.00050593671754602 -0.000299071336586946 8.65581808723465e-05 -0.000117774616853761 -0.000399274332524343 -0.000246480132638566 -0.000211078831076542 -0.000151421156334128 2.40122660517195e-05 -0.000324924440373265 -0.000200411984689015 -0.000210930994441242 -0.000549844527530729 -0.000386759114345701 -0.000127864440617308 0.000220367153686357
"125" -0.000513685490465831 -0.000303152191647497 7.56614647825168e-05 -0.00011513613868233 -0.000413119042347895 -0.000251204384443946 -0.000218988629704066 -0.000163458811460376 3.16504551151671e-05 -0.00032912570900834 -0.000191634513199948 -0.000210158233429336 -0.000553069833736516 -0.000367704410811829 -0.000119871409192181 0.000242405976364639
"126" -0.000521082488103954 -0.000307489340830041 6.3391034250742e-05 -0.000113249318183694 -0.000426910057150382 -0.000256211261847673 -0.000227094762940053 -0.000175734123079919 3.90097820241715e-05 -0.000331859650324918 -0.000181931252835058 -0.000209204808078343 -0.000555930189884685 -0.000347654395872648 -0.000111339241618375 0.000263192798474989
"127" -0.000528110659573581 -0.000312063477719907 4.98154150299498e-05 -0.000112121036295851 -0.000440579176040735 -0.000261474186618671 -0.000235367064051732 -0.000188158710751127 4.60544014779191e-05 -0.000333104931215373 -0.000171339813146669 -0.000208062733525813 -0.000558391722771676 -0.000326726421333358 -0.000102349098293846 0.000282700240890189
"128" -0.000534761701093629 -0.000316854443585198 3.50021298054979e-05 -0.000111761596954191 -0.000454045919980534 -0.000266964876677154 -0.00024378373198765 -0.000200645100325845 5.27575829465962e-05 -0.000332845228854416 -0.000159903237543727 -0.000206715659009629 -0.000560413666709072 -0.000305029675912854 -9.2980656261903e-05 0.000300904147775796
"129" -0.000541028936518818 -0.000321843034696106 1.90290650220116e-05 -0.000112171297438109 -0.000467246158928241 -0.000272650498676931 -0.000252312199984736 -0.000213094422551143 5.9094200502384e-05 -0.000331072751259003 -0.000147669249191568 -0.00020515047423627 -0.000561947968542622 -0.000282678099229452 -8.33094340367667e-05 0.000317790244759447
"130" -0.000546902751165698 -0.000326999986749117 1.98064211916468e-06 -0.000113347186762232 -0.000480104900740334 -0.000278503974381091 -0.000260920539415654 -0.000225420444244874 6.50577678600749e-05 -0.000327784239602585 -0.000134682711946594 -0.000203351855855399 -0.000562948192902782 -0.000259782787473519 -7.34180006879034e-05 0.00033334544490056
"131" -0.000552378400670643 -0.000332299320101897 -1.6058080359623e-05 -0.00011527741027045 -0.000492558150512936 -0.000284494462398684 -0.000269584334368774 -0.000237522063081344 7.0639462884846e-05 -0.000322990066313699 -0.000121002847807773 -0.00020131148503014 -0.000563367036774223 -0.000236457504934747 -6.33828380802326e-05 0.000347563597243054
"132" -0.000557451573310771 -0.000337708541474558 -3.49927129240629e-05 -0.000117949810867448 -0.00050454126037212 -0.000290588193845741 -0.000278261128831279 -0.000249302856965859 7.58467133231686e-05 -0.000316701459996499 -0.000106677172338939 -0.000199014363468308 -0.000563154621787998 -0.00021280537556972 -5.3280195033874e-05 0.000360446989322362
"133" -0.000562117379345402 -0.000343197253703908 -5.47310023444935e-05 -0.000121344256315401 -0.000515994969717868 -0.000296756769341011 -0.000286921350499125 -0.000260672268234402 8.06834113987782e-05 -0.000308940554362527 -9.17670514780525e-05 -0.000196448809597688 -0.000562260400753462 -0.000188937488910464 -4.31845438556457e-05 0.000371997035620329
"134" -0.00056637408037405 -0.000348729263510656 -7.51704216494061e-05 -0.000125436888804785 -0.000526857987221076 -0.000302968708611444 -0.000295525084270219 -0.000271536356722071 8.51726735170155e-05 -0.000299734767736998 -7.63236653921493e-05 -0.000193602825686788 -0.000560633163113215 -0.000164950325624263 -3.31611568909359e-05 0.000382222491810593
"135" -0.000570218463076099 -0.000354268162748412 -9.62195965431165e-05 -0.000130200198975575 -0.000537079392657712 -0.000309193812572331 -0.000304041132005232 -0.000281799357787311 8.93377600495015e-05 -0.000289117677265824 -6.04076027354591e-05 -0.000190463498195618 -0.000558229684591377 -0.000140949972770243 -2.32787020347836e-05 0.000391134546249635
"136" -0.000573653417101094 -0.000359779065205708 -0.000117776188567212 -0.000135605715307011 -0.000546613006883133 -0.000315404692079242 -0.000312424103525065 -0.000291379383133947 9.32077405761257e-05 -0.000277130275850964 -4.40746280842759e-05 -0.000187018805041713 -0.000555000509402688 -0.000117025126935841 -1.35924689381203e-05 0.000398746538213198
"137" -0.000576676955870477 -0.000365224747556274 -0.000139748892511993 -0.000141617221631306 -0.000555409227619464 -0.000321570199041878 -0.00032063625680726 -0.000300191854849468 9.68210269662718e-05 -0.000263820972377173 -2.73802464563791e-05 -0.000183255407013003 -0.000550903465472614 -9.32678021970435e-05 -4.15763512321031e-06 0.000405079650160537
"138" -0.00057928933199899 -0.000370568156655688 -0.00016203303536946 -0.000148199529603795 -0.000563435208694468 -0.000327666416657446 -0.000328639629608532 -0.000308162031498541 0.000100217299827349 -0.000249243191488113 -1.03804726606671e-05 -0.000179162758874239 -0.000545901517097979 -6.97654382142833e-05 4.97786571067723e-06 0.000410152033362363
"139" -0.000581500591184906 -0.000375775901625783 -0.000184545981074905 -0.000155314109946587 -0.000570658195730586 -0.000333666095449969 -0.000336395023321847 -0.000315215399580964 0.000103441460676522 -0.000233451124815526 6.87154181985985e-06 -0.000174725435868502 -0.000539957444288983 -4.65963799781695e-05 1.37769160655909e-05 0.000413985444582906
"140" -0.000583309763723146 -0.000380810241065107 -0.000207192429447006 -0.000162920657037253 -0.000577048505200461 -0.00033954502011879 -0.0003438615077634 -0.000321288926221293 0.000106550880770503 -0.000216509859971411 2.43262721532889e-05 -0.000169931795638644 -0.000533040204396254 -2.38301946978503e-05 2.22080234281488e-05 0.000416607667717391
"141" -0.000584728004758177 -0.000385640535731326 -0.000229884819485303 -0.000170975422281383 -0.000582592831812576 -0.000345284605995587 -0.000351000309541251 -0.000326328734807301 0.000109589712135004 -0.000198488449223071 4.19309968031721e-05 -0.000164767222416628 -0.000525127459214848 -1.53812915589873e-06 3.02467031309438e-05 0.000418044977417136
"142" -0.000585763452413722 -0.000390241706352859 -0.000252548105019805 -0.000179436517909469 -0.000587273084307246 -0.000350861247020049 -0.000357777783783727 -0.000330287805177791 0.000112614982699415 -0.000179452105054988 5.96423815715363e-05 -0.00015921673735455 -0.000516195268241323 2.02224947296091e-05 3.78748815278187e-05 0.000418328581086493
"143" -0.000586432543683172 -0.000394581797050242 -0.000275098942082097 -0.000188261140995356 -0.000591091446666319 -0.000356259982174645 -0.000364158709589449 -0.000333129622988304 0.000115684424240402 -0.000159478809999873 7.74152072900128e-05 -0.000153269017703847 -0.00050623263553144 4.1396735120341e-05 4.5086424995321e-05 0.000417492237016319
"144" -0.000586748692125147 -0.000398642940544154 -0.000297471950907801 -0.000197407363957322 -0.000594043367981324 -0.000361465047978251 -0.00037011402345654 -0.000334822392187618 0.000118856352642214 -0.000138643531879361 9.52105170110588e-05 -0.000146907185705962 -0.000495226534855342 6.19447371197182e-05 5.1883268989528e-05 0.000415570292695207
"145" -0.000586729114654029 -0.000402407356099613 -0.000319598040426595 -0.000206828356680279 -0.000596144693018089 -0.000366460345866625 -0.000375612204842589 -0.000335357991302509 0.000122184794120684 -0.000117021316745359 0.000112992176012763 -0.000140114571962307 -0.000483175858065486 8.18277893901768e-05 5.82724753616398e-05 0.000412600629831204
"146" -0.000586397822692331 -0.000405858282072017 -0.00034141931252398 -0.000216484348203388 -0.000597406879512911 -0.000371236336630804 -0.00038063271925336 -0.000334723216664258 0.000125727355659344 -9.46976012765405e-05 0.000130725172112211 -0.00013287916388953 -0.000470083798828059 0.0001010175236704 6.42721912527074e-05 0.000408626578794886
"147" -0.000585778972869005 -0.000408992684999873 -0.000362880198335226 -0.000226333097391272 -0.000597862634413293 -0.000375787426039997 -0.000385152526656431 -0.000332932692805292 0.000129541188462339 -7.17479187619838e-05 0.000148380876493527 -0.000125184934985306 -0.000455958922396812 0.000119490966600938 6.99050424589707e-05 0.000403689024530372
"148" -0.000584900612129363 -0.000411804982280445 -0.000383934930112998 -0.00023633012798389 -0.000597540869921885 -0.000380105977240128 -0.000389162514805138 -0.000330000026450269 0.000133673590868782 -4.82549828597642e-05 0.000165931238604707 -0.000117020575775074 -0.000440818697679475 0.000137240588845754 7.52051448496934e-05 0.000397840602644955
"149" -0.000583798149371292 -0.000414300997350707 -0.000404541199909521 -0.000246439528555175 -0.00059648264025001 -0.000384187619038048 -0.000392650016760049 -0.000325958146833783 0.000138178785084363 -2.42995935021774e-05 0.000183355998548195 -0.000108365719350707 -0.000424681607997677 0.000154260585387602 8.02094883735972e-05 0.000391132209249486
"150" -0.000582504030368173 -0.000416488265715985 -0.000424659230277535 -0.00025662133809661 -0.00059473495727095 -0.000388032273242994 -0.000395616005706024 -0.000320849884231079 0.000143100840607029 3.7000489730416e-08 0.000200629979198924 -9.92127672024854e-05 -0.000407574136806019 0.000170556242311641 8.4961746105647e-05 0.000383621847091979
"151" -0.000581058157076892 -0.000418383650942376 -0.000444266898367851 -0.000266837089758204 -0.000592351037817951 -0.000391639594053861 -0.000398059448203012 -0.000314729888041317 0.000148486773506902 2.46762811294845e-05 0.000217740779715658 -8.95464185843711e-05 -0.000389530873309072 0.000186137470913839 8.95152836629677e-05 0.000375370869701467
"152" -0.00057950427269645 -0.000420003628913524 -0.000463330910929777 -0.000277049699542738 -0.000589392965303353 -0.000395011499152825 -0.000399992864368779 -0.000307662976740014 0.000154370264447618 4.95399602876622e-05 0.000234670248958852 -7.93548279664155e-05 -0.000370588911439333 0.000201020682975777 9.39228039718507e-05 0.000366447042350876
"153" -0.000577890321649179 -0.000421379482342751 -0.000481834837346163 -0.000287226841524095 -0.000585924732581302 -0.000398155117176352 -0.000401433170094724 -0.000299728896207798 0.000160789223946133 7.45521105580099e-05 0.000251407299275285 -6.86313897945854e-05 -0.000350791257844123 0.000215236771101632 9.82447950722435e-05 0.000356923206636182
"154" -0.000576259852432221 -0.000422536804487252 -0.000499768721791252 -0.000297336044384209 -0.000582019451244286 -0.0004010732580547 -0.000402397358829288 -0.000291008769219446 0.000167770205195922 9.96378945062965e-05 0.000267939420569248 -5.7364067294808e-05 -0.000330182883422855 0.000228815235648794 0.000102540524136372 0.00034687701791475
"155" -0.000574668134514349 -0.000423513534543057 -0.000517116254368508 -0.000307342883631297 -0.000577751720152476 -0.000403774859673161 -0.000402917542182733 -0.000281604633136113 0.00017533983111891 0.000124725554644084 0.000284256871079115 -4.55497068791537e-05 -0.000308818643415987 0.000241791380722322 0.000106875046911905 0.000336389622261316
"156" -0.000573164007758935 -0.000424348201594502 -0.00053387769139974 -0.000317215953025222 -0.000573196131874628 -0.000406265854737363 -0.000403026705707655 -0.000271623460823056 0.000183518538669664 0.000149744897465354 0.000300354067809734 -3.31822141330886e-05 -0.000286750835478558 0.000254208848104821 0.000111318481039557 0.000325550394396194
"157" -0.00057180371292449 -0.000425081579388361 -0.000550045516626284 -0.000326928642091871 -0.000568432905850057 -0.000408555976476354 -0.000402765828486637 -0.000261168490809227 0.000192312688024841 0.000174624314370344 0.0003162203394085 -2.02646391485059e-05 -0.000264042011768334 0.000266114997913 0.000115929712466191 0.000314455740764682
"158" -0.000570635366895398 -0.000425759418301708 -0.000565624667089756 -0.000336448902155175 -0.000563541593379477 -0.000410653548420881 -0.000402174836496648 -0.000250367757732247 0.000201733337222181 0.000199305725923638 0.000331849126138883 -6.79300688358372e-06 -0.00024075163712418 0.000277555870716905 0.000120778528862557 0.000303204939318957
"159" -0.000569714600656462 -0.000426420533580206 -0.000580614677872794 -0.000345749990387944 -0.000558605301811929 -0.000412565598454357 -0.0004012995812619 -0.000239339212584157 0.000211783067566929 0.000223718959355153 0.000347233416824506 7.22541403198038e-06 -0.000216944291667319 0.000288586770272586 0.000125929857577446 0.000291901247342644
"160" -0.000569091328695609 -0.000427115635496603 -0.000595022660028788 -0.000354799168662459 -0.000553702524511047 -0.000414300110524764 -0.000400192909401151 -0.000228208518327898 0.000222454135630843 0.000247811123792526 0.000362368559470959 2.17853796384211e-05 -0.000192688927339628 0.000299256556025854 0.000131444995800708 0.000280655107023485
"161" -0.000568810751805065 -0.000427887442543854 -0.000608858597493662 -0.000363569413764884 -0.000548904558819758 -0.000415860063154501 -0.00039890796511515 -0.00021710319810034 0.000233739554285084 0.000271521995881733 0.000377243188062964 3.68747269428485e-05 -0.000168049573411033 0.000309620775390503 0.000137386152144856 0.000269582618153818
"162" -0.000568915979967417 -0.000428772680738154 -0.000622131733518058 -0.000372030711702598 -0.000544284522535356 -0.0004172537166777 -0.000397490388459681 -0.000206149952462184 0.000245623523992693 0.000294798795548482 0.000391850351707762 5.24837588744782e-05 -0.000143099940260424 0.00031973046510045 0.000143808455525071 0.000258800325924906
"163" -0.000569446134807235 -0.000429814620260756 -0.000634845550507264 -0.000380152763166419 -0.00053990439986923 -0.000418479198392152 -0.000395994471648575 -0.000195473559507678 0.000258083903860212 0.000317590237077289 0.0004061819500874 6.85936636028816e-05 -0.000117907536992615 0.000329639714409329 0.000150764465511087 0.000248430626290238
"164" -0.000570430434426308 -0.000431040411303859 -0.000647010050252108 -0.000387904658058258 -0.000535827891216725 -0.000419536691676084 -0.000394472291013891 -0.000185191379963952 0.000271093833775315 0.000339852105469849 0.000420229677390942 8.51867927066554e-05 -9.2542586039532e-05 0.000339392906271449 0.000158305875213616 0.000238596252727981
"165" -0.000571892114316051 -0.00043248135922408 -0.000658638501319486 -0.000395248898818272 -0.000532103287821948 -0.00042042269356462 -0.000392966559245467 -0.000175419038090228 0.000284622080219477 0.000361536545259574 0.000433980781752024 0.000102243854404566 -6.70745649790521e-05 0.000349036720079481 0.000166471476087463 0.000229419674008557
"166" -0.000573848369421209 -0.000434151326283228 -0.000669735410803616 -0.000402151713971471 -0.000528767410993026 -0.000421130454016967 -0.000391520896997808 -0.000166262943288147 0.000298632217787582 0.000382602942655078 0.000447424527688012 0.000119736177147774 -4.15733204628487e-05 0.000358613653944985 0.000175303468260993 0.000221027964872627
"167" -0.000576303543198279 -0.000436066198362312 -0.000680307599913126 -0.000408575340295504 -0.000525854105472866 -0.000421646301974603 -0.000390168539372928 -0.000157821178553473 0.000313081834045684 0.000403015884531601 0.000460551943077176 0.000137642739351369 -1.61041841174851e-05 0.000368159399440838 0.000184833941999246 0.000213544130765987
"168" -0.000579251712531813 -0.000438225015280526 -0.000690354406865783 -0.000414476919830768 -0.000523378598716077 -0.000421957521143903 -0.000388938926218226 -0.000150173074971973 0.000327927089295167 0.000422739619817401 0.000473346846571853 0.000155932575219777 9.26862493173947e-06 0.000377701156250884 0.000195089814108674 0.000207089974822113
"169" -0.000582678267051514 -0.000440622128262071 -0.000699881367466186 -0.000419814243091189 -0.000521352290432441 -0.000422044853599306 -0.000387856002937447 -0.00014340014790988 0.000343115711068972 0.000441738492417229 0.000485796385073501 0.000174570859047872 3.44791744267695e-05 0.000387264993690469 0.000206087892145515 0.000201784149936064
"170" -0.000586557943391269 -0.000443239554042268 -0.000708882004717841 -0.000424539186507949 -0.000519762588340192 -0.000421882715421819 -0.000386930930015449 -0.000137550812081418 0.000358595839599691 0.000459988782917527 0.000497887623272539 0.00019353118518215 5.9470066097346e-05 0.000396867617859475 0.000217844757677616 0.000197744285810999
"171" -0.00059084880047483 -0.000446046653206543 -0.000717354435458414 -0.000428605470783118 -0.000518594598798925 -0.000421446365266594 -0.000386165456768039 -0.000132673647152219 0.000374309769560965 0.000477464264168413 0.000509606794896886 0.000212777438029528 8.41860716035178e-05 0.000406520241336776 0.000230367352419507 0.000195076198398619
"172" -0.000595503689244095 -0.000449002267756626 -0.000725286383381371 -0.000431960458601228 -0.000517817147986793 -0.000420699043675177 -0.000385550492402399 -0.000128793031160854 0.000390197844489192 0.000494140415493427 0.000520937166653546 0.000232270042410824 0.000108570302508915 0.00041622515029884 0.000243654720432874 0.000193885819249801
"173" -0.00060045700563031 -0.000452057847934652 -0.000732668168510052 -0.000434547883377556 -0.000517381544578394 -0.000419606917052407 -0.000385072826793309 -0.000125920615581725 0.000406198868727609 0.000510003062937397 0.000531866488879681 0.000251975158776589 0.000132576615319783 0.000425978654740794 0.000257703019581887 0.000194269879313893
"174" -0.000605636266037331 -0.000455150221766768 -0.00073947659472794 -0.000436311412086927 -0.000517226786778722 -0.000418130738156137 -0.000384700940150272 -0.000124047375638483 0.000422246038968926 0.00052503294275732 0.000542376277804584 0.000271853487014866 0.000156161450549129 0.000435771997492508 0.000272496885823239 0.000196315624269565
"175" -0.000610959560905388 -0.000458210917760902 -0.000745692235898779 -0.000437193368565734 -0.000517289155431585 -0.000416223416919882 -0.000384398155820271 -0.000123149978208854 0.000438272449666475 0.000539218236857183 0.000552453642926446 0.000291863709264606 0.00017928224682703 0.000445587505701154 0.000288017489650212 0.000200102177297413
"176" -0.000616331975804181 -0.000461158646110793 -0.000751287425874904 -0.000437136485132297 -0.000517482678214095 -0.000413838517516399 -0.000384113255521338 -0.00012318262530421 0.000454213976281328 0.000552548981403671 0.000562080800548759 0.000311968452278194 0.000201905074533097 0.000455396446098819 0.000304234200834486 0.000205696047489551
"177" -0.000621652696549528 -0.000463900100675501 -0.000756228639202793 -0.000436075222604238 -0.000517713048726316 -0.000410927981810965 -0.000383787159082738 -0.000124088934228297 0.000469996714118829 0.000565018793363216 0.000571240397468913 0.000332120113330475 0.000224000317940034 0.000465172073194266 0.000321115690934832 0.00021315678096495
"178" -0.000626811066827037 -0.000466343556982625 -0.000760484577087424 -0.000433950708126767 -0.000517882740226582 -0.000407439751265587 -0.000383353913279264 -0.000125790580879164 0.00048555556100224 0.000576627770634597 0.000579922102056834 0.000352283068344939 0.000245541594549614 0.000474878915011462 0.000338622741430303 0.000222527968101805
"179" -0.000631691584741365 -0.000468383849882565 -0.000764007064938463 -0.000430703918639266 -0.000517874313602791 -0.000403314036988604 -0.000382736254819224 -0.000128194623230335 0.00050082091290894 0.000587373817516325 0.000588105021025341 0.000372409634603452 0.000266510312659526 0.000484473129721301 0.00035670386914015 0.000233843702498638
"180" -0.000636173137944459 -0.000469914591118204 -0.000766754715280942 -0.000426273961831164 -0.000517576327919106 -0.000398502927837734 -0.00038184953824245 -0.000131196199431138 0.00051572381986892 0.000597255398709145 0.000595777413385977 0.000392456805972101 0.000286891158526234 0.000493913989444363 0.000375309498222277 0.00024712507154063
"181" -0.000640131592014886 -0.000470824724478805 -0.000768677541900867 -0.000420605099754638 -0.000516863000272638 -0.000392949889932717 -0.000380605947812067 -0.000134675121087585 0.000530193767844541 0.000606286842076803 0.000602923463064685 0.000412383228883891 0.000306670824683779 0.000503148142836215 0.000394377740434887 0.000262376537019575
"182" -0.000643438965293966 -0.000471004820961509 -0.000769723742327505 -0.00041364346119771 -0.000515608749315188 -0.000386597844863242 -0.000378902295324679 -0.000138497995106027 0.000544171080729848 0.000614472951456662 0.00060953128100799 0.00043214296583501 0.000325848715016893 0.000512127953621871 0.000413848644074872 0.000279589236859208
"183" -0.000645971549281652 -0.000470337990519803 -0.00076983932539585 -0.000405339795290046 -0.000513682523279226 -0.000379398819132392 -0.000376646617478781 -0.000142526190174691 0.00055758760326799 0.000621825879781581 0.000615583929271024 0.000451690966436171 0.000344419236710552 0.000520796350842674 0.000433650279735905 0.000298737762294565
"184" -0.000647603204622207 -0.000468717065511714 -0.000768964458400445 -0.000395649132718941 -0.000510958449023537 -0.000371295899675774 -0.000373732434287312 -0.000146606039262706 0.00057038293789555 0.000628361646447041 0.000621072665546961 0.000470985124224795 0.000362388958509559 0.000529100805356101 0.000453710344180819 0.00031978457531785
"185" -0.000648210734388958 -0.00046603001024653 -0.000767045794535225 -0.000384526983653424 -0.000507306490126771 -0.000362244827250794 -0.000370054102239305 -0.000150581836496965 0.000582501509225752 0.000634100907768103 0.000625987114071301 0.000489982762638679 0.000379763324033267 0.000536990406291978 0.000473950079020069 0.000342673295561788
"186" -0.000647677433767214 -0.000462176477484402 -0.000764019906869829 -0.00037194621667106 -0.000502597830868654 -0.000352196675737389 -0.000365510452595513 -0.000154293309546194 0.000593885469233566 0.000639064150164242 0.000630319542192216 0.000508636155789504 0.000396553065233573 0.000544408844473991 0.000494291810013627 0.000367330841462812
"187" -0.000645889009108574 -0.000457056201538458 -0.00075982799328865 -0.00035787718109321 -0.000496717414142381 -0.000341117411359001 -0.000359995293897028 -0.000157574978984275 0.000604485980566328 0.000643278107457816 0.000634061494518189 0.0005269089949749 0.000412769364635534 0.000551299933012267 0.000514650987726462 0.000393670435475322
"188" -0.000642738232706451 -0.000450579947439237 -0.000754417970012738 -0.000342304665347947 -0.000489544508562254 -0.00032896781740067 -0.000353408149273038 -0.000160264860044087 0.00061425921173296 0.000646770938593043 0.000637212665766654 0.000544760171660289 0.000428430999681391 0.000557621715194568 0.000534945285435526 0.000421587975963559
"189" -0.000638131133517611 -0.000442667555189298 -0.000747725887551213 -0.000325214059597138 -0.000480974626786122 -0.000315716783314457 -0.000345651282032 -0.000162198788973986 0.000623161219969646 0.000649576968439763 0.000639769589320699 0.000562149658598961 0.000443554867406866 0.000563321235638336 0.000555090830902475 0.000450961884502587
"190" -0.000631977931227864 -0.000433242227910448 -0.000739710873058575 -0.000306610008744828 -0.000470903313503158 -0.000301346187518414 -0.000336632858450884 -0.000163219384305613 0.000631161234151743 0.000651730278679323 0.000641734764876909 0.00057904009156663 0.000458158184882294 0.000568356748160042 0.000575004120524513 0.000481657378287042
"191" -0.000624197050470905 -0.000422247071919223 -0.000730315148322507 -0.000286501179081686 -0.000459246038347772 -0.000285833940882106 -0.000326265683041698 -0.000163173599341246 0.000638224647263557 0.000653268163265375 0.000643113646638265 0.000595395576532194 0.000472262934237888 0.000572685170547516 0.000594598032170264 0.000513519542773475
"192" -0.000614727045845355 -0.000409631218497076 -0.0007195042942955 -0.000264904511315736 -0.000445921000288988 -0.000269170082220735 -0.000314471302459202 -0.000161920292287743 0.000644326062659662 0.000654235575137488 0.000643917133148172 0.000611186202549004 0.000485887298693896 0.000576272024208185 0.000613795668019137 0.000546382871495094
"193" -0.000603507682206112 -0.000395360051337292 -0.00070724096684125 -0.000241852755647193 -0.000430862478386464 -0.000251358649208251 -0.000301182061100724 -0.000159320375642692 0.000649454963439241 0.000654674806573302 0.000644154289984011 0.000626381826175053 0.000499051434705436 0.000579083320506212 0.000632517711393403 0.000580060388492588
"194" -0.000590502278257928 -0.000379408367139332 -0.000693490084816833 -0.000217388463673435 -0.000414017452341424 -0.000232402146360517 -0.000286333972079575 -0.00015525211242695 0.000653590081347209 0.000654633722489805 0.000643844793978308 0.000640954627166252 0.000511772757244942 0.00058109949097045 0.000650684815606035 0.000614354626848313
"195" -0.000575676101801383 -0.000361768412582796 -0.000678239138023987 -0.000191561764933143 -0.000395346940382915 -0.000212316649036075 -0.000269879911757896 -0.000149610798937091 0.000656728382460368 0.000654160523929374 0.000643006984401765 0.00065488059801579 0.000524069312678896 0.00058229095452729 0.000668224402036031 0.000649055331382937
"196" -0.00055901890954294 -0.000342446275771205 -0.00066147273975694 -0.000164436061798589 -0.000374828016104585 -0.000191126233011431 -0.000251781506270893 -0.000142296916960714 0.000658871031659612 0.000653306514979664 0.000641663660113603 0.000668135379624 0.000535953337978811 0.000582644802692998 0.000685073259189008 0.000683936342190223
"197" -0.000540528170359512 -0.000321462867182332 -0.000643189214559039 -0.000136091663183186 -0.000352446633684792 -0.00016886561830478 -0.000232014638897285 -0.000133236358521794 0.000660018902997398 0.000652126921300734 0.000639845473324149 0.000680703047068685 0.000547437842434879 0.000582146453422674 0.000701165153255157 0.000718764903681595
"198" -0.000520219041277445 -0.00029885347506043 -0.000623401090311645 -0.00010661114897189 -0.000328218032855419 -0.000145577561669995 -0.000210570023434597 -0.000122373319559768 0.000660183067149231 0.000650671005568643 0.000637578616062711 0.000692567267282456 0.000558528787456448 0.000580791507512756 0.000716444287099373 0.00075328899142856
"199" -0.000498118806760232 -0.000274672255739348 -0.000602120121315462 -7.60948591151505e-05 -0.000302158708659491 -0.000121310872494397 -0.000187448238941664 -0.000109666900213892 0.000659373654103353 0.000648991793650525 0.000634897911891642 0.000703710599117998 0.00056922996870241 0.000578574498030274 0.000730854028804748 0.000787254655082983
"200" -0.000474270747294747 -0.000248984128998399 -0.000579384870820607 -4.46483861578403e-05 -0.000274314305448255 -9.61309876672491e-05 -0.00016267494748606 -9.50989727430072e-05 0.000657615872015792 0.000647144680103666 0.000631839102242834 0.000714123744087404 0.000579544104741118 0.000575499927309147 0.000744351031758676 0.000820399647275973
"201" -0.000448735672769793 -0.00022187073500825 -0.000555239735162348 -1.23950673949007e-05 -0.000244737373478599 -7.01055294782684e-05 -0.000136284958808278 -7.86718684556013e-05 0.000654925352047208 0.000645179410160863 0.000628438872044359 0.000723798080140675 0.000589461787661928 0.000571569299939087 0.000756889156496828 0.000852452964603495
"202" -0.000421586422601425 -0.000193431327059818 -0.000529733883052489 2.05400704358047e-05 -0.000213506061112506 -4.33181086998171e-05 -0.000108331504643604 -6.0414240953032e-05 0.000651335909492747 0.000643147656591891 0.000624737936472214 0.000732725292912542 0.000598976827600589 0.000566795304245137 0.000768440471352692 0.000883136500209134
"203" -0.000392908869447845 -0.000163772769974196 -0.000502945474650414 5.40171481948195e-05 -0.000180710372046686 -1.58558264957932e-05 -7.88822216621453e-05 -4.03761457032948e-05 0.000646869035153395 0.000641094872119754 0.000620773227913683 0.000740894673602888 0.000608073451589909 0.000561191217518583 0.000778969921724123 0.000912175819726916
"204" -0.000362807375693022 -0.000133025345486593 -0.000474947345316724 8.78895118696946e-05 -0.000146455431414411 1.21869861257956e-05 -4.80288275993695e-05 -1.86278103600581e-05 0.000641560885641767 0.000639065964110318 0.000616584376801967 0.000748304331044953 0.000616728575062719 0.000554770478626806 0.000788451830515717 0.000939293540725245
"205" -0.000331398119081196 -0.000101325483379818 -0.000445840842081671 0.00012200051787078 -0.000110867581804171 4.06994635025778e-05 -1.58767039559694e-05 4.73294595022396e-06 0.00063544417317237 0.000637099127764697 0.000612212422754478 0.000754945691936315 0.000624917411419247 0.000547550956865045 0.000796870194841201 0.000964212089100593
"206" -0.000298808948402436 -6.88245879914694e-05 -0.000415727986544058 0.000156191832419451 -7.40869183425934e-05 6.95689052631685e-05 1.74479302408347e-05 2.95864202083722e-05 0.000628548703489927 0.000635234510460628 0.000607692652973105 0.000760814620378652 0.000632611509576509 0.000539555853876323 0.000804208765374621 0.000986663114414734
"207" -0.0002651843710514 -3.56824109428466e-05 -0.000384728640411715 0.000190294079665132 -3.62652618796353e-05 9.8674336854312e-05 5.18095338933975e-05 5.57910604779007e-05 0.000620916459388259 0.000633498989934417 0.00060306357184182 0.000765903688932363 0.000639775331366324 0.000530804683777916 0.000810458650516033 0.00100637836606463
"208" -0.000230674750323555 -2.07405648872297e-06 -0.000352972852557034 0.000224136165102221 2.42848780919422e-06 0.000127889294395573 8.7045277363755e-05 8.31787713913483e-05 0.000612582613205698 0.000631921565172273 0.000598358015674887 0.000770210176001897 0.000646368365341918 0.000521324075558577 0.000815613911851254 0.00102310489688262
"209" -0.00019544511225396 3.1818393402666e-05 -0.000320608376665085 0.000257545805619956 4.18124549907261e-05 0.000157082599114296 0.000122976647001135 0.000111563992846674 0.00060357884592371 0.00063052375028446 0.000593606530668444 0.00077372364442285 0.000652348565089614 0.000511138367341483 0.000819674710021801 0.0010365938655845
"210" -0.000159672842300509 6.58059352640115e-05 -0.000287776472499632 0.000290340198879288 8.16887914317653e-05 0.000186110641345204 0.000159414736717806 0.000140737186819244 0.000593950879599162 0.000629314473348995 0.000588835663131696 0.00077643427299286 0.000657666825973052 0.000500273984092388 0.000822642515514537 0.00104661375640197
"211" -0.000123536047987873 9.96946729216065e-05 -0.000254647272361793 0.000322346082901732 0.000121859790753035 0.00021483409396368 0.000196150981110791 0.000170471621382346 0.00058372950984008 0.0006283094362211 0.000584072202055992 0.000778338667936666 0.000662274871025575 0.000488760380895121 0.000824524149203514 0.0010529472510685
"212" -8.72303974219836e-05 0.00013327946342713 -0.000221384148532966 0.000353382578469047 0.000162106214670093 0.000243105525497216 0.000232964549468986 0.000200523990229533 0.000572956269035892 0.000627506453830803 0.000579334842324018 0.000779422738423345 0.000666124224026111 0.000476625776864209 0.000825328460233943 0.00105539825265022
"213" -5.09502441821728e-05 0.000166356532257166 -0.000188166036913963 0.000383278297539084 0.000202206850281779 0.000270778912425266 0.000269617355662575 0.000230632882264144 0.000561664182115611 0.000626907078324592 0.000574638801649386 0.000779674266072668 0.000669161947802737 0.000463905517563844 0.00082506738709468 0.00105378582445604
"214" -1.4896308840031e-05 0.00019872295149101 -0.000155178982052811 0.000411857381515973 0.00024193331452261 0.000297703344636503 0.000305867040582586 0.000260524734879254 0.000549890062354148 0.000626498368495941 0.000569994493247616 0.000779083075473764 0.000671335658031678 0.000450627973326274 0.000823753631880661 0.00104795623638492
"215" 2.07272146649176e-05 0.00023016699659222 -0.000122605282855957 0.000438955447987515 0.000281054286277065 0.0003237334665613 0.000341457471947526 0.000289916232397718 0.000537675725628798 0.000626270673263985 0.000565411628077756 0.000777637430926424 0.000672598996954477 0.000436826363300944 0.000821408030368367 0.00103777962787253
"216" 5.57127631226915e-05 0.000260487214369818 -9.06329737617946e-05 0.000464412341077328 0.00031933098260441 0.000348720937699551 0.000376128970624533 0.000318512851140779 0.000525060620172529 0.000626206403654367 0.000560893701552547 0.000775322921963409 0.000672904361010961 0.000422544141105571 0.000818048940124062 0.00102315071604813
"217" 8.98572855579047e-05 0.000289483258284333 -5.9458385029941e-05 0.000488076761761331 0.000356528271734502 0.000372524901613643 0.000409610806509423 0.00034601931862823 0.000512078988127097 0.000626283524941716 0.000556440788705002 0.000772127737165825 0.000672208601338311 0.000407818223847062 0.000813699053167356 0.00100399664748617
"218" 0.00012295748009484 0.000316960053576221 -2.92650737520339e-05 0.00050980602214996 0.00039240919670441 0.000395000451116135 0.000441640483626418 0.000372136064606989 0.000498781121799073 0.000626480966211048 0.000552049468210246 0.00076804041484974 0.000670475596326311 0.00039269442998587 0.000808388115395735 0.000980271056690019
"219" 0.000154814148659766 0.000342728106873238 -2.47907809214163e-07 0.000529470837240283 0.000426746650759234 0.000416016235521195 0.000471946164256797 0.000396565340460322 0.000485206392185024 0.000626771818790599 0.000547717394126523 0.000763052259479245 0.000667677445579619 0.000377221746597374 0.000802139682171972 0.00095196392357824
"220" 0.00018523808176687 0.000366610674118448 2.74183619702238e-05 0.00054695063634576 0.000459310984451959 0.000435445860242798 0.000500262415078494 0.000419017102737749 0.000471406270498255 0.000627129567479014 0.000543433124622099 0.000757153270285263 0.000663789494246794 0.000361453378004841 0.000794991411350917 0.000919099663020489
"221" 0.000214045033475576 0.000388440328906354 5.35512403136808e-05 0.00056214120473877 0.000489886206445281 0.000453166717686073 0.000526331002170377 0.000439208093159432 0.000457434375258231 0.000627530971940941 0.000539193510549431 0.000750341312611724 0.000658801641274688 0.000345446688055865 0.000786975951445555 0.000881734269869078
"222" 0.000241058857976815 0.000408068642600894 7.79853757801005e-05 0.000574951343650123 0.000518264803451371 0.000469073017506127 0.000549903035124186 0.000456868376973545 0.000443350280195195 0.000627948589523324 0.000534989544023067 0.000742612094468787 0.00065271343631506 0.000329270431408356 0.000778136132230097 0.000839960459961648
"223" 0.000266120837778019 0.000425353219531651 0.00010056310498289 0.000585310338095113 0.000544250443611169 0.000483063746354468 0.00057074125166357 0.000471745767734685 0.000429220699600918 0.000628365502710832 0.00053081380621537 0.0007339758319559 0.000645534255245626 0.000312995726859096 0.000768515898906313 0.000793908643289578
"224" 0.000289084555168899 0.000440175257908799 0.000121133550605102 0.00059316009983471 0.000567661034562732 0.000495052879205614 0.000588626071632116 0.000483607162698057 0.000415118915993761 0.000628759502723596 0.000526664377012246 0.000724436105263769 0.000637289170226392 0.000296706954927105 0.000758167157622335 0.000743743054195235
"225" 0.000309819646707338 0.000452431192492691 0.000139566478268392 0.000598460563940941 0.000588333153562243 0.000504963955145081 0.000603353806389921 0.000492246630226659 0.000401122756915394 0.000629118684110563 0.000522535624322948 0.000714010077762558 0.000628015385952504 0.000280491695775899 0.000747142258379546 0.000689667398547698
"226" 0.000328211276288247 0.000462040693127938 0.000155747197742594 0.000601193189667498 0.000606116871834624 0.000512740641554616 0.000614742488750463 0.000497481765272062 0.000387320518970307 0.000629434421544819 0.000518431397761934 0.000702722905584458 0.000617765764140828 0.000264446197022784 0.000735505540250982 0.000631916961531622
"227" 0.000344169343231234 0.000468941791224015 0.000169570785979355 0.000601356397381813 0.000620891625487585 0.000518333529678359 0.00062263519353371 0.000499161567945368 0.000373811302226156 0.000629711305555081 0.000514358424695905 0.000690604143174666 0.000606606306693049 0.000248676634068274 0.000723322832924511 0.00057076329780334
"228" 0.000357621069470687 0.000473096358835407 0.000180953752615942 0.000598966434647305 0.000632551333410022 0.000521716649305727 0.000626900815370566 0.000497172618798885 0.000360699720176844 0.000629948616451207 0.000510327513825442 0.000677691649464059 0.000594623627755884 0.000233296456261419 0.000710667890382764 0.000506510401434989
"229" 0.000368519845188316 0.000474490086739882 0.000189834402106355 0.000594064946964447 0.000641013306736945 0.000522875618736215 0.00062744689428359 0.00049143251637586 0.000348094034966638 0.000630163234568113 0.000506353289744294 0.00066403394248898 0.000581912935630399 0.00021842737891944 0.000697616088403528 0.000439492369060957
"230" 0.000376835890507493 0.000473134378793319 0.000196171391143737 0.00058670453848123 0.000646224113762119 0.000521813512489393 0.000624196203898659 0.000481896968443519 0.00033611700100252 0.000630374984438396 0.000502462011421352 0.000649686615926001 0.000568589095004559 0.000204195920175512 0.000684254060394958 0.000370071821311638
"231" 0.000382568738598113 0.00046906064662795 0.000199940478046893 0.00057696550034993 0.000648152985395322 0.000518555978380735 0.000617118104989172 0.000468567117120569 0.000324893990339988 0.000630610536963078 0.000498678105368195 0.000634713868017998 0.000554775938753519 0.000190731214928441 0.00067066752227079 0.000298636228896224
"232" 0.000385741202987846 0.00046232681772002 0.00020114316031975 0.000564944660875521 0.00064679564180408 0.000513134482200994 0.000606211797687768 0.000451475044584772 0.000314552708869387 0.000630906799661641 0.000495034959754775 0.000619190948927417 0.000540616622033297 0.000178166137627553 0.000656946893509105 0.000225594064713316
"233" 0.000386400779150825 0.000453020898043865 0.000199800863893419 0.000550752474360578 0.000642177703337048 0.000505610820710403 0.000591513968682067 0.000430701052830717 0.000305222166304662 0.000631299338420255 0.000491571210704963 0.000603200335546353 0.000526259219974815 0.00016663582822686 0.000643186375470416 0.000151374786002286
"234" 0.00038461802849774 0.00044124421155741 0.00019595508482112 0.000534522551802091 0.000634353596649061 0.000496054982973311 0.000573090868239284 0.000406359734558708 0.00029703127701622 0.000631833411787248 0.000488325367375607 0.000586827605219152 0.000511862220741694 0.000156268892695402 0.000629479581768553 7.64180544813456e-05
"235" 0.000380487075437641 0.000427133769786973 0.000189677222527395 0.000516402225421412 0.000623398772506079 0.000484559126703972 0.000551052470436746 0.000378609635479519 0.000290103044657364 0.000632552537967227 0.00048533966332228 0.000570167472337946 0.000497593859662436 0.000147193197583276 0.000615920003645314 1.17546496094038e-06
"236" 0.000374122975036097 0.000410837875188033 0.000181053209230041 0.000496552593460484 0.00060942534080878 0.000471224242837908 0.000525535866662739 0.000347641950003913 0.000284557079232982 0.000633501159787578 0.000482656517856433 0.000553320524843241 0.000483625088410745 0.000139518286998508 0.000602592996345965 -7.38996893598975e-05
"237" 0.000365663418026155 0.000392533473720803 0.000170189054176367 0.000475151043212826 0.000592568783122516 0.000456173985424456 0.000496711970832379 0.000313686721634897 0.000280494271720168 0.000634720707702477 0.000480315728281177 0.000536386948042751 0.000470127366397276 0.000133348981977947 0.000589585674845635 -0.000148353343164714
"238" 0.000355262797773802 0.000372409913052083 0.000157214872107179 0.000452382632870256 0.0005729834938904 0.000439542794813641 0.000464786104042747 0.000277005118091182 0.000278000696463114 0.000636246801379548 0.000478348063377995 0.000519466819937383 0.000457268809709248 0.000128765685675336 0.000576964616688407 -0.000221734378121259
"239" 0.0003430895567156 0.000350676902689619 0.000142274139577197 0.000428444903610811 0.000550860390920377 0.000421476395282407 0.000429993859668805 0.000237886639580073 0.0002771460042592 0.000638105600857238 0.000476784426061038 0.000502660757908464 0.000445216973221851 0.000125835841246228 0.000564801641374619 -0.000293604172605073
"240" 0.00032933192930862 0.000327556711342646 0.000125539053085281 0.000403537154014606 0.000526406882179522 0.000402132103928791 0.000392585249345246 0.0001966451336967 0.000277977233710399 0.000640313391590284 0.000475641150068347 0.000486065060182358 0.000434127703452801 0.000124598831879237 0.000553137194577854 -0.000363540574817497
"241" 0.000314179938281614 0.0003032823181927 0.000107178796171304 0.0003778707207988 0.000499849486931099 0.00038167825246546 0.000352845192675939 0.000153620748924525 0.000280506561537953 0.000642874158650016 0.000474924886002629 0.000469770285837714 0.000424146410613476 0.0001250671038813 0.000542008989481772 -0.00043114043149052
"242" 0.000297836392346307 0.000278095068415756 8.7390992383202e-05 0.000351653079828846 0.000471440009262621 0.000360290871451329 0.000311066616892846 0.000109166485017526 0.00028472214001147 0.000645770846814268 0.000474627300961413 0.000453855308300785 0.000415405816672691 0.000127227511668797 0.000531435723662993 -0.000496027144909909
"243" 0.00028051008619428 0.000252244962197182 6.63803295500653e-05 0.000325093270230947 0.00044143875148472 0.000338149573408984 0.000267564094206292 6.36486351900734e-05 0.000290581926858314 0.000648976189350157 0.000474727268544426 0.000438394823023564 0.000408020292717706 0.000131031633090006 0.000521410027939325 -0.000557847753615264
"244" 0.000262408087612483 0.000225980951259666 4.43587815328266e-05 0.00029839791906065 0.00041012114445121 0.000315438847321383 0.000222659979185175 1.74405452340435e-05 0.000298007788912318 0.000652436769063175 0.000475185349852229 0.000423443852967192 0.000402086175525514 0.00013640756575928 0.000511910345867322 -0.000616284750287503
"245" 0.000243738905248825 0.000199552204334975 2.15414414437608e-05 0.000271766963754371 0.000377776572535204 0.000292347602779421 0.000176684554555848 -2.90750918635361e-05 0.00030688361370548 0.00065608323211824 0.000475944549732842 0.000409052576827158 0.000397680151508413 0.000143246314963848 0.000502896901321165 -0.000671055762246094
"246" 0.000224704882257674 0.000173208617603384 -1.84512519867587e-06 0.000245395270078667 0.000344699145556547 0.000269060910504298 0.000129965610915909 -7.55271845258317e-05 0.000317069061349855 0.000659825836890631 0.000476931387355722 0.000395247796795501 0.000394855320164175 0.000151413348437206 0.00049430773463603 -0.000721909838186819
"247" 0.000205507203215552 0.000147189469719704 -2.55793774079894e-05 0.000219469292625682 0.000311181208493298 0.000245760722908312 8.28384151216515e-05 -0.000121534569885364 0.000328389842479649 0.000663560581735117 0.000478059225458436 0.000382048402158431 0.000393647090108884 0.000160746441264052 0.000486062930639262 -0.000768638950843893
"248" 0.000186334126500251 0.000121725603929935 -4.94376019340911e-05 0.000194159109733861 0.000277525485807238 0.000222634636166359 3.56351034786376e-05 -0.000166740402188082 0.000340638157501343 0.000667160732191896 0.000479226258531731 0.000369457836862637 0.000394064863750469 0.000171056761852725 0.000478070664772202 -0.000811067121474486
"249" 0.00016737112448749 9.70439653249101e-05 -7.32004692064509e-05 0.000169630296039258 0.000244023915694643 0.00019985440431617 -1.13284478768395e-05 -0.000210780732465419 0.000353589821195744 0.000670485985335132 0.00048031667770356 0.00035746238417643 0.000396099299147572 0.000182139974494962 0.000470219040087076 -0.000849058542279374
"250" 0.000148787361436031 7.33501598813588e-05 -9.6650274130629e-05 0.000146027591051294 0.000210966722379144 0.000177590291905181 -5.77360484285741e-05 -0.000253323851938377 0.000366994972858227 0.000673394073225328 0.000481206678732542 0.00034604134769227 0.000399721525317017 0.000193771680102398 0.000462391826370767 -0.000882518380568169
"251" 0.000130746113756091 5.08433895032191e-05 -0.000119583018264077 0.000123486141567812 0.000178633056595388 0.000156006710707236 -0.00010328925308592 -0.000294047774507776 0.000380589739766207 0.000675720644133083 0.000481767655943752 0.000335156776655276 0.000404883804069654 0.000205716790750327 0.000454464107797273 -0.000911382671558288
"252" 0.000113397873356434 2.97047004099539e-05 -0.000141799660138286 0.000102127058924457 0.000147297239251888 0.000135255005263381 -0.000147696101183596 -0.000332644869425274 0.000394099519717269 0.000677307977524889 0.000481864678342803 0.000324765748272325 0.000411518512289921 0.000217728572262201 0.000446303414364993 -0.000935623577294793
"253" 9.6877346094802e-05 1.0097849622912e-05 -0.000163117731142307 8.20516078848561e-05 0.000117211283615278 0.000115477701665219 -0.000190686390084636 -0.000368839336122529 0.000407248859593235 0.000677996657211935 0.000481368820083111 0.000314818905864186 0.000419551320997877 0.00022956647859423 0.000437788527552418 -0.000955246700718428
"254" 8.13136949933284e-05 -7.82976810427212e-06 -0.000183354694094442 6.33509538613713e-05 8.86207617829107e-05 9.6804688442489e-05 -0.000232001238874969 -0.000402376573003249 0.00041975781183581 0.000677626116152005 0.000480148752308895 0.000305257732756452 0.000428887154170397 0.000240988847277231 0.00042878623867575 -0.00097029012676741
"255" 6.68175052771019e-05 -2.39446153319157e-05 -0.000202354870023627 4.61014246973732e-05 6.17443089788257e-05 7.93615505561141e-05 -0.000271400955193551 -0.000433012556031197 0.000431356146060537 0.000676048241883418 0.000478083718075643 0.000296025746244169 0.000439425343402647 0.000251757842653281 0.000419185413425444 -0.000980816670910573
"256" 5.34924855687099e-05 -3.81371867286198e-05 -0.000219970080750625 3.03573802524105e-05 3.67887361809171e-05 6.32545568189556e-05 -0.00030866475413693 -0.000460549671928945 0.000441784371266609 0.000673119619324041 0.000475064667136783 0.000287061691721602 0.000451060003800561 0.000261648216669544 0.000408875834823515 -0.000986917877904508
"257" 4.14280996923274e-05 -5.0310989718805e-05 -0.000236072180705173 1.61705642440205e-05 1.39377242028638e-05 4.85776924798541e-05 -0.000343588273920383 -0.00048480456529459 0.000450794312354406 0.000668721839976411 0.000470991903947517 0.000278310990813715 0.000463674081256943 0.000270453506056731 0.000397765380109164 -0.000988704965567832
"258" 3.07037767942078e-05 -6.03920062018464e-05 -0.000250541096128848 3.57248667928811e-06 -6.64518078127137e-06 3.54163636473311e-05 -0.000375995300847025 -0.000505623853277033 0.000458160510370356 0.000662737052751222 0.000465782647247762 0.000269713933073714 0.000477149201826202 0.000277978838605192 0.000385772455999917 -0.000986317426394634
"259" 2.13867593462123e-05 -6.83211868442616e-05 -0.000263280498541305 -7.41841230218717e-06 -2.48199815769082e-05 2.38434182226999e-05 -0.000405717112299901 -0.000522877059186298 0.000463678785732906 0.000655075206780174 0.000459369702037931 0.000261222172458672 0.00049136703816693 0.000284051183340391 0.000372837233825956 -0.000979905624770635
"260" 1.35337865259065e-05 -7.40593264143278e-05 -0.000274204507900001 -1.67952106157635e-05 -4.04744293255212e-05 1.391000858645e-05 -0.000432613470409915 -0.000536473245762375 0.000467170016283667 0.0006456650126741 0.000451700859412842 0.000252791699189483 0.000506208697828193 0.00028852040767448 0.000358911562498735 -0.000969642449523889
"261" 7.18623809343787e-06 -7.75824075289227e-05 -0.000283249653577632 -2.45576563769684e-05 -5.35106862069884e-05 5.6663107376997e-06 -0.000456566852712971 -0.000546338090887034 0.000468480287052042 0.000634451297486613 0.000442746886053557 0.000244383770028868 0.000521552405354976 0.000291257963358274 0.000343974359634268 -0.000955716041913266
"262" 2.38253758027577e-06 -7.88895955798089e-05 -0.000290360685030218 -3.07207325850104e-05 -6.38616627653491e-05 -8.60711485097392e-07 -0.000477480659414727 -0.000552432583292303 0.000467483222314072 0.0006214024575162 0.000432493210165248 0.00023596472362044 0.000537283936219292 0.000292154759566086 0.000328013568760859 -0.000938319675290944
"263" -8.60810165007396e-07 -7.79882689967925e-05 -0.000295507328059986 -3.53112695837851e-05 -7.14829547314145e-05 -5.64948002958131e-06 -0.000495273968479034 -0.0005547444119966 0.000464076795191182 0.000606501619658917 0.000420941426859114 0.000227508059277732 0.000553285283101718 0.000291136271092306 0.000311040187087309 -0.000917662889934239
"264" -2.52969466976543e-06 -7.49106186864152e-05 -0.000298670365987486 -3.83602820210973e-05 -7.6353669478518e-05 -8.69800875380017e-06 -0.000509900749445211 -0.000553288076216038 0.000458193612811308 0.000589757507439487 0.000408115478762557 0.000219001530245499 0.000569447910590547 0.000288138140734379 0.000293084063191341 -0.000893962715901102
"265" -2.6232067637369e-06 -6.97028690750964e-05 -0.000299845547221619 -3.99108338441483e-05 -7.84752583628191e-05 -1.0008876033201e-05 -0.00052132401452664 -0.00054810470741932 0.000449790926883991 0.0005711946398362 0.000394047856478247 0.000210426139789818 0.000585662428325129 0.000283130183433704 0.000274189355654102 -0.00086744096767675
"266" -1.15519801775564e-06 -6.24216345373955e-05 -0.000299043116769993 -4.00149076644857e-05 -7.78722017509162e-05 -9.60715551548284e-06 -0.000529540038324002 -0.000539271421888214 0.000438849251552097 0.000550852277599286 0.000378788964435019 0.000201781998833143 0.000601826020409562 0.000276093758987714 0.000254413252096969 -0.00083832576026406
"267" 1.85275677247505e-06 -5.31445026649085e-05 -0.000296290362990318 -3.87278115548906e-05 -7.45938696346909e-05 -7.52196558824881e-06 -0.000534558313296209 -0.000526879692820918 0.00042537912641707 0.000528789317205211 0.000362403695267654 0.000193066393395259 0.0006178390888181 0.000267039771500208 0.000233830229168259 -0.000806846156340113
"268" 6.36683823863534e-06 -4.19584631128186e-05 -0.000291626144001563 -3.61175131885671e-05 -6.87071917533071e-05 -3.79549007778829e-06 -0.000536420009618546 -0.000511054124419025 0.000409409972198123 0.00050507289663089 0.000344966728808587 0.000184284220701576 0.000633606890192042 0.000255993735824388 0.000212525041520784 -0.000773238272258413
"269" 1.23444592679487e-05 -2.89674754155317e-05 -0.000285104682314897 -3.2251206547355e-05 -6.03034748592327e-05 1.52051061955188e-06 -0.000535178189830917 -0.000491944242647699 0.000391000181613851 0.000479786281251346 0.000326558517128811 0.000175444785736743 0.000649037963132714 0.000242999980458078 0.000190587245329061 -0.000737735124524269
"270" 1.97307148240246e-05 -1.42820938755752e-05 -0.000276792714870507 -2.72079808604344e-05 -4.94850845947785e-05 8.35802906042101e-06 -0.000530915207069569 -0.000469717992104822 0.000370225371495381 0.000453025509572189 0.000307275689166923 0.000166559531880539 0.00066404743017296 0.000228119594189933 0.00016812621528105 -0.000700568008731204
"271" 2.84588503878929e-05 1.96959062311425e-06 -0.000266762743674737 -2.10705104352966e-05 -3.63849618681317e-05 1.6648055740859e-05 -0.000523727920104884 -0.000444574988420963 0.000347175936956912 0.000424886798822661 0.00028721238099386 0.000157643728331872 0.000678550473821299 0.000211425571768763 0.000145247546744595 -0.000661974130223769
"272" 3.84585203769897e-05 1.96564399598605e-05 -0.000255103972952964 -1.39211866105956e-05 -2.114239719245e-05 2.63061244251935e-05 -0.000513739077501123 -0.000416726522315782 0.000321964294800994 0.000395483662549863 0.000266473479312433 0.000148712794490613 0.000692474280362375 0.00019300997624607 0.000122063338489364 -0.00062218041624372
"273" 4.96447455731463e-05 3.86335501749193e-05 -0.000241915511529689 -5.85270826520581e-06 -3.91707028645744e-06 3.72407532419426e-05 -0.000501083910931962 -0.000386410483904036 0.00029471749605514 0.000364924329660778 0.000245160628939737 0.000139784498641194 0.000705741194035128 0.000172974930221132 9.86907830659796e-05 -0.00058141756477506
"274" 6.19260023884487e-05 5.87476128197984e-05 -0.00022730079889441 3.04543562114853e-06 1.5121996569432e-05 4.93574144436227e-05 -0.000485919108209168 -0.000353878266806088 0.000265572322554901 0.000333330051456206 0.00022338394347075 0.000130877619957834 0.000718287079739335 0.00015142405203788 7.52482097073192e-05 -0.000539907577914266
"275" 7.52041653991444e-05 7.98462351376618e-05 -0.00021138016185744 1.26777628048497e-05 3.57882138534302e-05 6.25508892705806e-05 -0.000468417561228587 -0.000319396053193887 0.000234677811977137 0.000300820344125132 0.000201249223535575 0.000122008531008234 0.000730046052768635 0.000128484464549357 5.18495977994262e-05 -0.000497870262452625
"276" 8.93721772970824e-05 0.000101766552941479 -0.000194270625118269 2.29470637039561e-05 5.78910778747531e-05 7.67096862763378e-05 -0.000448761134294142 -0.000283245149085657 0.000202193085113833 0.000267518050483174 0.000178862467090577 0.000113196907646841 0.000740960325863426 0.000104279613275489 2.8610946688262e-05 -0.000455515876637779
"277" 0.000104319406557019 0.000124339693328226 -0.00017610039179555 3.37558458479963e-05 8.12285117080932e-05 9.17230163473845e-05 -0.000427154569514073 -0.000245716118801861 0.000168290399097964 0.000233545732429517 0.000156327341128654 0.000104456967449391 0.000750978234967508 7.89430141765247e-05 5.64273912226048e-06 -0.000413052828965377
"278" 0.000119929812411543 0.000147401654126063 -0.00015700576396832 4.5009229849841e-05 0.000105590798037616 0.000107473506567267 -0.00040380384738963 -0.000207114892411009 0.000133136503497354 0.000199024986035044 0.000133746380545501 9.5807200816105e-05 0.000760050064541568 5.26151359048315e-05 -1.69434850497026e-05 -0.000370680222034596
"279" 0.000136079929173981 0.000170782730350496 -0.000137117318013062 5.66090276235385e-05 0.00013076571687103 0.000123838703738305 -0.000378928426673136 -0.000167742891009554 9.6914586226213e-05 0.000164075515836405 0.000111218031335027 8.7263529341404e-05 0.000768139205149184 2.54391425161246e-05 -3.90453724285943e-05 -0.000328591106249238
"280" 0.000152644932464171 0.000194313037697834 -0.000116578341829782 6.84594587481327e-05 0.000156543445020688 0.000140700456000892 -0.00035275899102085 -0.000127907161313405 5.98037724184532e-05 0.000128822567235305 8.88381208517919e-05 7.88388598146509e-05 0.000775206481512452 -2.43973287932083e-06 -6.05693528135006e-05 -0.000286966091014991
"281" 0.000169505921464515 0.000217832724401629 -9.55286338805147e-05 8.04657783514598e-05 0.000182704543884761 0.000157938640333087 -0.000325523295094209 -8.79176170976703e-05 2.19938378806808e-05 9.33816362514252e-05 6.66944998225757e-05 7.05471620510803e-05 0.00078122791359269 -3.08731070356365e-05 -8.14194329936004e-05 -0.000245984373366236
"282" 0.000186531238224522 0.000241171947425829 -7.41073361503295e-05 9.25389883677137e-05 0.000209034572317815 0.000175430875193184 -0.00029745573133324 -4.80792977381717e-05 -1.63335048960474e-05 5.78711037503017e-05 4.48753252180419e-05 6.24052040474304e-05 0.000786179606545347 -5.97072283426027e-05 -0.000101516147134646 -0.000205814437597047
"283" 0.000203598795792939 0.000264176643917797 -5.24565111519403e-05 0.000104588840648881 0.000235329121650475 0.000193059773381161 -0.000268789425428687 -8.69087417193908e-06 -5.49830348987969e-05 2.24054426261627e-05 2.34616499918278e-05 5.44214918392058e-05 0.000790047240416968 -8.87929628952352e-05 -0.000120776279887634 -0.000166609984877707
"284" 0.000220584058961394 0.000286694270708095 -3.07132091511192e-05 0.000116529502201575 0.000261380565477587 0.000210712453717176 -0.000239759103414051 2.99554873990824e-05 -9.37767434432202e-05 -1.29025399821006e-05 2.5319326540892e-06 4.66111380203137e-05 0.000792827719128278 -0.000117980915489183 -0.000139137137401234 -0.000128522893490407
"285" 0.000237365428030007 0.000308578367885426 -9.00851464069559e-06 0.000128280434299749 0.000286994896898575 0.000228273008199242 -0.000210596228856366 6.75847107564083e-05 -0.000132523621485602 -4.79419334555476e-05 -1.78469482581759e-05 3.89858305215502e-05 0.000794521337281303 -0.000147113194530304 -0.000156533419907495 -9.16893169028905e-05
"286" 0.000253824823727312 0.000329692819242905 1.25241712824763e-05 0.000139768702439991 0.000311981174255844 0.000245638311308693 -0.000181518162941869 0.000103931689146709 -0.000171041704503873 -8.26069304389413e-05 -3.76025539605436e-05 3.15569690091289e-05 0.000795139420514169 -0.000176044236433183 -0.000172914621820355 -5.62359434361746e-05
"287" 0.00026985434750822 0.000349909370277141 3.37620047482356e-05 0.000150921117922777 0.000336163221572952 0.00026270600113299 -0.0001527443500248 0.000138752178010826 -0.000209146072766429 -0.000116786512707914 -5.66738845554458e-05 2.43412976378344e-05 0.000794698667808871 -0.000204622826941278 -0.000188231007151706 -2.22799722764689e-05
"288" 0.000285345263607015 0.000369110672840651 5.45834663120051e-05 0.000161671426538737 0.000359384565843536 0.000279382917348581 -0.000124472641358449 0.000171820530164856 -0.00024666088358142 -0.000150378228339281 -7.50041259318489e-05 1.73518017173311e-05 0.00079322845618809 -0.000232706047639081 -0.000202448623003843 1.00724970158633e-05
"289" 0.000300199530424871 0.000387188801689405 7.48815387122204e-05 0.000171964640958159 0.000381483368857026 0.000295582064300787 -9.68949811726241e-05 0.000202935978677543 -0.000283411612823751 -0.000183282339221037 -9.25370556512864e-05 1.06038728263604e-05 0.000790758903632542 -0.000260145610898757 -0.000215534557807871 4.07253044288586e-05
"290" 0.000314327628582999 0.000404052494878032 9.45519972904036e-05 0.00018174175010194 0.000402335589577559 0.000311225931114927 -7.01903906744808e-05 0.00023191629396436 -0.000319226344828145 -0.000215392681243431 -0.00010922399598311 4.11326986947442e-06 0.000787334791845647 -0.000286802179660146 -0.000227465989163345 6.95976951761757e-05
"291" 0.000327644505856972 0.000419614946309661 0.000113501985666415 0.000190961839841344 0.000421817865031359 0.000326242024834941 -4.45180779247208e-05 0.000258611333398059 -0.000353945748724794 -0.000246619751909881 -0.000125021237602024 -2.10383308074215e-06 0.000783007285889233 -0.000312542352054311 -0.000238232180370069 9.66161640531052e-05
"292" 0.000340080548700206 0.00043380557969485 0.000131639595918953 0.000199580082246745 0.000439825970578779 0.000340572663241444 -2.00207110847355e-05 0.000282897212556693 -0.000387405401044806 -0.000276860112462011 -0.000139886326062486 -8.02560634856818e-06 0.000777829627392755 -0.000337236580103696 -0.000247823969300364 0.000121723743808367
"293" 0.000351570663898747 0.000446570110908014 0.000148899062414752 0.000207564561297411 0.000456283133206404 0.000354163732440643 3.18112794114299e-06 0.000304676618909735 -0.000419459126779116 -0.000306024550952869 -0.000153782412984964 -1.36337428542459e-05 0.000771868234684443 -0.000360756261627271 -0.000256238825896737 0.000144866918438685
"294" 0.000362063785578088 0.000457864852610173 0.000165206345823358 0.000214887744682903 0.000471124648440401 0.000366973716595389 2.49781052723834e-05 0.00032388433946005 -0.000449958600624495 -0.000334023560997059 -0.00016667721925612 -1.89074798390187e-05 0.000765191658648986 -0.000382988307278882 -0.00026348902034911 0.000166012176393662
"295" 0.000371517155458738 0.00046765403832346 0.00018051343250345 0.000221528550671292 0.000484299001813317 0.000378970696323184 4.52872243296421e-05 0.000340479943048741 -0.000478772560847341 -0.000360767496682242 -0.000178543476143561 -2.38248153961498e-05 0.000757871171828345 -0.00040381849495564 -0.000269585164145079 0.000185134298508125
"296" 0.00037990310113786 0.000475924760150959 0.000194768791006481 0.000227473832841678 0.000495783207898417 0.000390132626679173 6.40497237380741e-05 0.000354456078699496 -0.000505773948850993 -0.000386171859016562 -0.000189354325463971 -2.83640042136882e-05 0.000749989569711441 -0.000423144387780235 -0.000274550447427077 0.000202215896450762
"297" 0.000387196495692278 0.000482668717870165 0.000207942595681562 0.000232711500805882 0.000505568136507316 0.000400447571459257 8.12197336620902e-05 0.000365835827464172 -0.000530842980867713 -0.000410157027333027 -0.00019909210634361 -3.2500266612038e-05 0.000741627095282249 -0.000440877834772671 -0.000278410195567176 0.000217254637267045
"298" 0.000393391925212119 0.000487895413341069 0.000220004877221249 0.000237240351499944 0.000513663670498389 0.000409909696467195 9.67795431840914e-05 0.000374664700950991 -0.000553878649362131 -0.000432647995061186 -0.000207737966827436 -3.62122469940138e-05 0.00073286587890536 -0.000456927200116948 -0.00028119945535797 0.000230258921918552
"299" 0.000398492297166505 0.00049162083177595 0.000230941106664103 0.000241064592400764 0.000520100788809319 0.000418530514163904 0.000110727652351269 0.000381018528975207 -0.000574781585056065 -0.000453571358219436 -0.000215286857130187 -3.94738741960731e-05 0.000723794881293822 -0.000471226052612607 -0.000282954414058645 0.00024124683781071
"300" 0.000402505768260248 0.000493875559743109 0.000240748548864233 0.000244187114241945 0.000524919229168689 0.000426319586014687 0.000123085658269017 0.000384996940744419 -0.000593468604732213 -0.000472862648489935 -0.000221729265872792 -4.22666321257956e-05 0.000714498709221452 -0.000483708835929311 -0.000283724204499251 0.000250243980496866
"301" 0.00040545607007709 0.000494698691393752 0.000249421097628201 0.000246622673322291 0.000528184853150145 0.000433302598257425 0.000133891018508565 0.000386724106868234 -0.000609872523876768 -0.000490458132438197 -0.00022706600457185 -4.45673195616251e-05 0.000705064608690221 -0.000494320683904334 -0.000283557019514492 0.000257290793042158
"302" 0.000407376596181965 0.000494139574216382 0.000256969873517545 0.000248383143216827 0.000529972404037585 0.000439511659224024 0.000143199286435878 0.000386340933285956 -0.00062392960726867 -0.000506303252216645 -0.000231297192838798 -4.63578065977339e-05 0.000695575947441447 -0.000503026144944558 -0.00028250535105595 0.000262430635806495
"303" 0.000408302931907457 0.000492254844569028 0.000263414808054396 0.000249487339323469 0.000530368575425981 0.000444982286386802 0.000151085076072895 0.000384010297982877 -0.000635596534872313 -0.000520348718603162 -0.00023443566608946 -4.76181190563551e-05 0.000686116141456684 -0.000509797239926979 -0.000280630392298963 0.00026571830992741
"304" 0.000408283691767622 0.00048911023066846 0.00026877574015742 0.000249958375804841 0.000529475448976324 0.000449759178510624 0.000157640527316685 0.000379908693443043 -0.00064484292678485 -0.000532551874806844 -0.000236491889482093 -4.83351356719419e-05 0.000676765313191182 -0.000514610517861188 -0.000277991400030511 0.000267217843807358
"305" 0.000407375233284468 0.000484775860427269 0.000273077624995089 0.000249817527695809 0.000527403619358296 0.000453889983025729 0.000162962831506936 0.000374226043524791 -0.000651644890270209 -0.000542876338174325 -0.000237482618930969 -4.84937550864879e-05 0.000667596001091982 -0.000517467810641424 -0.000274653454479525 0.000267000574990813
"306" 0.000405637630233769 0.000479324575969538 0.000276358827694791 0.000249090202846885 0.000524274618063015 0.000457433062573602 0.00016716626505068 0.000367164497308827 -0.000655999640131716 -0.000551293308024834 -0.000237436356038259 -4.80843186527919e-05 0.000658682252902464 -0.000518370871938677 -0.000270686557471387 0.000265141588391053
"307" 0.000403131278256038 0.00047283735896553 0.000278645717508601 0.000247798948128016 0.00052021321017877 0.000460440097469727 0.000170376241483588 0.000358929433814948 -0.000657912338480935 -0.000557781546494542 -0.000236375996184163 -4.71002183192939e-05 0.000650091955032927 -0.000517337404580278 -0.000266155614706276 0.000261726140815324
"308" 0.00039993129984652 0.000465397196431512 0.000279988700650317 0.000245975094552033 0.000515353583574163 0.000462973782426933 0.000172715945731987 0.000349731471411635 -0.000657400907108019 -0.000562324931406404 -0.00023433601208834 -4.55375250301167e-05 0.000641882230195245 -0.000514392346431301 -0.00026113149640062 0.000256843124829361
"309" 0.000396105058117899 0.000457082069859625 0.000280418906036727 0.000243641094087483 0.000509829702213275 0.000465096039649525 0.000174326870675466 0.000339787742809166 -0.000654496258528794 -0.000564913886908337 -0.000231349835651729 -4.33962053839091e-05 0.000634111863646423 -0.000509575035683122 -0.000255680113883815 0.000250587868728649
"310" 0.000391728128388865 0.000447980238674286 0.000279986513757523 0.000240823411168553 0.000503777622391274 0.000466869591321023 0.000175347225210813 0.000329306660297841 -0.000649242582149883 -0.000565550437510894 -0.000227457118747396 -4.068028370412e-05 0.000626828743123773 -0.000502929500918374 -0.000249870648779493 0.000243058845041529
"311" 0.000386875774112927 0.00043817188413807 0.00027873003731449 0.00023755094033694 0.000497329913057808 0.000468355893752447 0.00017591142596124 0.000318499591144922 -0.000641695135136326 -0.000564236328908806 -0.000222704442491654 -3.7395092291564e-05 0.00062007588494888 -0.000494511249083637 -0.000243770997432125 0.000234357418113581
"312" 0.000381621866230601 0.000427741685858743 0.000276700381779289 0.000233844361822339 0.000490626231497714 0.000469618254243758 0.00017616026159409 0.000307565922496117 -0.000631916531916726 -0.000560989016128377 -0.000217132577866718 -3.35551080513914e-05 0.000613890063061459 -0.000484378776978132 -0.000237443619121916 0.000224590781844884
"313" 0.000376038717804076 0.000416765805037514 0.000273940789461041 0.000229730617873394 0.000483793438105915 0.000470718146557761 0.000176226864738354 0.00029670511922085 -0.000619979429504321 -0.00055582331328062 -0.000210793120091483 -2.9169640200626e-05 0.000608303084667834 -0.000472603960057009 -0.00023094827684034 0.000213863942177176
"314" 0.000370198785800628 0.000405318941831661 0.000270489260599556 0.000225229346732532 0.000476953554652203 0.000471714054458245 0.00017624754815899 0.000286097895263453 -0.000605971825336684 -0.000548767850275429 -0.000203739435197282 -2.42602044670653e-05 0.000603339687589371 -0.000459257180604813 -0.000224342755592848 0.00020228477401622
"315" 0.000364173383066672 0.0003934801456436 0.000266395651767088 0.000220363055369811 0.000470231044636884 0.000472660599464107 0.000176341539374891 0.000275918982208729 -0.000589979757401944 -0.000539850207923331 -0.000196017635033794 -1.88439649947292e-05 0.00059901735643064 -0.000444416190717183 -0.000217676108116758 0.000189962917289238
"316" 0.000358026880602416 0.000381310665658187 0.00026170159374648 0.000215150716410593 0.00046373341097415 0.000473610584910272 0.000176629214596762 0.000266324061157024 -0.000572107364238631 -0.000529114911455825 -0.000187683161715008 -1.29483885917917e-05 0.000595348446055777 -0.000428169954814043 -0.000210996710979726 0.000177004664555713
"317" 0.000351819104603622 0.000368879471442371 0.000256449872063881 0.000209612635132124 0.000457561822313661 0.000474609492580452 0.000177219561141962 0.00025745996618425 -0.000552458639029599 -0.000516601235573071 -0.00017879484442108 -6.60001663143747e-06 0.00059233974269984 -0.000410596861751686 -0.000204346943530079 0.000163516439681543
"318" 0.000345608466555285 0.000356244941740162 0.000250674654796594 0.000203765056668593 0.000451810902985088 0.000475708836382018 0.000178203904110334 0.000249451460340558 -0.000531148058148474 -0.000502360729065636 -0.000169404411768514 1.7321017809086e-07 0.000589990588135458 -0.000391794350863458 -0.000197760348357401 0.000149603714628546
"319" 0.000339449814814187 0.000343461488233203 0.000244422155679288 0.000197624234581019 0.000446562921979505 0.000476941532181097 0.000179673184704916 0.000242412370643626 -0.000508294402486723 -0.000486449713400364 -0.000159568528043557 7.33678852844416e-06 0.000588295169182479 -0.000371850663272876 -0.000191269474481046 0.000135366818618829
"320" 0.000333384926859228 0.000330580747145294 0.000237728819390189 0.000191206221331292 0.000441887240105833 0.000478344059756564 0.000181699138944493 0.000236436353820146 -0.000484015331470113 -0.000468929662111928 -0.000149344444170955 1.48581249756624e-05 0.000587243943426642 -0.000350859040524658 -0.000184896713970441 0.000120904101732499
"321" 0.000327459147855188 0.000317646863523446 0.000230628539252527 0.000184525304770153 0.000437851018373565 0.000479946932486675 0.000184343823730255 0.000231595286090109 -0.000458446076361678 -0.000449869439674962 -0.000138790474864204 2.26985968094497e-05 0.000586816233510708 -0.000328916529435914 -0.000178657747637715 0.000106311186568239
"322" 0.000321705854572245 0.000304704019500304 0.000223162486773287 0.000177598820422051 0.000434494875144216 0.000481772990371619 0.000187650422358134 0.000227949788899855 -0.000431714276828724 -0.000429344714558589 -0.000127957946849127 3.08184370693247e-05 0.000586994699917719 -0.000306120699598543 -0.000172570072073659 9.16769979153136e-05
"323" 0.000316156257888312 0.000291784006165398 0.000215362792996351 0.000170436839052267 0.000431862738343681 0.000483842298618262 0.000191656223934295 0.000225538582869109 -0.000403952263301007 -0.000407430765736916 -0.000116902857895405 3.91779369021962e-05 0.000587749818135043 -0.000282566220930727 -0.000166631161121711 7.70894893499307e-05
"324" 0.000310835521830088 0.000278925657992829 0.000207263607024599 0.000163056680852336 0.000429978821557765 0.000486168926657321 0.000196384166745567 0.000224383679364851 -0.00037529892814761 -0.000384216262344885 -0.000105683109761651 4.77367230792023e-05 0.000589050015847438 -0.000258353421444019 -0.000160846311006115 6.26294343229193e-05
"325" 0.000305760666968747 0.00026615614322005 0.000198902227299307 0.000155472427382391 0.000428860147889521 0.000488762068862255 0.000201833456166575 0.000224490256700654 -0.00034589529945471 -0.000359793649122952 -9.43509905704403e-05 5.64490117427566e-05 0.000590856165513428 -0.00023358050235371 -0.000155212546215359 4.83706851624838e-05
"326" 0.000300945609892672 0.000253501777651387 0.000190310772948295 0.000147700566810581 0.000428509775095139 0.000491622704062867 0.000208005514148366 0.000225846242733885 -0.000315876713487061 -0.000334257602078233 -8.29567758877554e-05 6.52727216954081e-05 0.000593128981151606 -0.000208347200126882 -0.000149715634022315 3.43853362458121e-05
"327" 0.000296398192939417 0.000240991175017109 0.000181523901034526 0.000139756389407449 0.000428926009460811 0.000494753065560438 0.000214875421576542 0.000228421939964995 -0.000285383313672791 -0.000307711748929435 -7.15571923028875e-05 7.41640490613582e-05 0.000595823073902415 -0.000182752099133639 -0.000144346260061429 2.0734938991284e-05
"328" 0.000292118426463697 0.000228641704696941 0.000172579944154274 0.00013165878945731 0.000430095853668192 0.000498147900699097 0.000222413181888395 0.000232178298526323 -0.000254559806321492 -0.000280261733918535 -6.01973474833656e-05 8.30753803127894e-05 0.000598886552127184 -0.000156892679668817 -0.000139081583086028 7.47929688642812e-06
"329" 0.000288109763904693 0.000216476986306996 0.0001635140368549 0.000123427450514366 0.000431989641807666 0.000501794939875917 0.000230580828590478 0.000237054147784202 -0.000223543542924196 -0.000252022082705694 -4.8928990428392e-05 9.19641044998867e-05 0.000602266390971584 -0.000130867803503244 -0.000133905629757442 -5.32990453535542e-06
"330" 0.000284361026998846 0.000204517587801098 0.000154364222331494 0.000115082332470657 0.000434582435998294 0.000505682209482038 0.000239322429426629 0.000242984374582233 -0.000192471832169009 -0.000223111945225035 -3.77995653743688e-05 0.000100785925055062 0.000605904129213015 -0.000104776604497636 -0.000128794018213106 -1.76455128502961e-05
"331" 0.000280869215010821 0.000192782197790802 0.000145165656979622 0.000106644900470084 0.000437836618658321 0.00050979272275778 0.000248574751754084 0.000249887421675193 -0.000161486007215848 -0.000193649229110388 -2.68562529503792e-05 0.000109496753383914 0.0006097392445799 -7.8717845824895e-05 -0.000123718743737237 -2.9423884548341e-05
"332" 0.000277615521765015 0.000181294321554132 0.0001359560444361 9.81436261426401e-05 0.000441703953857991 0.000514104827894675 0.000258271975248071 0.00025767372876803 -0.000130717152688035 -0.000163764764392104 -1.61405367052355e-05 0.000118052872267248 0.000613708726672354 -5.2784708743354e-05 -0.000118653186569838 -4.06316833484232e-05
"333" 0.000274587480568773 0.000170068791820089 0.000126783033912689 8.96018983099072e-05 0.000446135369545818 0.000518598534115087 0.000268335812063286 0.000266242583533888 -0.000100299598018329 -0.00013358317589985 -5.69496348441085e-06 0.000126415671867321 0.000617745222794162 -2.7072539862469e-05 -0.000113572584681106 -5.1231810486175e-05
"334" 0.000271766353282454 0.000159128022641052 0.00011768353180325 8.10493689435355e-05 0.000451079011450486 0.000523247381908494 0.000278682632771284 0.000275493329291978 -7.03595891356905e-05 -0.000103241405837704 4.44034561571143e-06 0.000134542634112895 0.000621781853971433 -1.68027773222388e-06 -0.000108446688126248 -6.12013863352515e-05
"335" 0.000269134602116164 0.000148498173754737 0.000108703486635871 7.25188406412506e-05 0.000456475427212425 0.00052802380217013 0.000289224640094021 0.00028531028687084 -4.10259067072723e-05 -7.28713988455672e-05 1.42279875300292e-05 0.000142396136808486 0.000625747550859598 2.33000210618958e-05 -0.000103250293777739 -7.0513730851455e-05
"336" 0.000266669266444681 0.00013819725581105 9.98888171661175e-05 6.40421068122275e-05 0.000462266640399002 0.000532903981798865 0.000299878276486682 0.000295583337760045 -1.24139227830296e-05 -4.26113770417299e-05 2.36335332101116e-05 0.000149942814063268 0.000629572123572026 4.77792914907344e-05 -9.79539064493943e-05 -7.91519695733108e-05
"337" 0.000264351081201142 0.000128255556121264 9.12865461825634e-05 5.56523586142541e-05 0.000468385512120734 0.000537852674100652 0.00031054379881462 0.000306194902346313 1.53581969360918e-05 -1.25970663709199e-05 3.26221070393405e-05 0.000157146643806685 0.000633180183651717 7.16676616165954e-05 -9.25361427029065e-05 -8.71015686461991e-05
"338" 0.000262156574998151 0.000118695868706284 8.2946061895325e-05 4.73915834043747e-05 0.000474775073069571 0.000542844407436333 0.000321139118579865 0.000317027737013555 4.21806378584547e-05 1.70303851876643e-05 4.11667259516033e-05 0.000163980242739357 0.000636504068537002 9.48749118735005e-05 -8.69705585335476e-05 -9.43528821890466e-05
"339" 0.000260064703908026 0.000109548878185646 7.49163540993147e-05 3.9293928885774e-05 0.000481368135358251 0.000547846534771702 0.000331566417782929 0.000327966791518538 6.79481107021698e-05 4.6134590890127e-05 4.92379599878552e-05 0.000170414576663897 0.000639470424593623 0.000117318113285989 -8.12391541528779e-05 -0.000100897825681686
"340" 0.000258053224924821 0.000100843072013721 6.72499487144685e-05 3.14017862604397e-05 0.000488104146845535 0.000552829372806727 0.000341739651837977 0.000338899427108103 9.25671066334121e-05 7.45802980683233e-05 5.68129592471533e-05 0.000176424799299403 0.0006420051270156 0.000138915672009269 -7.53244939275821e-05 -0.000106736426068209
"341" 0.000256101002422831 9.26085380229536e-05 5.99993680615065e-05 2.37560616985505e-05 0.000494920837517137 0.000557764803075342 0.000351574142968482 0.000349714659789214 0.000115941529078918 0.000102230515099196 6.3866435549317e-05 0.000181990205639355 0.000644041596880408 0.000159586265283188 -6.92160968260952e-05 -0.000111868471276822
"342" 0.000254193049613292 8.48832597250159e-05 5.32132050298817e-05 1.63970789417561e-05 0.000501761845825953 0.00056262240595685 0.000360992278559635 0.000360307805443304 0.000137988569341757 0.000128954868171256 7.03838552598259e-05 0.000187092364346235 0.000645511489017892 0.000179259439594084 -6.28976027451843e-05 -0.000116296230542611
"343" 0.000252309880051981 7.76952931152087e-05 4.69486027900683e-05 9.36976274298817e-06 0.000508568160123137 0.000567374372328733 0.000369922752654203 0.000370583541228486 0.000158631860697251 0.000154626552047155 7.63484504285758e-05 0.000191716627939752 0.000646348682588117 0.00019785884047766 -5.63711483402459e-05 -0.000120032566841703
"344" 0.000250432815697915 7.10838328145077e-05 4.12522366266093e-05 2.71654298631538e-06 0.000515291429690595 0.000571994922911263 0.000378288537247954 0.000380448792539466 0.000177802215973652 0.000179119910881114 8.17466311026123e-05 0.000195850296803011 0.000646488359106155 0.000215319054866518 -4.96310890028657e-05 -0.000123086480362004
