"V1" "V2" "V4" "V5" "V7" "V8" "V10" "V11" "V13" "V14" "V15" "V17" "V18" "V20" "V21" "V23"
"1" -1.63471883610883e-05 -6.22878020371093e-06 9.84501327580241e-07 -1.70824597591614e-05 -4.63944558251367e-06 -7.00305836169438e-06 -1.55248538531152e-05 -8.0124260384053e-06 -8.2669048455927e-06 -6.49337022225224e-05 -9.73202621976197e-06 -0.000215941699993739 -0.000368980689685872 -1.11719252468475e-05 -0.000107784952125211 -4.31294017493988e-06
"2" 1.42489936788407e-05 1.16289421179991e-05 1.24285341123042e-05 4.03881950127895e-06 3.06659374055028e-06 -4.26672616572303e-06 1.52611505134817e-05 -9.19080803619414e-06 -1.40385872731366e-05 0.000236012838637966 9.40917192580868e-05 0.000579030891276789 0.000309010585054968 -3.39819293097534e-05 0.000478679817280217 -0.0001896177974102
"3" 4.61524256678748e-05 3.01170534318097e-05 2.43379056275371e-05 2.58310617998696e-05 1.13249118328953e-05 -1.3274460805751e-06 4.70174364020399e-05 -1.05096402649551e-05 -2.01343784040214e-05 0.000491162648307799 0.000197023969478196 0.00148321542310073 0.000999750032073219 -5.65858260046309e-05 0.00106861818717742 -0.000379333340675435
"4" 7.92296928149977e-05 4.91411160854426e-05 3.66684313374899e-05 4.82289774585542e-05 2.01463853691166e-05 1.86669727182157e-06 7.9634046045899e-05 -1.19208730632854e-05 -2.63836160010256e-05 0.000708684727698352 0.000298477841284624 0.00251202423555764 0.00170035578602382 -7.88669648232665e-05 0.00165998798426398 -0.000572633610267721
"5" 0.000113308782279635 6.86012616250339e-05 4.93649273392878e-05 7.11586059815177e-05 2.95372378990385e-05 5.35290178050508e-06 0.000112978113262471 -1.3371580046915e-05 -3.26014934213956e-05 0.000895430573376538 0.000397884826177923 0.00368364275128148 0.00240770005764972 -0.000100706167051629 0.00225074069975008 -0.000768590768573187
"6" 0.000148205487619193 8.83812469866751e-05 6.23689526148417e-05 9.45345621004599e-05 3.94878724959498e-05 9.17089825652422e-06 0.000146909401832565 -1.48081330367274e-05 -3.85899755911439e-05 0.001057157170253 0.000494692333682021 0.00501976445043104 0.00311844830680363 -0.000121993268343348 0.00283883645031477 -0.000966187469861608
"7" 0.000183707336212392 0.000108357230782188 7.56103838006559e-05 0.000118256632774833 4.99853139396765e-05 1.33554060439269e-05 0.000181266490149326 -1.61712556297857e-05 -4.41616679020647e-05 0.00119870208520563 0.000588375949929625 0.00654661582196736 0.00382904670023966 -0.000142623653167947 0.00342223251556913 -0.00116432356775943
"8" 0.000219571244193777 0.000128389128602399 8.90068033616406e-05 0.000142216765020015 6.09965343826934e-05 1.7938154333001e-05 0.000215868974514347 -1.74025437723602e-05 -4.91173105671877e-05 0.00132414009566223 0.000678446006816742 0.00829641871131095 0.00453574457475072 -0.000162495368773853 0.00399889462656076 -0.0013618109806008
"9" 0.000255542472289749 0.000148332118423383 0.000102477639691565 0.000166285336865561 7.24789004816646e-05 2.29437301311484e-05 0.000250516266534989 -1.84353101390138e-05 -5.32564772355841e-05 0.00143686110430215 0.000764443574458362 0.0103095490066291 0.00523462816800528 -0.000181518023225161 0.00456680134007542 -0.00155738522586901
"10" 0.000291333975414604 0.000168028590869217 0.000115919335069048 0.000190328784698744 8.43857096162574e-05 2.8390759367973e-05 0.000284999636895494 -1.92065757794023e-05 -5.63851762844729e-05 0.0015396871631757 0.000845959806554947 0.0126379372634761 0.00592164482078978 -0.00019960510869103 0.00512393759323114 -0.00174972836096157
"11" 0.000326644261163122 0.000187313106675174 0.000129236821731736 0.000214199830602864 9.66452017720582e-05 3.4300417520648e-05 0.000319087233047428 -1.9641593148165e-05 -5.83126311214351e-05 0.0016349455635031 0.000922627955035793 0.0153505684857459 0.00659261606917801 -0.00021667748772978 0.00566831322996725 -0.00193746854344681
"12" 0.000361150086951032 0.000206010615971873 0.000142309752330159 0.000237740636502782 0.000109181300349509 4.06769080269542e-05 0.000352536815027183 -1.96726378067754e-05 -5.88546871751794e-05 0.00172452158256676 0.000994127374007392 0.0185428377179131 0.00724332941732552 -0.00023266887403596 0.00619795754357779 -0.00211920357487965
"13" 0.000394515256619072 0.000223944522553292 0.000155028511781607 0.000260787761961029 0.000121911432707351 4.75311164403734e-05 0.000385102305299046 -1.9224550126154e-05 -5.78401573996931e-05 0.00180992476569458 0.00106019323919401 0.0223538958633333 0.00786954748407204 -0.000247525841738777 0.00671092480917122 -0.00229352668220661
"14" 0.000426402747158161 0.00024093933651177 0.000167269841429562 0.000283169606464992 0.000134734484784544 5.4864120592453e-05 0.000416522863223267 -1.82233426610378e-05 -5.51124647938249e-05 0.00189234091408346 0.00112061171439191 0.0270015274651635 0.00846708545003108 -0.000261195854795929 0.0072053061991864 -0.00245904463934288
"15" 0.000456471981561455 0.00025681524911072 0.000178903767704736 0.000304716522603031 0.000147552726713561 6.2673799091273e-05 0.000446546674510165 -1.65967314828476e-05 -5.05270323674805e-05 0.00197266448117415 0.00117522011461455 0.0328614756236197 0.00903189079398523 -0.000273641991203379 0.00767922947583507 -0.0026144115683594
"16" 0.000484378100110706 0.00027140366843516 0.000189816149454983 0.000325261080692352 0.000160256035100895 7.0955741709308e-05 0.000474921728832934 -1.42713023326378e-05 -4.39641615720291e-05 0.00205156196356052 0.00122391231184935 0.0406836194672442 0.00956009541294637 -0.000284837430052711 0.00813087258183948 -0.00275834933109955
"17" 0.00050981075021249 0.000284544569346973 0.000199882806661797 0.00034463959507538 0.000172741252383017 7.97030647952461e-05 0.000501406368271378 -1.11774994242588e-05 -3.532800539452e-05 0.00212949222639104 0.00126662391982351 0.0523862473054129 0.0100481080260379 -0.000294766692436422 0.00855847255619537 -0.00288968179684468
"18" 0.000532470678358021 0.000296090592478391 0.000208993889953998 0.000362701187180063 0.000184906253880501 8.89071857745348e-05 0.000525784102612883 -7.25205565470149e-06 -2.45489528229826e-05 0.00220675193919798 0.00130334952899764 0.0768156361687494 0.0104926801120011 -0.000303414539714209 0.00896033121949369 -0.00300735929289768
"19" 0.000552097110421667 0.000305916251011607 0.000217050595271911 0.000379311924503937 0.000196648064005396 9.85578664522932e-05 0.000547864569614099 -2.43548013482597e-06 -1.15808869686077e-05 0.00228350937312086 0.00133411834083761 0.0779354998955561 0.0108910038565079 -0.000310787930141697 0.00933483759159148 -0.00311049152752814
"20" 0.000568481529944608 0.00031391911832859 0.000223967527734538 0.000394361592513083 0.000207888955781021 0.00010864803723974 0.000567478452731054 3.32230883324e-06 3.58568436700363e-06 0.0023598307694273 0.00135900486281121 0.0558932969566551 0.0112407608621672 -0.000316886420372709 0.00968047247424575 -0.00319835773683715
"21" 0.000581457944677116 0.000320022433616308 0.000229673976129427 0.00040775962278808 0.000218549447607385 0.000119165123735263 0.000584514169994806 1.00639242724808e-05 2.09310015214844e-05 0.00243570521012673 0.00137812094855308 0.0466097584951488 0.0115402038491455 -0.000321729835245162 0.00999583488449612 -0.00327043769321018
"22" 0.000590919371100366 0.000324181668101618 0.000234133453587272 0.000419450287887134 0.0002285817281725 0.000130103393683685 0.000598889767663897 1.78210188260483e-05 4.0400142812124e-05 0.00251106767925153 0.00139161093148692 0.0413018383440465 0.0117881957779018 -0.000325333538655763 0.0102796602264938 -0.0033264178845296
"23" 0.000596835457491931 0.000326382235368793 0.000237319460080053 0.000429406410706263 0.000237941121152962 0.000141459484660685 0.000610573355887016 2.66153375943099e-05 6.19123814597961e-05 0.00258581114178925 0.00139964792605503 0.0380995013217081 0.0119842354062151 -0.000327725385372907 0.010530848113232 -0.00336620674653509
"24" 0.00059922960966548 0.000326642902688917 0.000239238362096009 0.000437633502344997 0.000246620873117897 0.000153227023471688 0.000619589073724829 3.64525841168769e-05 8.53485290307981e-05 0.00265981501644011 0.00140243753991733 0.0363071960396257 0.0121284695033083 -0.000328930510378312 0.0107484912758302 -0.00338992381243219
"25" 0.000598196724067977 0.000325017367985236 0.000239917236464058 0.000444170585140785 0.000254620865627901 0.000165405280411187 0.000626002985678816 4.73293350121475e-05 0.000110559332809631 0.00273293388233049 0.00140020368326883 0.0356159128325075 0.0122216965320431 -0.000328985040297856 0.0109319051225498 -0.003397909735586
"26" 0.00059389551411962 0.00032158693446234 0.000239413066213498 0.000449090355572972 0.000261967179351235 0.000177993458451244 0.000629934316921956 5.92287326358543e-05 0.000137371152212058 0.002805010990043 0.0013931966579503 0.0358956468402404 0.0122653420955401 -0.000327923963750236 0.0110806515491942 -0.00339069513829251
"27" 0.000586542368333808 0.000316460774988041 0.000237795315775409 0.000452490520387201 0.000268704218038576 0.000190990400119915 0.000631536927261272 7.21227813581611e-05 0.000165580511294394 0.0028758744547512 0.00138168158919633 0.0371311699422943 0.0122613762970219 -0.000325789178276854 0.0111945734107383 -0.00336899330028359
"28" 0.00057641035091985 0.00030977881200864 0.000235163077572151 0.000454498759014395 0.000274890983835795 0.00020439802117237 0.000631008074541471 8.59728150241337e-05 0.000194974754574038 0.00294533453651936 0.00136595656111053 0.0394167328064121 0.0122122938742402 -0.000322619178304301 0.0112738136606507 -0.00333367566152776
"29" 0.000563805509836611 0.000301692986268109 0.000231627730954799 0.000455255729533023 0.000280599941401947 0.000218214298603164 0.000628574413410958 0.000100728237322422 0.000225309008742324 0.00301317007468689 0.00134632297717895 0.043003681991463 0.0121210207037785 -0.000318465940709652 0.0113188190293968 -0.00328574659725574
"30" 0.00054907438204274 0.000292374663556609 0.000227309943673448 0.000454925055119504 0.000285909185574118 0.000232436581748632 0.00062448580443689 0.000116330638432896 0.000256333526344684 0.00307912521808849 0.00132311321574581 0.0484592781298676 0.011990838233402 -0.00031337867040677 0.0113303658454162 -0.00322631454203493
"31" 0.000532576818964501 0.000282008066364944 0.000222341420306835 0.000453673642463902 0.000290910593249061 0.000247058175241126 0.000619004054930557 0.000132715061797431 0.00028778964796213 0.00314289807134966 0.00129667247838085 0.0572281531471906 0.0118252867631386 -0.000307406902968205 0.0113095424313908 -0.00315655866955925
"32" 0.000514688239919697 0.000270779044856921 0.000216861348464682 0.000451676644406006 0.000295683794177645 0.000262070564475661 0.00061240130460342 0.000149807268545518 0.00031941083628175 0.00320414055219516 0.00126736033317149 0.0748839464814454 0.0116280886542288 -0.000300612019068287 0.0112577338225714 -0.00307771459059095
"33" 0.000495785595099345 0.000258876477288642 0.000210998570736408 0.000449107790249794 0.000300312955913811 0.00027745723754593 0.000604947980768715 0.000167531517908602 0.000350933474565263 0.00326243959767744 0.00123555178984066 0.0954969115254269 0.0114030639447402 -0.000293054320096329 0.0111766142685816 -0.00299103466167869
"34" 0.0004762414189223 0.000246486747039584 0.000204890858295286 0.00044613878837481 0.000304883881514529 0.000293199956446825 0.000596911385231811 0.000185805021573216 0.000382097209548325 0.00331732934430427 0.00120163699760303 0.0620710908660784 0.011154059171207 -0.000284801008563554 0.0110681032714606 -0.00289778109240678
"35" 0.000456408858118183 0.000233790677901901 0.000198659830133972 0.000442929516561078 0.000309461272983108 0.000309272594859384 0.000588539759758461 0.000204545799348983 0.000412640928431184 0.00336829758930964 0.00116601187331695 0.0494128724824283 0.010884881314484 -0.00027591542593663 0.0109343363203365 -0.00279918727314746
"36" 0.000436624884781383 0.000220957058621192 0.000192426120163369 0.000439627369570711 0.000314108271355907 0.000325642449021073 0.000580078066872193 0.000223665434999598 0.000442323281183223 0.00341476876667438 0.00112908224521503 0.0414818400992966 0.0105992436332293 -0.000266478836683387 0.0107776180861751 -0.00269644592018185
"37" 0.0004171983996255 0.000208148441100577 0.000186296136718902 0.000436370249491405 0.000318878735788939 0.000342269770335744 0.00057173684275023 0.000243076456266426 0.000470906734790486 0.00345614277005283 0.00109125521875531 0.0357567275632952 0.0103006967775051 -0.000256559743174744 0.0106003864059597 -0.00259070545540518
"38" 0.000398416247268633 0.000195507416645649 0.000180362278725157 0.000433278596838816 0.000323805496017807 0.000359111844093166 0.00056371330752178 0.000262690118529836 0.000498174409844449 0.00349178833518008 0.0010529424030648 0.0313340586657665 0.00999262006424716 -0.000246235751995732 0.010405167543395 -0.00248305182191728
"39" 0.000380524868237416 0.000183168757992413 0.000174705643535559 0.000430458160948368 0.000328921082319488 0.000376115275196604 0.000556182393743188 0.000282419518405713 0.000523920467340476 0.00352106063319899 0.00101454243711828 0.0277819329971712 0.00967818175350673 -0.000235589354983821 0.0101945142661029 -0.00237449388528481
"40" 0.00036374715353469 0.000171250190510787 0.000169401501695123 0.000427992903550665 0.000334233106457026 0.000393223600771007 0.000549287480048373 0.000302176071117913 0.000547958586840699 0.00354332696751954 0.000976455172704567 0.0248581054507468 0.00936030903632869 -0.000224697940303668 0.00997099176708893 -0.00226597432769738
"41" 0.000348266807664684 0.00015984859120941 0.000164496602355621 0.000425959840855795 0.000339748132847185 0.000410373147147464 0.000543151773975324 0.000321870566012536 0.000570122194047428 0.00355798080196725 0.000939056290574074 0.0224118657959802 0.0090416899931407 -0.000213644972427805 0.00973711459696964 -0.00215835240367337
"42" 0.000334236971087255 0.000149054111764056 0.000160036512719828 0.000424407706020946 0.000345455224502291 0.000427497070759079 0.000537872986355852 0.000341416159079005 0.000590264732055326 0.00356446591786826 0.000902717759668177 0.0203423962660053 0.00872474862866773 -0.000202505772647349 0.00949532774582244 -0.00205241105984023
"43" 0.000321782260092341 0.000138933984007504 0.00015605276015987 0.000423378159469848 0.000351334926188181 0.000444522900784001 0.000533523699356626 0.000360728842699013 0.000608257047622017 0.00356229937229893 0.000867786005349262 0.0185784767499898 0.00841165748622546 -0.000191360725563851 0.00924797438961382 -0.00194885767734313
"44" 0.000310998112440989 0.000129546677477331 0.000152558957617456 0.000422897025503906 0.000357363896850618 0.000461378189513486 0.00053015372057471 0.000379721283082697 0.000623991705770379 0.00355109202022396 0.000834584213766824 0.0170677101345056 0.00810432934156536 -0.000180289632296644 0.00899726400547388 -0.00184831548018012
"45" 0.000301945011475276 0.000120930411821516 0.000149558994614374 0.000422974549925622 0.000363499343765169 0.000477981716316129 0.000527794862119707 0.000398315033058664 0.000637383484603259 0.0035305603137651 0.000803407673398677 0.0157702308957844 0.00780443752778373 -0.000169358996663906 0.00874526655046706 -0.00175133987175378
"46" 0.000294663075954953 0.000113118070981402 0.000147051093120017 0.000423607088348058 0.000369705655397866 0.000494253427049288 0.000526458456745532 0.000416425666058821 0.000648366559162074 0.00350056265440213 0.00077452526623534 0.014654885518297 0.00751340711405575 -0.00015864255009525 0.00849388265317946 -0.00165841197146131
"47" 0.000289161873707221 0.00010612014240113 0.000145014547351006 0.000424785115408291 0.000375928934740122 0.000510113920478375 0.000526132990736065 0.000433975979556153 0.00065689593594993 0.00346108085835647 0.000748173035135149 0.0136968034797148 0.00723244131364089 -0.000148205204534628 0.0082448478391789 -0.00156995259866769
"48" 0.000285429194580653 9.99441554661145e-05 0.000143426046587113 0.000426485489125483 0.000382118332041356 0.000525481408507932 0.000526794275598542 0.000450889952416185 0.000662946979611174 0.00341224133660805 0.000724559874178895 0.012875708199505 0.00696252509926528 -0.000138103819524484 0.00799972079895314 -0.00148631397504857
"49" 0.000283436411762267 9.45838010847581e-05 0.000142253161922332 0.00042867384889152 0.000388220035247151 0.000540276608031099 0.000528402056879866 0.000467095088074595 0.000666511907533922 0.00335430953917257 0.000703850616874089 0.0121748237400688 0.00670444892331793 -0.00012840008523135 0.00775987906473037 -0.00140779580215245
"50" 0.000283129203535948 9.00185138450917e-05 0.000141456808356543 0.000431312723398433 0.000394179165244945 0.000554419638206184 0.000530906426084921 0.000482521381173077 0.000667603880548594 0.0032876907888568 0.000686186276436598 0.0115800337271622 0.0064588132475298 -0.00011913185444107 0.00752652815336875 -0.00133464337441776
"51" 0.000284437066335458 8.62247218181849e-05 0.000140989000883039 0.000434352834232707 0.000399929370764396 0.000567832271626532 0.000534240633132054 0.000497104607997156 0.000666256222485596 0.00321289304373386 0.000671667932725826 0.0110792742895929 0.00622606140141581 -0.000110351930053782 0.00730070450866836 -0.00126705294794684
"52" 0.000287276379816467 8.31701536998769e-05 0.000140801851628003 0.000437745956750579 0.00040542173056785 0.00058044593063792 0.000538327357554318 0.000510781688289928 0.000662517227321245 0.00313053947663309 0.000660356097148048 0.0106621003112309 0.00600648323485146 -0.000102093412146488 0.00708327630759466 -0.00120517225928027
"53" 0.000291546566779489 8.08124619748096e-05 0.000140834026972723 0.000441433766265805 0.0004105925994408 0.00059218889724588 0.000543091388964857 0.000523499807551843 0.000656451843970827 0.00304132921970881 0.000652288344581096 0.010319290565413 0.00580022728534956 -9.43849017881221e-05 0.00687496034815717 -0.00114910683760379
"54" 0.000297141481342225 7.91078736281731e-05 0.000141032485108507 0.000445357853171063 0.000415391100787234 0.00060299579844604 0.000548440391968679 0.00053520356970607 0.000648148162967744 0.00294600946130692 0.00064745895484282 0.0100426048477759 0.00560731954981379 -8.72423977856059e-05 0.00667632737695735 -0.00109891984768782
"55" 0.00030393305370473 7.80035488891296e-05 0.000141333694432978 0.000449451476935069 0.000419762258658483 0.000612810175213962 0.000554281474448743 0.000545851409589083 0.0006376982104779 0.00284536507719718 0.000645837089930214 0.00982453859183694 0.00542769041369482 -8.06900288067588e-05 0.0064878205502823 -0.00105463903806729
"56" 0.000311796524622292 7.74445418469121e-05 0.000141676018750521 0.000453654652709241 0.000423653609056418 0.000621577174179807 0.000560513123420245 0.000555398811829375 0.000625215970443207 0.00274017700986945 0.000647350217944959 0.00965814479016464 0.00526117337142252 -7.47315501226921e-05 0.00630976132702595 -0.00101625412805492
"57" 0.000320586322472041 7.73721739817002e-05 0.000141991521611131 0.000457898637523528 0.000427020002791062 0.000629254148553713 0.000567038645232967 0.000563819046654991 0.000610825912646356 0.00263121866650084 0.000651904543055603 0.00953689076348637 0.00510753573206014 -6.93728361568748e-05 0.00614236870577339 -0.000983725562603706
"58" 0.000330169543285631 7.77285145373416e-05 0.000142222711843765 0.000462116283370456 0.000429820501388851 0.000635801643691039 0.000573751333938987 0.000571080935347441 0.000594663356748692 0.00251922086176377 0.000659377815648435 0.00945452593843215 0.0049664750364745 -6.46044103084079e-05 0.0059857624305437 -0.000956981514461789
"59" 0.000340390557646335 7.84526371264222e-05 0.000142304697503229 0.000466244158460809 0.000432016965352196 0.000641189063851942 0.000580555193601927 0.000577169176392865 0.000576873933452202 0.00240486206880726 0.000669620125541962 0.00940498469496205 0.00483763975245177 -6.04183509046557e-05 0.00583998186529745 -0.000935915815621517
"60" 0.000351099112283426 7.94814785659878e-05 0.000142174805227671 0.000470216397375512 0.000433576372503222 0.000645391999210835 0.000587348446637957 0.000582071204189194 0.00055761319032115 0.00228876842362628 0.00068245826522668 0.00938233114513574 0.00472063812087126 -5.67984248791976e-05 0.00570499781958367 -0.000920399250226645
"61" 0.000362145618095688 8.0754358948824e-05 0.000141775173968398 0.000473968616521976 0.000434465995445156 0.000648399539905068 0.000594030980020783 0.00058578539498559 0.000537043690324935 0.00217148579354445 0.000697695516120647 0.00938068787180523 0.00461506257919798 -5.37177633615472e-05 0.00558072097518214 -0.000910275641172895
"62" 0.000373376642816688 8.22133545014431e-05 0.000141044056355617 0.000477443013642159 0.000434662572433745 0.000650202322672991 0.000600507197171229 0.000588314740120266 0.00051533345819975 0.00205349889966636 0.000715122386074417 0.00939421209341755 0.00452047930681115 -5.11577432315946e-05 0.00546701292113339 -0.000905359116757978
"63" 0.000384636515860296 8.37989306576897e-05 0.00013993395455928 0.000480576345479646 0.000434148486653384 0.000650805263544465 0.00060668987148254 0.000589676049091752 0.00049265398945535 0.0019352158032878 0.000734508062666455 0.0094171018982471 0.00443645570886646 -4.90834490962951e-05 0.00536368896889329 -0.000905434955413202
"64" 0.000395780809022305 8.54544338710543e-05 0.000138390151969331 0.000483317886533391 0.000432907314542678 0.000650220188056751 0.000612485351661123 0.00058988683474356 0.000469180764676245 0.00181698376567869 0.00075560845611237 0.00944361504274255 0.0043625474507762 -4.74600821992876e-05 0.00527053683315697 -0.000910264062664139
"65" 0.000406661020250827 8.71318656576726e-05 0.000136362835049725 0.000485613542854828 0.000430933609055742 0.000648466613306702 0.000617819297541594 0.00058898073091164 0.000445088441490032 0.00169908401687535 0.000778170838498997 0.0094680726936737 0.00429834084537134 -4.625166742618e-05 0.00518731457351747 -0.000919590998734151
"66" 0.000417136744614217 8.87820757087535e-05 0.00013381078599027 0.000487417734516756 0.000428217164077533 0.000645571670459195 0.000622607325516297 0.000586994154568588 0.000420554504290869 0.00158175410811184 0.000801930999179216 0.0094849802904179 0.00424341660464278 -4.54162576830834e-05 0.00511376374440081 -0.000933132122128717
"67" 0.00042707206559886 9.0361205080645e-05 0.000130695208231316 0.000488685334753388 0.000424762655248472 0.000641575637897682 0.00062679305254258 0.000583973213629716 0.000395745121950294 0.00146518213685976 0.000826619103587192 0.00948906954095465 0.00419738312154853 -4.49128421379669e-05 0.00504960254881428 -0.000950578642276677
"68" 0.000436337495672159 9.18318323969905e-05 0.00012697882987924 0.00048938021706446 0.000420569092401277 0.000636517390566897 0.000630306139664659 0.000579971620809913 0.00037082983531599 0.00134951534485945 0.000851963611984806 0.00947543098853427 0.0041598811110369 -4.47011264302048e-05 0.00499453814105685 -0.000971610465177201
"69" 0.000444808231837889 9.31578929782263e-05 0.000122630006809113 0.000489468496701298 0.000415648672676677 0.000630450699913075 0.000633098496666788 0.000575049242369169 0.000345971778011462 0.00123487478475859 0.000877687321718963 0.00943958469326699 0.00413057265321812 -4.47341924756437e-05 0.00494827381708184 -0.000995878340407871
"70" 0.000452378684410051 9.43125066238939e-05 0.000117625680161423 0.000488924606619506 0.000410013016474066 0.00062343398127379 0.000635118354340409 0.000569276780807621 0.000321325201214094 0.00112136108258155 0.000903520867640923 0.00937764530786915 0.00410915298516568 -4.49735534543192e-05 0.00491049390181756 -0.00102302306337558
"71" 0.000458938506932509 9.52748965182744e-05 0.000111942746612942 0.000487727952252827 0.000403680658332231 0.000615533776035944 0.000636335121476716 0.000562725750277638 0.000297030632438754 0.00100904851818801 0.000929196759066542 0.00928639235718615 0.00409535746325952 -4.5371701919036e-05 0.00488088461793577 -0.0010526560076122
"72" 0.0004644031442214 9.60269748800579e-05 0.000105567701881278 0.000485860244468317 0.000396672950245599 0.000606816791096112 0.00063672125324114 0.000555476933156078 0.000273227031693614 0.000897998600839642 0.000954448086671768 0.00916339156423037 0.00408895667938629 -4.58880111623688e-05 0.00485911972257233 -0.00108438094265208
"73" 0.000468690706898108 9.65574911398063e-05 9.84887234623858e-05 0.000483314685498641 0.000389011568621751 0.000597360182180698 0.000636249436204815 0.000547613814301695 0.00025003733403 0.000788258944957337 0.000979026136687101 0.00900707338803597 0.00408975810658055 -4.64826385673833e-05 0.00484486937883521 -0.00111778280672239
"74" 0.000471731388958472 9.68616717203497e-05 9.07049764974587e-05 0.000480089978493776 0.000380728402302084 0.00058724453236105 0.000634916188652789 0.000539225660894242 0.000227576853562631 0.000679863285294352 0.00100268618426714 0.00881674752066117 0.00409760841525254 -4.7117166634612e-05 0.00483779528497507 -0.00115242634520483
"75" 0.00047346988048507 9.6941860661434e-05 8.22174345601847e-05 0.000476188180888028 0.000371856229146076 0.000576551502996559 0.000632719784172926 0.000530406264263611 0.000205937551289881 0.000572839266470711 0.00102520098023008 0.00859267553876353 0.00411238317370104 -4.77539386038e-05 0.00483754354527752 -0.00118786750364197
"76" 0.000473864571624668 9.68021650388626e-05 7.30356242406439e-05 0.00047162315242655 0.000362429898409095 0.000565368727555952 0.000629666426258506 0.000521246934989109 0.000185209542975715 0.000467207677053397 0.0010463535737919 0.00833601116456686 0.0041340004268035 -4.83606208723975e-05 0.00484375582648659 -0.00122365566679488
"77" 0.000472886655156128 9.64566680678342e-05 6.31686881489289e-05 0.000466408997158432 0.000352484672825424 0.00055378345229374 0.00062576957561422 0.000511845443010299 0.000165466052199551 0.000362973282381396 0.00106594672618739 0.00804872880084358 0.00416241265394011 -4.89103713502306e-05 0.00485605298894138 -0.00125932007368052
"78" 0.000470525289858678 9.59206200854358e-05 5.26436894272655e-05 0.000460572330712099 0.000342066918086838 0.000541886064671704 0.000621057134533721 0.000502294709002741 0.000146759825885838 0.000260141734923331 0.00108380234215528 0.00773358893495025 0.00419758981847681 -4.93676681877018e-05 0.00487403601308472 -0.00129439749944564
"79" 0.000466780876102014 9.52153986815966e-05 4.14840930200444e-05 0.000454141104449222 0.000331222918917462 0.000529767469560264 0.000615563251487488 0.00049269509796406 0.000129136891151764 0.000158700458046359 0.00109975920298061 0.00739396159290792 0.0042395273086456 -4.97121911418471e-05 0.00489730113809912 -0.00132840845501764
"80" 0.000461664840916029 9.43674130393979e-05 2.97285693814405e-05 0.000447155337104613 0.000319997368349431 0.000517517194828806 0.000609327373555573 0.000483135892026443 0.00011262628080913 5.8643361844155e-05 0.00111367890703494 0.00703372214017833 0.00428824483050481 -4.99225059157976e-05 0.00492541342208686 -0.00136087767198046
"81" 0.000455207114120104 9.34049377527752e-05 1.74128030663996e-05 0.000439654688378953 0.000308443223404065 0.000505223374176956 0.000602396597152347 0.000473712332310316 9.72428205752626e-05 -4.00539565977479e-05 0.00112544939082485 0.00665710694896817 0.00434376440700389 -4.99767412306343e-05 0.00495792292155865 -0.00139133507194137
"82" 0.000447454643515995 9.23604057365237e-05 4.58566899527438e-06 0.000431685692251977 0.000296613783404417 0.000492973385277822 0.000594830719749742 0.000464510508900247 8.29875487870036e-05 -0.000137413582363089 0.00113496920584898 0.00626854929007493 0.0044061169928417 -4.98634368288975e-05 0.00499435706281289 -0.00141930600300224
"83" 0.000438455739222971 9.12726546574611e-05 -8.6976782636765e-06 0.000423303938791988 0.000284563476386977 0.000480851640265478 0.00058668984749944 0.000455616219472353 6.98507421969791e-05 -0.000233465188947326 0.00114217516813723 0.00587257821007002 0.0044753235939053 -4.95699242124129e-05 0.00503422342290883 -0.00144433414207865
"84" 0.000428286036335186 9.01750878006553e-05 -2.23818736550862e-05 0.000414565155587064 0.000272348570770083 0.000468940904534743 0.000578043925655882 0.000447109161826437 5.78129825182947e-05 -0.000328239955132654 0.00114701885891161 0.0054736649775429 0.00455139464058579 -4.9088029481127e-05 0.00507700524204015 -0.00146596204404224
"85" 0.000417021668920087 8.91090469603245e-05 -3.64000123874522e-05 0.000405528623980944 0.000260030305853788 0.000457319227275494 0.000568960183126713 0.000439060672692477 4.68386035894678e-05 -0.000421777822756764 0.001149471094999 0.00507614314199152 0.00463431602113556 -4.84134405207804e-05 0.00512216299966343 -0.00148375580411966
"86" 0.000404753210585946 8.81118510797558e-05 -5.06811995298098e-05 0.000396257448300705 0.000247661754990439 0.000446058519619073 0.000559516622031926 0.000431536638179411 3.68923184440733e-05 -0.000514113747708985 0.00114953955457375 0.00468409302349784 0.0047240420765944 -4.75395597207596e-05 0.0051691316595854 -0.00149729449342684
"87" 0.000391584343999568 8.72270339798368e-05 -6.51570815516081e-05 0.000386820319825677 0.000235307284500946 0.000435227039564074 0.000549794580111986 0.000424600585402704 2.79173576531328e-05 -0.00060528060679037 0.00114724288331423 0.00430128788553272 0.00482048697302047 -4.64697414941485e-05 0.00521732804253112 -0.00150617248083403
"88" 0.000377618281241892 8.6490096190922e-05 -7.97448927082362e-05 0.000377283225745417 0.000223025984468594 0.000424888282327006 0.000539869009100146 0.000418304083346584 1.98574622875439e-05 -0.000695322777482174 0.00114262375244123 0.00393116877564102 0.00492351478385914 -4.52080184158657e-05 0.00526615419303722 -0.00151002221874807
"89" 0.000362969500908383 8.59374760188651e-05 -9.43690467368344e-05 0.000367710058836628 0.000210868297914068 0.000415097382071994 0.000529825071536867 0.000412690687677488 1.26495898362316e-05 -0.000784273709362006 0.00113574721603183 0.00357678134854068 0.00503293368250283 -4.37614371439812e-05 0.00531499057432362 -0.00150849077739451
"90" 0.000347764928967013 8.56109252108463e-05 -0.000108940974033567 0.000358169952501185 0.000198900404718383 0.000405904267660985 0.000519743853013947 0.000407798235767148 6.22737201371635e-06 -0.000872165326785056 0.00112670106456102 0.00324079862035068 0.00514847736622419 -4.21363911180507e-05 0.00536321077284066 -0.00150126036676622
"91" 0.000332118394617776 8.55404992221822e-05 -0.000123383679244254 0.000348726957715643 0.000187170412001726 0.000397354765087536 0.000509698965329748 0.00040365330739357 5.16528811387141e-07 -0.000959022364509862 0.00111558202998312 0.00292548771839864 0.00526980385336414 -4.03461778099348e-05 0.00541017230274378 -0.00148804500625612
"92" 0.000316162563085547 8.57549748241509e-05 -0.000137610773015927 0.000339445631130999 0.000175727832441473 0.000389483862874772 0.000499775232186223 0.000400279218282485 -4.55860221558944e-06 -0.00104487129923437 0.00110250704719189 0.00263275055499684 0.0053964908884069 -3.84060127076047e-05 0.00545522874100069 -0.00146859595843852
"93" 0.00030001602545923 8.62834728934758e-05 -0.0001515383737632 0.000330385972421306 0.00016462530208535 0.000382322521876224 0.00049003855968131 0.000397684486826975 -9.06733417574786e-06 -0.00112972317595805 0.00108761189466838 0.00236411472189805 0.00552801104957672 -3.6329374275396e-05 0.00549773550531362 -0.00144269820555611
"94" 0.000283807690118799 8.71483692146771e-05 -0.000165086567778949 0.000321601814214134 0.000153906634125113 0.000375889463417741 0.000480559502462833 0.000395874298932506 -1.30879291534727e-05 -0.00121358356439358 0.00107104177932813 0.00212076370544437 0.00566375299168719 -3.41359925531908e-05 0.00553705151076754 -0.0014101862411967
"95" 0.000267655114306924 8.83674967898627e-05 -0.000178178573720729 0.000313144244994499 0.000143610431560853 0.000370201334073978 0.000471398260652177 0.000394841756654802 -1.66984863745064e-05 -0.00129644235054188 0.00105294607162428 0.00190358890005745 0.00580298811990828 -3.1847578916429e-05 0.00557254787676603 -0.00137093095029505
"96" 0.000251676812769383 8.99516406102145e-05 -0.000190739419778055 0.000305061859143436 0.000133770469502299 0.000365264462913728 0.000462618877036108 0.000394578244889923 -1.9963483329736e-05 -0.00137827028317302 0.00103349307114182 0.00171319543918466 0.00594488611756708 -2.94766754461355e-05 0.00560360973214581 -0.00132485294151553
"97" 0.000235981303535288 9.19116226677401e-05 -0.00020269849851143 0.000297392316502389 0.000124420391794487 0.000361080851148258 0.000454259463689977 0.000395060415185238 -2.29560076603339e-05 -0.00145902633151673 0.00101285371193766 0.00154994099257821 0.00608851644194263 -2.70537381756603e-05 0.0056296437021938 -0.00127191055979117
"98" 0.000220673286453064 9.4245544151288e-05 -0.0002139886253117 0.000290173554207175 0.000115585270497045 0.000357640001891805 0.000446369648768094 0.000396261562950001 -2.57415983197503e-05 -0.0015386503769619 0.000991194649666913 0.00141396531472984 0.00623284102176993 -2.4596849707483e-05 0.00565008310892204 -0.00121211782864769
"99" 0.000205850030732068 9.69507536510737e-05 -0.000224554269889335 0.000283426936953769 0.000107283520219311 0.000354931721520128 0.000438983969618111 0.000398151622111872 -2.83764310931505e-05 -0.00161706027206329 0.000968695444453818 0.00130520012771533 0.0063767283355669 -2.21300036419171e-05 0.00566439711304815 -0.00114553916261251
"100" 0.000191593877524238 0.000100016005959886 -0.000234341662082083 0.00027718218680628 9.95311719369313e-05 0.000352932943311671 0.000432123876812956 0.000400689170812089 -3.09175717182087e-05 -0.00169415706457849 0.000945529457243455 0.00122341145706602 0.00651895490018224 -1.96783710132005e-05 0.00567208237783615 -0.00107228786700343
"101" 0.000177992707392792 0.000103428099669192 -0.000243306125254859 0.000271449701763737 9.23397840424448e-05 0.000351617392601007 0.000425814492125436 0.000403829752485418 -3.341405572858e-05 -0.00176981591357996 0.000921870850623258 0.00116819009176309 0.00665821386651897 -1.7263448813864e-05 0.00567269051501666 -0.000992528344917778
"102" 0.000165107318616631 0.000107162831778823 -0.000251410738365676 0.000266237561698064 8.57140599006243e-05 0.00035095495598135 0.000420059046323602 0.000407524727193762 -3.59103198311267e-05 -0.00184388352749378 0.000897886108411696 0.00113899218870798 0.00679313086028637 -1.49050115923302e-05 0.00566581705613098 -0.00090647916941261
"103" 0.00015299770594706 0.000111193406179576 -0.000258626730699368 0.000261549419715593 7.96514146148577e-05 0.000350907891106465 0.000414860765827328 0.000411724032899353 -3.84443756515682e-05 -0.00191619283405122 0.000873740782602841 0.00113512511486445 0.00692228032482509 -1.26269766083642e-05 0.00565111460402558 -0.000814415023874021
"104" 0.000141712637604956 0.000115489998724852 -0.000264927286110169 0.00025738237726262 7.41513507288541e-05 0.000351434198541272 0.00041021951278067 0.000416369537845866 -4.10452827864982e-05 -0.00198653793983801 0.000849589277985875 0.00115576983445771 0.00704421085305184 -1.04519265968374e-05 0.0056282931766277 -0.000716661707353855
"105" 0.0001312865677388 0.000120016097583798 -0.000270304228892793 0.000253726217644003 6.92029983581983e-05 0.000352489784529568 0.000406115107988687 0.000421406583929917 -4.37406055815925e-05 -0.00205469359878958 0.000825584132081652 0.00119998866058679 0.00715745672548187 -8.39113329243438e-06 0.00559712920691306 -0.00061360161505042
"106" 0.000121753203108557 0.00012472580154879 -0.000274749306236057 0.000250565865000687 6.47957601091367e-05 0.000354027092287083 0.00040253781646461 0.000426774264749786 -4.65432244395983e-05 -0.00212041482499109 0.00080186074606436 0.00126670555632628 0.00726057476846629 -6.46529731501911e-06 0.00555746538465522 -0.000505665580792904
"107" 0.000113127794470597 0.000129579752585592 -0.0002782611705743 0.000247879154570314 6.09147396194585e-05 0.000355990940720851 0.000399454139202163 0.000432414509609341 -4.94703419321259e-05 -0.00218342197010724 0.000778553851598596 0.00135471139630343 0.00735215715258571 -4.68650053448058e-06 0.00550922591826386 -0.000393342826413061
"108" 0.000105417548393193 0.000134529584826673 -0.000280852846154203 0.000245647599577985 5.75401759838025e-05 0.000358335787285118 0.000396839302361031 0.000438267722825371 -5.25234475602043e-05 -0.0022434221092486 0.000755778545046065 0.0014626673981711 0.00743085616739253 -3.06749822671671e-06 0.00545240450551477 -0.000277185216347978
"109" 9.86248249306361e-05 0.000139526837341072 -0.000282536503401227 0.000243842370702977 5.46498823849116e-05 0.000361003705617259 0.000394658861916921 0.000444277861870283 -5.57072226696318e-05 -0.00230009851028711 0.000733644624343501 0.0015890821892641 0.00749541144520492 -1.61590143259552e-06 0.00538707282776101 -0.000157782228119199
"110" 9.27430068968127e-05 0.000144519898407198 -0.000283334436064018 0.00024243045390499 5.22297480705465e-05 0.000363945147811367 0.000392873157825813 0.000450387247169751 -5.90123370121522e-05 -0.00235311999604823 0.000712249478772506 0.00173232890442551 0.0075446772839006 -3.35404862600168e-07 0.00531338958602189 -3.57803604498801e-05
"111" 8.77525054282641e-05 0.000149459808963879 -0.00028327679910485 0.000241380790393688 5.02493250613325e-05 0.000367105992402779 0.000391444510244505 0.000456545886268953 -6.24304127782101e-05 -0.00240215425036801 0.00069168027117355 0.00189060337087612 0.00757765724503265 7.66776656311447e-07 0.00523158431925044 8.81251717252388e-05
"112" 8.36357764104323e-05 0.000154294903345938 -0.000282390809266757 0.000240658265817955 4.86916618788532e-05 0.000370434369153223 0.000390329744717402 0.000462702118298557 -6.59443800106599e-05 -0.00244684675617534 0.000672011140649909 0.00206194405787604 0.00759350814687281 1.69720871229424e-06 0.005141974862856 0.000213200012709665
"113" 8.0366051011997e-05 0.000158981930353493 -0.000280716479937828 0.000240226529808916 4.7526755713071e-05 0.000373885539574614 0.000389490582967039 0.000468812735655182 -6.95328518852736e-05 -0.0024868512885931 0.000653308816199259 0.00224423314527298 0.00759156818134205 2.45977523488852e-06 0.00504495275907425 0.000338660573969308
"114" 7.79124768297138e-05 0.000163473963940529 -0.000278294098105318 0.000240050069844803 4.6735178383297e-05 0.000377410609414275 0.000388884014237352 0.000474837681246873 -7.31753010609124e-05 -0.00252182600720644 0.000635628002839268 0.00243517450699971 0.00757137398442014 3.05789635858767e-06 0.00494099200876465 0.000463687379079905
"115" 7.62406729330361e-05 0.000167728847267828 -0.000275160976944039 0.000240092486701574 4.62900897105887e-05 0.000380971552224962 0.000388468603385936 0.000480743041497503 -7.68388460226654e-05 -0.00255144318844904 0.00061900928613411 0.00263231723898132 0.00753267699620808 3.5040916937721e-06 0.00483063877562712 0.000587430449466795
"116" 7.53129147784824e-05 0.000171709716944168 -0.000271370762071162 0.000240317901930279 4.61755332785245e-05 0.000384526111381294 0.000388208537890221 0.000486499224964388 -8.04945164868723e-05 -0.00257538294317698 0.000603489434209249 0.00283305481944592 0.00747543592921416 3.81077472810061e-06 0.00471450722795746 0.000709006679044801
"117" 7.50910208657688e-05 0.000175386536263288 -0.000266961746947252 0.000240692857506468 4.63666445014644e-05 0.000388043557210865 0.000388065773212311 0.00049208604128329 -8.41093741758443e-05 -0.0025933495734409 0.000589099668750188 0.00303464191650697 0.00739983924128037 3.99699657294345e-06 0.00459328486217581 0.000827520246047562
"118" 7.55377144345233e-05 0.000178730298191787 -0.000261982584176345 0.000241184118273077 4.6844613861658e-05 0.000391498162947475 0.000388009866354695 0.000497485278616036 -8.76489451958854e-05 -0.00260508224098798 0.000575854274782746 0.00323425382990966 0.00730628321764771 4.0834255301344e-06 0.00446772783021084 0.000942060400812438
"119" 7.66090130020236e-05 0.000181726385694453 -0.000256484248456692 0.000241762394440789 4.75948015226639e-05 0.000394864380842605 0.000388012291256779 0.000502693379602811 -9.10761028842155e-05 -0.00261035516087703 0.000563767891908591 0.0034289745581823 0.0071953810869142 4.08533708202303e-06 0.00433863824850739 0.00105171191819381
"120" 7.82710799258199e-05 0.000184360710467405 -0.000250508894865572 0.000242398662212925 4.85977036468895e-05 0.000398126900110341 0.000388050577087887 0.000507707951346458 -9.43518783680578e-05 -0.00260897781602576 0.000552847801615184 0.00361588159172279 0.00706794236575605 4.03385652222861e-06 0.0042068743541993 0.00115557034595607
"121" 8.04865615238385e-05 0.000186627463605774 -0.000244099463665909 0.000243069414405699 4.98471802382168e-05 0.000401275446617739 0.00038810524861424 0.000512536247611374 -9.74438577131549e-05 -0.00260080705266961 0.000543091890910492 0.00379207648450704 0.00692497646666852 3.94705497698752e-06 0.00407333458599079 0.00125274408519253
"122" 8.32239752072176e-05 0.000188533336008963 -0.00023730392132376 0.000243754943616849 5.13274737121087e-05 0.000404305574192379 0.000388162692901495 0.000517189643136003 -0.000100313595803748 -0.00258574936746152 0.000534496111384815 0.00395476110178979 0.00676764800939479 3.86018382335123e-06 0.00393895305179089 0.00134237704246684
"123" 8.64453832252087e-05 0.00019008863937235 -0.000230161453439687 0.000244438558231285 5.30343170384163e-05 0.000407218126397592 0.000388215448135173 0.000521691813690431 -0.000102929052471352 -0.00256376160139698 0.000527051026191037 0.00410128139950172 0.00659728619036538 3.79045796634226e-06 0.00380468829689458 0.00142364729694649
"124" 9.01300481181883e-05 0.000191313105672302 -0.000222706793308781 0.000245109435751795 5.49609361702917e-05 0.000410021797985375 0.000388259196477125 0.000526069355191798 -0.000105258126180768 -0.0025348526157813 0.000520741839263971 0.00422921152898335 0.0064153375721855 3.77777599722399e-06 0.00367151564639915 0.00149578644686095
"125" 9.42511270806463e-05 0.000192233033577553 -0.000214982318673143 0.000245755367064842 5.71019978851923e-05 0.000412728562477959 0.000388295207695654 0.000530356936157454 -0.00010726921402828 -0.00249909553022561 0.000515554662895038 0.00433640763902979 0.00622335771582915 3.84233469020754e-06 0.00354042596281571 0.00155809137158345
"126" 9.87874144987126e-05 0.000192885799536724 -0.000207009976953963 0.000246376569783197 5.94619673609388e-05 0.000415357157557804 0.000388334832891028 0.000534593891968696 -0.000108937377043522 -0.00245660378008609 0.000511467185712122 0.00442107799550387 0.00602297899563703 4.02301757412968e-06 0.00341240227024745 0.00160992979730652
"127" 0.000103727310625853 0.000193312859197767 -0.00019882596491212 0.000246973955242315 6.203649044653e-05 0.000417929943919476 0.000388385066231287 0.000538824114501089 -0.000110246193946715 -0.0024075578370273 0.000508458872930841 0.00448182212122971 0.00581590948279312 4.33939293912121e-06 0.00328841641903167 0.00165075865766907
"128" 0.000109058350448917 0.000193563565376251 -0.000190453346833825 0.000247550766384943 6.48341954206333e-05 0.000420475887989756 0.000388460424314455 0.000543099754118359 -0.000111176603076355 -0.00235218116628911 0.000506504976604147 0.00451769931444313 0.00560388063760498 4.82289690558692e-06 0.00316943249666718 0.00168012365618033
"129" 0.000114771923196297 0.000193691376730704 -0.000181912006851263 0.000248118940814447 6.7856024636154e-05 0.000423027369946475 0.000388581907624161 0.000547474888599185 -0.000111714733284892 -0.00229075166096371 0.000505580882368795 0.00452825033493144 0.00538865013858193 5.50275080771373e-06 0.003056370792641 0.00169767589196521
"130" 0.000120865660500308 0.000193760033434244 -0.000173222121592223 0.000248691353360322 7.11096017231124e-05 0.000425614597870875 0.000388771125851843 0.000552002462796151 -0.000111859774846642 -0.00222359582350782 0.000505659987231694 0.00451349672057951 0.00517196941891158 6.39892652884738e-06 0.00295012650779961 0.00170317934387883
"131" 0.000127339866048668 0.000193830713684998 -0.000164400301441765 0.000249285544454343 7.46016429678717e-05 0.000428280210505939 0.000389051679446554 0.000556741162905267 -0.000111602998876248 -0.00215108359496036 0.000506710542436426 0.00447396230863807 0.00495556549411289 7.5354460330654e-06 0.00285154564078876 0.0016965136342437
"132" 0.000134200314706567 0.000193974915502854 -0.00015545491536784 0.000249921851642305 7.83432074058063e-05 0.000431060215863379 0.000389445948540971 0.000561752991087689 -0.000110956690399216 -0.0020736161429146 0.000508706444287841 0.00441063797207832 0.00474111552357777 8.93905951679374e-06 0.002761416628825 0.00167768023638735
"133" 0.000141448661655015 0.000194260560471783 -0.000146394384854243 0.000250625967955451 8.23380143839373e-05 0.000433993786668009 0.000389984364974393 0.000567095488949521 -0.000109924253917439 -0.00199164566876238 0.000511617218991824 0.00432495512786954 0.00453025759051864 1.0622427561405e-05 0.00268046956721082 0.0016468059245654
"134" 0.000149093607364026 0.000194761310741484 -0.000137231037337163 0.000251425291228906 8.65995180673183e-05 0.000437121164080216 0.000390684639645846 0.000572827553144102 -0.00010852237239635 -0.0019056337701348 0.000515408461079056 0.00421873219530905 0.00432454243791362 1.26041501651322e-05 0.00260936725847391 0.00160414258810188
"135" 0.000157147627751213 0.000195550001002365 -0.000127962855615943 0.000252347332604742 9.11303165733632e-05 0.000440484321435902 0.000391579297683667 0.000579005218878191 -0.000106770689886723 -0.00181608741917752 0.000520046965292515 0.0040941219607221 0.00412544940831418 1.48882661975868e-05 0.00254868946979666 0.001550055965019
"136" 0.000165621369212801 0.000196700824687631 -0.000118592517632738 0.000253420564786537 9.5939886855176e-05 0.000444115195975791 0.000392678634949322 0.000585681249334491 -0.000104692290671364 -0.00172351606294438 0.000525498738847356 0.00395355944734952 0.00393435377191195 1.74976207604868e-05 0.00249894667397486 0.00148503650890725
"137" 0.000174525402509159 0.000198279120814288 -0.000109126038105728 0.000254679025409889 0.000101032459706597 0.000448054389917059 0.000394007452426851 0.00059290281003469 -0.00010231982271132 -0.00162844815121703 0.000531729185950761 0.00379967820442724 0.00375253472392315 2.04285488312477e-05 0.00246055818361208 0.00140967818767263
"138" 0.000183867588218757 0.000200358162029948 -9.95604323908272e-05 0.000256151199479175 0.000106411151991922 0.000452330000811303 0.000395580209038489 0.000600713700592683 -9.9683514906302e-05 -0.00153142047329005 0.000538697872518057 0.00363524379592601 0.00358116427569144 2.36840018221832e-05 0.00243385360291836 0.00132468632611101
"139" 0.000193656975142415 0.000202997159717042 -8.98928206991652e-05 0.000257868123823433 0.00011207647093766 0.000456971339578306 0.000397403986194562 0.000609148787178018 -9.68204265127471e-05 -0.00143296760519075 0.000546363929484859 0.00346309220194198 0.00342129299181075 2.72592121222096e-05 0.0024190753803071 0.00123086057859581
"140" 0.000203900388672662 0.000206256221931645 -8.01271617208375e-05 0.000259856181576409 0.000118025126462029 0.000461998605061866 0.000399480582924655 0.000618238788827868 -9.37734536837366e-05 -0.00133362115686623 0.00055468878158898 0.00328607902956411 0.0032738456066184 3.1156504926096e-05 0.00241637135229468 0.00112908054724449
"141" 0.000214594461494467 0.000210186480497039 -7.02607169504234e-05 0.000262145611016622 0.000124251681264246 0.000467432861731996 0.000401806139084488 0.000628002608231995 -9.05857118758059e-05 -0.00123390551964705 0.000563620406293111 0.00310700226252302 0.00313961714627214 3.53580878236102e-05 0.00242579551626245 0.00102030773725676
"142" 0.000225744619668287 0.000214835749828339 -6.02944323648227e-05 0.000264756279403405 0.000130745927568313 0.000473280451292258 0.000404371266974901 0.000638451646296245 -8.7302373670616e-05 -0.00113433644017034 0.000573114973559228 0.00292857519310551 0.00301926937602824 3.9854322834218e-05 0.00244730824936345 0.000905568366477358
"143" 0.000237338176709292 0.000220238457745319 -5.02320639029174e-05 0.000267710599912009 0.000137490751078687 0.000479548686717902 0.000407159098038548 0.000649587636417451 -8.39717575658836e-05 -0.00103541524904657 0.000583119911675107 0.0027533865967616 0.0029133235243665 4.4623355090789e-05 0.00248077902549589 0.000785936852696762
"144" 0.000249365537063351 0.000226428689511835 -4.00751926304326e-05 0.000271022139883564 0.000144474263746773 0.000486232617700915 0.000410140413384302 0.000661399021449084 -8.06387400232039e-05 -0.000937608655247209 0.000593581913858797 0.00258386230358751 0.0028221617004967 4.96510947422359e-05 0.00252597833503802 0.000662531786424984
"145" 0.000261803396717035 0.000233421871679933 -2.98326297252263e-05 0.000274702033622723 0.000151664354260184 0.000493323461284619 0.000413283084736184 0.000673867759651064 -7.73588839242112e-05 -0.000841370551240503 0.000604437848554494 0.00242225668823545 0.00274601934949631 5.49067754127783e-05 0.00258258636218313 0.000536494255436791
"146" 0.000274631954221347 0.000241228429640081 -1.95091133472716e-05 0.000278752273745402 0.000159039151871783 0.000500798149662841 0.000416542633721582 0.000686959477293648 -7.41764671532775e-05 -0.000747113990360137 0.00061563155705923 0.00227064358548088 0.0026849779758179 6.03671810112138e-05 0.00265020441516361 0.000408983855481341
"147" 0.000287811059047248 0.000249846865247395 -9.12373776339788e-06 0.000283177036555198 0.000166561330786547 0.000508633943965508 0.000419862407284861 0.000700630504751588 -7.11334543226361e-05 -0.000655237585900624 0.000627096496490018 0.002130871919196 0.00263897571473896 6.59965468956e-05 0.00272834244195906 0.000281165226045713
"148" 0.000301301609564199 0.000259268232979652 1.31689763413668e-06 0.000287963423506683 0.000174191272608918 0.000516791151946266 0.000423189477028449 0.000714823656408744 -6.82787885561291e-05 -0.000566091577522188 0.000638761087881769 0.00200460705707798 0.00260778953498465 7.17624018612185e-05 0.00281643631822679 0.000154192919924139
"149" 0.000315057254618751 0.000269466898815025 1.17895497534611e-05 0.000293100678554277 0.000181888032874416 0.000525227719672621 0.000426443719948719 0.000729471626562763 -6.5655189357717e-05 -0.0004799945858886 0.000650554105195699 0.00189328608484084 0.00259104376612497 7.76311995649928e-05 0.00291385517870689 2.92095288580119e-05
"150" 0.000329011116609002 0.000280407826478625 2.22727821803995e-05 0.000298565362676627 0.00018959953235966 0.000533888865446715 0.00042955562598896 0.000744491154654762 -6.32962259860164e-05 -0.00039722995510607 0.000662398814234869 0.0017981564068121 0.00258820954652592 8.35602200886209e-05 0.00301988109671402 -9.26844480919198e-05
"151" 0.000343106038502664 0.000292047186551647 3.27392952929176e-05 0.000304327940047047 0.000197274417985394 0.000542716688710039 0.000432433892903907 0.000759795089764375 -6.12410572327393e-05 -0.000318036008323892 0.000674218379674369 0.00172026326508901 0.00259859276766461 8.95097001773938e-05 0.00313375468520773 -0.000210413192484588
"152" 0.000357259852324888 0.000304324427041449 4.31630720938374e-05 0.000310354379623266 0.00020485203947168 0.000551640151896713 0.000434986960107424 0.000775276660270808 -5.9518508215856e-05 -0.000242612428888706 0.000685927837910336 0.00166045457867226 0.00262134755792828 9.54425369369345e-05 0.00325463772091244 -0.000322960412193185
"153" 0.000371392418721081 0.000317173995474581 5.35079340111674e-05 0.000316601240008018 0.000212271543457039 0.000560585979923598 0.000437119686453757 0.00079082308212434 -5.81517948026344e-05 -0.000171112411980454 0.000697441214948465 0.00161940101239476 0.00265546801429696 0.000101311007090587 0.00338164739933022 -0.000429357773715792
"154" 0.000385412337749998 0.000330515140312154 6.37393351962803e-05 0.000323016999164489 0.000219463871435644 0.000569468421323044 0.000438723614128139 0.000806311306065174 -5.71649583812401e-05 -0.000103657732176002 0.000708672177884619 0.0015975718125774 0.00269980814462016 0.000107072802560235 0.00351384811248143 -0.000528703055124892
"155" 0.000399224056775072 0.000344261610253562 7.38123988282176e-05 0.000329547512931759 0.000226365351793612 0.000578203035949806 0.000439691229634982 0.000821607929282655 -5.65706473854727e-05 -4.03145034032632e-05 0.000719529048115385 0.00159528459459873 0.00275305962474569 0.000112687183452919 0.00365026166233273 -0.000620157769361195
"156" 0.000412723686687735 0.000358312808213614 8.36893808654119e-05 0.000336129796372974 0.000232899199870852 0.000586692084525499 0.000439913226516852 0.000836574033236239 -5.63830585156499e-05 1.88951211359963e-05 0.000729921609233759 0.00161266077363766 0.00281377447417933 0.000118110031106124 0.00378987576195669 -0.00070296835588899
"157" 0.000425799832805014 0.000372563254625266 9.33188916026556e-05 0.000342693035313937 0.000238994832456322 0.000594840940465974 0.000439279255845239 0.000851065403573321 -5.66072069226115e-05 7.3994047880818e-05 0.000739757288873142 0.00164964785142304 0.00288036836338796 0.000123301307971474 0.00393163943944029 -0.000776453983938988
"158" 0.000438342010589489 0.00038690198042625 0.00010265243170313 0.000349168705357387 0.000244575236308566 0.000602548957437666 0.000437674600662094 0.000864925155584434 -5.72460747080821e-05 0.000125043961649106 0.000748943308761798 0.00170602178300962 0.00295114460269211 0.000128218886061971 0.00407447923638423 -0.000840029465812138
"159" 0.000450237837082973 0.000401208216776929 0.000111641562868765 0.000355473622661746 0.000249567537222805 0.000609709647498045 0.000434994764849606 0.000878005252033004 -5.82946398729127e-05 0.000172156576186934 0.000757387148889649 0.00178138126920631 0.00302429210403053 0.000132827834306785 0.0042173091065612 -0.00089319808601352
"160" 0.000461364767863152 0.000415358658535065 0.000120232682057948 0.000361531943127087 0.000253900070384395 0.000616220959625731 0.000431129492185244 0.000890143391832417 -5.97513058138382e-05 0.000215478480659007 0.000764999635994116 0.00187515607900322 0.00309791572167814 0.000137089600542681 0.00435901154695276 -0.000935556127273001
"161" 0.000471612560894404 0.00042922668069516 0.000128370466859719 0.000367257747997146 0.000257494742027451 0.000621979879333734 0.000425980544431015 0.000901185928285892 -6.16038247990044e-05 0.000255204809370126 0.000771686034203144 0.00198657371413625 0.00317006297144333 0.000140968240072468 0.00449847394641537 -0.000966802852556841
"162" 0.000480861500057782 0.000442686089397482 0.000136001080325699 0.000372568023121157 0.000260289166523304 0.00062688225956324 0.000419456185297295 0.000910977224285941 -6.38402014935546e-05 0.000291556007231518 0.000777369044591653 0.00211469831356417 0.00323871364854366 0.000144436636306324 0.00463458180570721 -0.000986737105048238
"163" 0.00048899774499612 0.000455609177128583 0.0001430689582761 0.000377376306245085 0.000262207303146342 0.000630829068828036 0.000411467441315 0.000919363267926836 -6.64450381770871e-05 0.000324795594192205 0.000781959737035724 0.00225838574037153 0.00330184679159618 0.000147468023433817 0.00476622280859799 -0.00099526204956727
"164" 0.000495919169631094 0.000467865895844907 0.000149521658295566 0.000381600867768318 0.000263193036421089 0.000633725456792182 0.000401942703004648 0.000926199133768401 -6.94023604640421e-05 0.000355222244319614 0.000785383364086496 0.00241632283329287 0.00335744327953605 0.000150035284450995 0.00489229663058296 -0.00099238757474775
"165" 0.000501523867311299 0.000479337579774073 0.000155307045067054 0.000385156185282318 0.000263183458128733 0.00063548291519145 0.000390819125263578 0.000931345725099526 -7.26910155414839e-05 0.000383168424165777 0.000787567230758915 0.00258698695103764 0.00340352433396067 0.000152120133022823 0.00501172570384929 -0.000978228905951773
"166" 0.000505711868084203 0.000489905592299308 0.000160377355607189 0.000387964788675934 0.000262131185536869 0.000636016155103035 0.000378047738283739 0.000934671422848629 -7.6296794002758e-05 0.000408984057927871 0.00078844498295754 0.00276868789873321 0.0034381833752589 0.000153706009598487 0.00512346033587663 -0.000953009245876575
"167" 0.000508402745025535 0.000499457632127204 0.000164685150251518 0.000389950688341879 0.000259988761263012 0.000635251539797502 0.000363597436323695 0.00093605780015221 -8.02004301807014e-05 0.000433050417061062 0.000787957759499865 0.002959550150777 0.00345962697047165 0.000154782889450767 0.00522649343226466 -0.000917060129290209
"168" 0.000509522377950886 0.000507891628594646 0.000168185036984936 0.000391041098585349 0.000256717456188214 0.000633122478942671 0.000347442962361289 0.000935398497822341 -8.43782767440432e-05 0.00045576419664286 0.000786056276985766 0.00315754605723468 0.00346620045074229 0.000155342781496309 0.00531985998488066 -0.000870812275854013
"169" 0.000509010867801268 0.00051511200875181 0.000170840052850051 0.000391175565829159 0.000252289617312339 0.000629573559117285 0.000329585462612858 0.000932597551195281 -8.88140678445854e-05 0.000477552356971717 0.000782699381159356 0.00336050252285976 0.0034564264548641 0.000155386482660817 0.00540265420545583 -0.000814798153843772
"170" 0.000506813188193651 0.000521041152234234 0.000172617294405143 0.000390294997711057 0.000246679896520131 0.000624561347886032 0.000310041958423612 0.000927581193699549 -9.3490671634146e-05 0.000498846691333385 0.000777855831033048 0.00356611831492837 0.00342903305714704 0.000154908419528538 0.00547403390149695 -0.000749648391168365
"171" 0.000502898611068847 0.000525602898259469 0.000173489987507162 0.000388351433249474 0.000239881350041442 0.000618049768548505 0.000288842605116285 0.000920286618017717 -9.83904572402309e-05 0.000520105586353246 0.000771501249287924 0.00377200072246575 0.00338298156394795 0.000153921859202296 0.00553323814126387 -0.000676089424294156
"172" 0.000497246466429943 0.000528741409229831 0.000173435984803863 0.0003853035390713 0.000231888350996201 0.000610024463690182 0.00026604174692217 0.000910674610935547 -0.000103500142952547 0.000541791192725502 0.000763632036319754 0.00397569866576446 0.00331749113391454 0.000152440257654199 0.00557958772293525 -0.000594940426282643
"173" 0.000489854393770536 0.000530414853628535 0.000172439521733495 0.000381119094048725 0.000222709690278714 0.000600474303579811 0.0002417100725823 0.000898721012772835 -0.000108808246917354 0.000564372237987998 0.000754243728368153 0.00417471408182862 0.00323207362964797 0.000150472181991803 0.00561249114861699 -0.000507093667225091
"174" 0.000480729241068249 0.000530593475655965 0.000170493547221506 0.000375784048165079 0.000212366509684106 0.000589405442634987 0.00021593450084364 0.000884422479656881 -0.000114299369709029 0.000588325089223664 0.000743353896641844 0.00436657393956392 0.00312653026902622 0.000148043456615192 0.00563146698080814 -0.000413526968797542
"175" 0.000469901106602749 0.000529261934103009 0.00016759945971099 0.000369284077101328 0.000200883721167571 0.00057684478345537 0.000188820057058727 0.000867798182320327 -0.000119966378651524 0.000614126314537217 0.000730983914615675 0.00454887995321052 0.00300097119155314 0.000145178157415716 0.00563613544457932 -0.000315285969329588
"176" 0.000457416300554726 0.000526421777653151 0.000163765957489979 0.000361623116256365 0.000188300565863237 0.000562823427087584 0.000160491157318348 0.000848886848885179 -0.000125804510108387 0.000642246713018218 0.000717175625709242 0.00471931560489684 0.00285581882806877 0.000141903352223154 0.005626230854241 -0.000213468139161094
"177" 0.000443335476934304 0.000522094092570054 0.000159010281721877 0.000352813488089333 0.000174670495846117 0.000547389236855142 0.000131085990068126 0.000827747525085125 -0.000131804080290595 0.000673156845773583 0.00070197456165692 0.00487572729560436 0.00269178871524286 0.000138256066108476 0.00560161305300765 -0.000109231166205972
"178" 0.000427732266180719 0.000516308496327752 0.000153357737605598 0.00034288344037842 0.000160051109220049 0.000530607899143601 0.000100758207541412 0.000804460458978022 -0.000137960701412145 0.000707319894304276 0.000685443701233636 0.00501615998012584 0.00250989457328488 0.00013427354275366 0.00556226339842448 -3.77029633115503e-06
"179" 0.000410703715626295 0.000509114912910897 0.000146840375266753 0.000331868818963478 0.000144510303446687 0.000512553751566671 6.96786073808702e-05 0.000779125221307738 -0.00014427275154616 0.00074519123723281 0.00066765036081866 0.00513888078626723 0.00231142730498391 0.000129990457546337 0.00550828222567047 0.000101687461968242
"180" 0.000392352989074574 0.000500574442825759 0.000139498359922615 0.000319816452008789 0.00012812814743692 0.000493314649810748 3.80225558488275e-05 0.000751861175589189 -0.000150737833398603 0.000787207546574095 0.000648679018084824 0.00524244895368561 0.00209792086250042 0.000125450501602743 0.00543990017086125 0.000205897443268384
"181" 0.000372801676474811 0.000490766505400027 0.000131384028564772 0.000306789374868366 0.000110995501489412 0.000472992484634238 5.98808749228411e-06 0.000722808774485891 -0.000157358208589984 0.000833791969888223 0.000628621846224858 0.00532570426727466 0.00187113239796583 0.000120700005836536 0.00535746254640677 0.00030760826123455
"182" 0.000352184544990848 0.000479781362019552 0.000122550069729999 0.000292857287026877 9.32024548032965e-05 0.000451699803577927 -2.62319132242245e-05 0.000692120679505394 -0.000164131951121451 0.000885344267067178 0.000607577112589516 0.00538781477486345 0.00163301703370515 0.000115788024465774 0.00526143339044735 0.000405576544024723
"183" 0.000330649125874167 0.000467722530827209 0.00011306738911762 0.000278100271702373 7.48586938669318e-05 0.000429558214642408 -5.84235747370102e-05 0.000659972639508879 -0.000171059995124867 0.000942238789444629 0.000585654659595314 0.00542827759874955 0.00138568198364327 0.000110761270279586 0.00515239302453223 0.000498579081908834
"184" 0.000308346041180151 0.000454702069392132 0.000102998155994926 0.000262609712734878 5.60706180783864e-05 0.000406697373243821 -9.0377468833333e-05 0.000626550087098765 -0.000178141273514059 0.00100482450073136 0.000562967785051529 0.00544692837332857 0.00113136697220718 0.000105669004206589 0.00503102101043692 0.0005854212040984
"185" 0.000285445722408726 0.000440850720134634 9.24271394940532e-05 0.000246485134940859 3.69521630655536e-05 0.000383256189214333 -0.00012188032121249 0.000592050778923787 -0.000185382150120771 0.00107341289987395 0.000539633730686906 0.005443925875265 0.000872398832022956 0.000100564692596999 0.00489810059014182 0.000664958845159803
"186" 0.000262113398860403 0.000426299663162369 8.14293708036746e-05 0.00022983419082975 1.76249507403948e-05 0.000359383010731156 -0.000152708961111846 0.000556688975887467 -0.000192778060415732 0.00114828126631026 0.000515782260804092 0.00541974083899288 0.00061115614442749 9.54943779143263e-05 0.00475449051363656 0.00073610442869319
"187" 0.000238528007110939 0.00041119177561162 7.00945161885026e-05 0.000212768629367252 -1.78850096321284e-06 0.000335224851010349 -0.000182652442420138 0.000520681491847961 -0.000200333216112923 0.00122965887323044 0.000491539326248452 0.00537514194283517 0.000350045250621828 9.05079265965801e-05 0.00460112849437095 0.000797846016894178
"188" 0.000214869343337753 0.000395674847438432 5.85135506449747e-05 0.000195410675376868 -2.11638076229763e-05 0.000310939082877386 -0.0002114967361884 0.000484258711167806 -0.000208049568169255 0.00131772648194338 0.000467032066498423 0.00531116933619638 9.14625433417911e-05 8.56551440204853e-05 0.00443901399353934 0.000849256742794274
"189" 0.000191320124314419 0.000379902599408321 4.67740510235968e-05 0.00017788569874819 -4.03739327629776e-05 0.000286682730621277 -0.000239033111411482 0.000447652185571414 -0.000215928780209801 0.00141261667462947 0.000442391088508003 0.00522909499723534 -0.000162226664127606 8.0982258479193e-05 0.00426918070013714 0.000889504760262492
"190" 0.000168062788870783 0.000364030802237412 3.49738340282279e-05 0.000160319247586119 -5.92957318135922e-05 0.000262611623964322 -0.000265059627850184 0.000411098115008463 -0.000223965277396184 0.00151439380363285 0.000417743859283681 0.005130381848339 -0.000408714229940535 7.65334321149813e-05 0.00409270957740057 0.000917871562996197
"191" 0.000145275644198107 0.000348218051256985 2.32049787306446e-05 0.000142840454650748 -7.78039347937307e-05 0.000238885039307707 -0.000289386660922926 0.000374831640531417 -0.000232163846510714 0.00162306514116533 0.000393216239611003 0.00501667693308497 -0.000645778460125066 7.23471954848547e-05 0.00391069190812712 0.000933750297795608
"192" 0.000123138559692287 0.00033262162309534 1.15624346582861e-05 0.000125582725253724 -9.57760644400457e-05 0.000215658071015356 -0.000311832436712136 0.000339091783092598 -0.00024051783961203 0.00173856458819565 0.000368931687622545 0.00488975245592682 -0.000871290822492107 6.84664777273941e-05 0.0037242263016005 0.000936664617622465
"193" 0.000101822051522861 0.000317396461223938 1.37879357472328e-07 0.000108676529935648 -0.000113095106689099 0.000193085331019442 -0.000332225050528286 0.000304111019137609 -0.000249025685189098 0.00186075356264304 0.000345007174294556 0.00475147486443663 -0.00108323842799273 6.49199023622696e-05 0.00353440572442411 0.000926273181878362
"194" 8.14860717760122e-05 0.000302696800866026 -1.09798511114536e-05 9.22495099269862e-05 -0.000129645942350865 0.000171310307943148 -0.000350413144649422 0.000270114714322834 -0.000257680770560945 0.00198942481027456 0.000321552735406918 0.00460377201681551 -0.00127972959825243 6.17425897224002e-05 0.00334231133516784 0.000902372162776695
"195" 6.22894746755867e-05 0.000288670063381337 -2.16995865718798e-05 7.64279480885406e-05 -0.000145324109698137 0.000150480058759158 -0.000366254184123218 0.000237324410928128 -0.000266477518978804 0.00212429539662953 0.000298671611786879 0.00444862857003149 -0.00145901037508011 5.89543425276127e-05 0.0031489900515428 0.000864905427856246
"196" 4.43754962840032e-05 0.000275456327181228 -3.19479417742798e-05 6.13331420475259e-05 -0.000160031834397533 0.000130726900685841 -0.000379630870827229 0.000205955671480464 -0.000275406411858241 0.00226499689257106 0.000276460893296343 0.00428802585900318 -0.00161947157972989 5.65822485936945e-05 0.00295546096172745 0.000813960097573633
"197" 2.7877595494067e-05 0.000263191445575932 -4.16385002039164e-05 4.70814919331684e-05 -0.000173672305682474 0.000112175183266469 -0.000390437460351801 0.000176205184381675 -0.000284459168574604 0.002411086048237 0.0002550110817532 0.00412393188371186 -0.00175964155899145 5.46390100802622e-05 0.00276269430840351 0.000749765723388246
"198" 1.29105764483483e-05 0.000251998426983841 -5.07108932224187e-05 3.37843440381045e-05 -0.000186163386854031 9.49438383236595e-05 -0.000398592180321887 0.000148266881320114 -0.000293617105460398 0.00256203564628056 0.000234394189879602 0.00395831271239554 -0.0018782135813313 5.31307940165073e-05 0.00257161004840439 0.000672695194964426
"199" -4.24299434108644e-07 0.000241989890560032 -5.90965359665916e-05 2.15397178889944e-05 -0.00019743675414132 7.91403987877098e-05 -0.000404026539747466 0.00012231254424769 -0.000302870341017377 0.00271725226055709 0.00021467976915715 0.00379308192004625 -0.00197403304370799 5.20675751875489e-05 0.00238307309522157 0.000583259193214814
"200" -1.20344513816624e-05 0.000233266966780477 -6.67427715247683e-05 1.04414975308243e-05 -0.000207425571029515 6.48550187579882e-05 -0.000406707459440692 9.85042444424909e-05 -0.000312196921617423 0.00287605941467616 0.000195923916747267 0.00363010549322631 -0.00204609468736153 5.14461855689996e-05 0.00219789387145885 0.000482102266675959
"201" -2.18534823000134e-05 0.000225918337996103 -7.36044553739864e-05 5.76520232171215e-07 -0.00021608226840857 5.21741683529451e-05 -0.000406615108157909 7.69866106687504e-05 -0.000321578124646697 0.00303771691452678 0.000178174069983424 0.00347121430888265 -0.00209356088346669 5.12617324942922e-05 0.0020168206623356 0.000369992818967979
"202" -2.98349570547208e-05 0.00022001836076273 -7.96467436522127e-05 -7.98864917645203e-06 -0.000223367218821867 4.11648792284244e-05 -0.000403750928988263 5.78818238410865e-05 -0.000330987677729547 0.00320141249963714 0.00016146072286149 0.00331817041986285 -0.00211574235948231 5.14984445819119e-05 0.00184053691188311 0.00024782351704392
"203" -3.59433631630877e-05 0.000215625535161533 -8.48404739201062e-05 -1.51897725580023e-05 -0.000229250510918753 3.18823343258006e-05 -0.000398144119801472 4.13032093649212e-05 -0.000340403205312658 0.00336628026829392 0.000145809984992192 0.00317268060837929 -0.00211211446616661 5.2142979305316e-05 0.00166967359210776 0.00011658730079628
"204" -4.01719632684542e-05 0.000212780114040934 -8.91678866076013e-05 -2.09800294706221e-05 -0.00023372124044505 2.43683532664844e-05 -0.000389849537823496 2.73369369960281e-05 -0.00034978944042382 0.00353139755657749 0.000131234053186754 0.00303638786257132 -0.00208230340548489 5.3172986503982e-05 0.00150480049981961 -2.26231433573786e-05
"205" -4.25283658423356e-05 0.000211509494365178 -9.26269510599543e-05 -2.53222325870722e-05 -0.000236775864497062 1.86507453774937e-05 -0.000378941259826607 1.60510349828782e-05 -0.000359115719259938 0.00369580642240034 0.000117729586393377 0.00291087958896886 -0.00202610416060361 5.45570611067804e-05 0.0013464387044189 -0.000168639141711293
"206" -4.30430044384558e-05 0.000211822058155939 -9.52214767740533e-05 -2.81946191807395e-05 -0.000238424710140193 1.47385903116854e-05 -0.000365517471432327 7.49371817518115e-06 -0.000368348751403396 0.00385851568568212 0.00010529009266432 0.00279767874220184 -0.00194347382692545 5.62689571017085e-05 0.00119505500638235 -0.000320215103093738
"207" -4.17694169606968e-05 0.000213709313439635 -9.69607913621843e-05 -2.95893137695698e-05 -0.000238693929614792 1.26319009560771e-05 -0.000349702636272189 1.69295218917688e-06 -0.000377445423398009 0.00401851115201535 9.38977000325051e-05 0.00269823118054828 -0.00183452669654742 5.82675394068966e-05 0.00105106895885096 -0.000476063909942376
"208" -3.87786062222677e-05 0.000217146739684698 -9.78771001214694e-05 -2.95090171090318e-05 -0.000237615619014615 1.231066926199e-05 -0.000331639684708742 -1.34650966474036e-06 -0.000386367158766266 0.00417476372373321 8.35168975832779e-05 0.00261391776211268 -0.00169953723174749 6.05167387238463e-05 0.000914862522225483 -0.000634846705459272
"209" -3.41605943195613e-05 0.000222087143282667 -9.80007881667643e-05 -2.79730822588879e-05 -0.000235240202182955 1.37433405184529e-05 -0.000311492554165297 -1.63548080184292e-06 -0.000395063852087483 0.00432625732339843 7.41137885797113e-05 0.00254603968443053 -0.00153895272972118 6.29730925235949e-05 0.000786769759012636 -0.000795212859310838
"210" -2.80320758673024e-05 0.000228471977809019 -9.73808130491178e-05 -2.50124794672426e-05 -0.000231625790872463 1.68802602405136e-05 -0.000289451736892604 7.85147834249292e-07 -0.000403496827438177 0.00447197191736294 6.56400961574167e-05 0.00249580816642109 -0.00135338646664356 6.558973628377e-05 0.0006671039873728 -0.00095579462001671
"211" -2.05210151589568e-05 0.000236219941103061 -9.60693319059355e-05 -2.06725525091122e-05 -0.000226844056160579 2.16614717315995e-05 -0.000265722317583882 5.86037300621106e-06 -0.00041161668594227 0.00461091567838596 5.80358404574153e-05 0.0024643385602406 -0.00114362082951581 6.83203198100447e-05 0.000556142078008596 -0.00111523019168566
"212" -1.17745630149639e-05 0.000245239435171472 -9.41311971596127e-05 -1.50108190320864e-05 -0.000220975543846546 2.80113495058836e-05 -0.000240525172411114 1.3512956636099e-05 -0.00041936932394145 0.00474211512255323 5.12426804652109e-05 0.00245262510389373 -0.000910603695539721 7.11133452644196e-05 0.000454126472612077 -0.00127218138760954
"213" -1.95787736377367e-06 0.00025541843541551 -9.16346248323882e-05 -8.10063113911363e-06 -0.000214108369021649 3.58403538317817e-05 -0.00021410145774746 2.36452534457508e-05 -0.000426710323030923 0.00486464589725382 4.51894670221703e-05 0.00246153935367825 -0.000655477104964637 7.39204193851897e-05 0.000361284861432385 -0.00142533776844447
"214" 8.74669569103789e-06 0.000266630514871579 -8.8665410188245e-05 -2.0190467781389e-08 -0.000206345103370564 4.50471071453682e-05 -0.000186705157520052 3.61419141816708e-05 -0.000433588770292752 0.0049776200195406 3.98025596417211e-05 0.00249178761051045 -0.00037954724231541 7.66925305587818e-05 0.000277814718254537 -0.00157343558790599
"215" 2.01518803473568e-05 0.000278740405435075 -8.53011639849354e-05 9.13195387534536e-06 -0.000197789747128295 5.55226970801575e-05 -0.000158596076894216 5.08674739894921e-05 -0.000439955680095218 0.00508020263526 3.50029131087854e-05 0.00254391063243699 -8.43053106964711e-05 7.93755206600383e-05 0.000203891014059432 -0.0017152699101366
"216" 3.20518950857916e-05 0.000291595854834401 -8.16355327158105e-05 1.92565016212051e-05 -0.000188558779987431 6.71387756496679e-05 -0.000130049695044277 6.76736495244799e-05 -0.000445761810480722 0.00517161901100672 3.0706567044618e-05 0.00261824169018446 0.000228572287034337 8.19246264142672e-05 0.000139669319687325 -0.00184971037332718
"217" 4.423619547085e-05 0.000305033251562538 -7.77676768662838e-05 3.02394306673624e-05 -0.000178764460953301 7.97677255832615e-05 -0.000101352421439805 8.63871983445553e-05 -0.000450967504550142 0.00525115039582433 2.68325251868925e-05 0.00271487239532712 0.000557215887716994 8.42885204182392e-05 8.528426568485e-05 -0.00197570537795274
"218" 5.64842386332553e-05 0.000318887475495358 -7.3787279226551e-05 4.19596364839831e-05 -0.000168535012800585 9.32680060347814e-05 -7.27790882271687e-05 0.000106829605596849 -0.000455526814844782 0.0053181497066946 2.32950776974666e-05 0.00283363141988223 0.00089957791716507 8.64248666096883e-05 4.08397549186377e-05 -0.00209229309752967
"219" 6.85784488359741e-05 0.000332977792084171 -6.9798174464621e-05 5.42915224874786e-05 -0.000157988788273857 0.000107490677092503 -4.46210907890974e-05 0.000128803506514194 -0.00045940320231013 0.00537204593866677 2.000836885723e-05 0.00297405127842125 0.00125341594931008 8.82882470883998e-05 6.42134811728516e-06 -0.00219860419064416
"220" 8.02916942525668e-05 0.000347123208775499 -6.59045396064479e-05 6.71032008125587e-05 -0.000147257410439309 0.000122285735385445 -1.71549991209217e-05 0.000152101657170329 -0.000462564784919281 0.00541234353211781 1.68900097229117e-05 0.00313534759299296 0.00161630404126614 8.98416705693383e-05 -1.79130615588038e-05 -0.00229388026679466
"221" 9.14046715367511e-05 0.000361140919899132 -6.2199004390509e-05 8.02567485802345e-05 -0.000136464871486925 0.000137492857430389 9.33246441988335e-06 0.000176508407495563 -0.000464988542408122 0.00543862393550929 1.38528552984047e-05 0.00331637020909764 0.00198563149759377 9.10451809544518e-05 -3.21415964866922e-05 -0.00237746761607
"222" 0.000101701490909932 0.000374844619983898 -5.87871136899589e-05 9.36165222862003e-05 -0.000125734439463157 0.000152956105098318 3.45787218637541e-05 0.000201795650463532 -0.00046664767058045 0.00545054419498511 1.08190582025896e-05 0.00351559236755128 0.00235860915209249 9.18713345392413e-05 -3.6283275494622e-05 -0.00244882533594712
"223" 0.000110972482715667 0.000388048482787811 -5.57606630809538e-05 0.000107041043746676 -0.000115189137259638 0.000168512386873261 5.83210917967397e-05 0.000227729982217072 -0.000467533664255869 0.00544784246907382 7.71614177645044e-06 0.00373109881319728 0.00273227313069648 9.22948575710599e-05 -3.03830626704143e-05 -0.00250752796909236
"224" 0.000119016737194217 0.000400575854281632 -5.32117579798887e-05 0.000120394244355259 -0.000104948578690153 0.000184004325808708 8.03164056476877e-05 0.000254078456537356 -0.000467639148716303 0.00543033604758797 4.46502176437144e-06 0.00396056795584481 0.00310350723032793 9.2283984725479e-05 -1.45404067457197e-05 -0.00255327100117358
"225" 0.000125649739697566 0.000412252430291861 -5.12247429852071e-05 0.000133538072193632 -9.51282102675258e-05 0.000199270207778758 0.000100338305078548 0.000280602410188022 -0.000466968140123982 0.00539792200470713 1.00607835541183e-06 0.00420128605625597 0.00346904360442398 9.1830309675136e-05 1.11031028116517e-05 -0.00258586866323561
"226" 0.000130693878679732 0.00042291285902548 -4.98816929908048e-05 0.000146337731297646 -8.58275381245908e-05 0.000214158677638321 0.000118175516687328 0.000307062259532577 -0.000465526460383467 0.0053505784993507 -2.72470904435195e-06 0.00445014730474668 0.00382549197533383 9.09212054772331e-05 4.63518293407327e-05 -0.00260525261757958
"227" 0.000133999965743176 0.00043240273002397 -4.92544309753537e-05 0.000158670517506134 -7.71523058987888e-05 0.000228520525159738 0.000133646139197313 0.000333221776941313 -0.000463340078900629 0.00528836069568137 -6.77740422487739e-06 0.00470370747106492 0.00416936698777098 8.95428783207041e-05 9.09519530379384e-05 -0.00261147757603598
"228" 0.000135431435781312 0.000440582507709306 -4.94085668743792e-05 0.000170410601874745 -6.91953577254424e-05 0.000242214372677569 0.000146586083124003 0.000358847443247451 -0.000460431251892277 0.00521140679794672 -1.12018234300225e-05 0.0049582008061443 0.00449710810081084 8.77014173319357e-05 0.00014459411387746 -0.00260471357264011
"229" 0.000134870716116496 0.000447323623162108 -5.04005809733954e-05 0.00018144464362122 -6.20350273767197e-05 0.000255103545891978 0.000156859047160407 0.000383716655901365 -0.000456837932782484 0.00511993501777363 -1.60331951425197e-05 0.00520962962680683 0.00480513153942592 8.53949344114652e-05 0.000206908486441627 -0.00258524568398028
"230" 0.000132233887504216 0.000452517956579177 -5.22774841668128e-05 0.000191667722467563 -5.57485845621445e-05 0.000267063782164325 0.000164361632627688 0.000407608729792996 -0.000452605306445276 0.00501424661270182 -2.13000064106033e-05 0.00545383201824172 0.00508986863861883 8.2631285699524e-05 0.000277459171686117 -0.00255347351747747
"231" 0.000127451287903242 0.00045607116116694 -5.50747897056253e-05 0.000200982835542037 -5.0394147649481e-05 0.000277982631959765 0.000169014715212187 0.00043032100958003 -0.000447784241481234 0.00489471666159229 -2.70316272156098e-05 0.00568659230746831 0.00534781039492109 7.94271180649319e-05 0.00035575495326526 -0.00250989752501914
"232" 0.000120478108888961 0.00045791156379177 -5.88225919909721e-05 0.000209306176109902 -4.60310907127673e-05 0.000287755835237744 0.000170770529045151 0.000451658336527891 -0.000442436276010546 0.00476180064205409 -3.32316235276128e-05 0.00590373754419106 0.0055755666197089 7.57978938639762e-05 0.000441230537097305 -0.00245512707188489
"233" 0.000111303746493708 0.000457984561848881 -6.35344981515711e-05 0.00021655950914398 -4.26985732863578e-05 0.000296295077864762 0.000169608422070309 0.000471441065866811 -0.000436622391656126 0.00461602357522845 -3.99107858321799e-05 0.00610126665631878 0.00576992769067732 7.17666054463079e-05 0.000533268138471033 -0.00238986411972328
"234" 9.993725416541e-05 0.000456260657834372 -6.92214842888039e-05 0.000222680672313751 -4.0425180173898e-05 0.000303521187257897 0.00016554754363106 0.000489507866188516 -0.000430418926603199 0.00445799412781665 -4.70606911938129e-05 0.00627546967536723 0.00592793086680022 6.73563657228567e-05 0.000631191927755319 -0.00231489701034165
"235" 8.64086698119688e-05 0.00045272909288867 -7.5877430831331e-05 0.000227619991255543 -3.92342478180065e-05 0.000309374418010866 0.000158626422721646 0.000505709759641879 -0.000423901295267317 0.0042883922624752 -5.46669794991404e-05 0.00642302163601341 0.00604692277667069 6.26021578945477e-05 0.00073426859922656 -0.00223109928358121
"236" 7.07827882020731e-05 0.000447395717201382 -8.34876317681336e-05 0.000231334403968943 -3.91317056819429e-05 0.000313805419670631 0.000148922057706203 0.000519925372979787 -0.00041714266420212 0.00410797317176578 -6.27049683061947e-05 0.00654112060296873 0.00612462586865635 5.75329555977738e-05 0.000841721109513619 -0.00213941155972956
"237" 5.31378817372493e-05 0.000440293666204218 -9.20290683905351e-05 0.000233797315393106 -4.01205055285426e-05 0.000316782319359149 0.000136531437824452 0.00053204563929681 -0.000410229753481869 0.00391755515916303 -7.11408851882845e-05 0.00662753754727378 0.00615920431779255 5.21806335758486e-05 0.000952729361117413 -0.00204083628264531
"238" 3.35863721290901e-05 0.000431474638996214 -0.00010146638165466 0.000234993841806939 -4.21853370744972e-05 0.000318285667918745 0.000121584003471951 0.000541983574115101 -0.000403235630596056 0.00371803124512068 -7.99313691239086e-05 0.00668068422940059 0.00614930814592875 4.65917424866204e-05 0.00106644079169283 -0.00193642391903704
"239" 1.22464687271202e-05 0.000421005628236022 -0.00011176340565669 0.000234917483165463 -4.53015656853933e-05 0.000318312620597288 0.000104231464790983 0.000549679390981671 -0.000396246128237044 0.00351036688872044 -8.90226232608957e-05 0.00669967241471772 0.00609413943693807 4.08046507664367e-05 0.00118197699451237 -0.0018272671250683
"240" -1.07278030357679e-05 0.000408975668710865 -0.000122866028135895 0.000233580306947076 -4.94444039610822e-05 0.000316874736410562 8.46490441961996e-05 0.000555088612690442 -0.000389338717649972 0.00329558207857047 -9.83537720914444e-05 0.00668427273908696 0.00599347544359108 3.48533308677242e-05 0.0012984481959097 -0.00171448426902344
"241" -3.51791658493451e-05 0.000395487547704349 -0.000134711720157142 0.000230996796844791 -5.45651049794253e-05 0.000313994847300891 6.30299262582095e-05 0.000558194377972061 -0.000382589502347962 0.00307475957285729 -0.000107859746534266 0.00663494585559171 0.00584769050779973 2.87918361654874e-05 0.00141494836726015 -0.00159920893703997
"242" -6.09308990294538e-05 0.000380659213958013 -0.000147238999449949 0.000227198240156739 -6.06202949361288e-05 0.000309714278032385 3.9590879314088e-05 0.000558997200166697 -0.000376069202125179 0.00284903834700214 -0.000117455380874662 0.00655273861613169 0.00565776146599927 2.2662187569464e-05 0.00153058467092737 -0.00148258327189716
"243" -8.77942762113244e-05 0.000364623922534567 -0.000160371112068197 0.00022222261793806 -6.75470858085806e-05 0.00030408468843018 1.45581759115836e-05 0.000557521732198628 -0.000369845848717074 0.00261960303773179 -0.000127058994610803 0.00643924195375219 0.00542526429790318 1.65046952746637e-05 0.00164446467898976 -0.00136573993432442
"244" -0.000115562655928966 0.00034752368434504 -0.000174032705934812 0.000216118142822598 -7.52831624543659e-05 0.000297166481889249 -1.18281271838267e-05 0.000553810098426727 -0.00036398325603312 0.00238769694789975 -0.000136576712034632 0.00629650924182294 0.00515233401294262 1.03699459108864e-05 0.00175571885671082 -0.00124979044250613
"245" -0.00014403578480537 0.000329509611026172 -0.000188137079768535 0.000208943499221623 -8.37576468820106e-05 0.000289038337039876 -3.93175459438553e-05 0.00054792939178583 -0.000358534208859885 0.00215458146512023 -0.000145911121724753 0.00612692941196661 0.00484164501531777 4.30293186406649e-06 0.00186350777626186 -0.00113581654723979
"246" -0.000172994648552098 0.000310745717216692 -0.000202597833707726 0.000200764321928253 -9.28878190464963e-05 0.000279782427030837 -6.76523647407576e-05 0.00053996515275268 -0.000353550617914564 0.00192156940714483 -0.000154959126979651 0.00593317869753859 0.00449633901041322 -1.65181357547366e-06 0.00196701606414023 -0.00102486306521077
"247" -0.000202222955661984 0.000291394168915725 -0.000217322751920217 0.000191649352197414 -0.000102596759183865 0.000269492218324831 -9.65696258095695e-05 0.000530014395690472 -0.000349075607515751 0.00168997954254039 -0.000163612113421666 0.00571807321147127 0.0041199623287127 -7.45374388637797e-06 0.00206547353084538 -0.000917913292139467
"248" -0.000231503696425465 0.000271625509697214 -0.000232217590998194 0.000181677749408548 -0.000112795400583742 0.00025827015162927 -0.000125808493252415 0.000518195958682379 -0.00034514868616157 0.00146115922378996 -0.000171765147513765 0.00548451731213907 0.00371640161448579 -1.30551093214951e-05 0.00215815797138776 -0.000815892510552982
"249" -0.000260619276562195 0.000251612008001877 -0.000247191973108187 0.00017093580414377 -0.000123391183130001 0.000246226023875881 -0.000155104677920874 0.000504640021903326 -0.000341795489697574 0.00123644926359659 -0.000179307721203435 0.00523541882094555 0.00328979332923078 -1.84234534557354e-05 0.00224439020312498 -0.000719657829774313
"250" -0.000289353919790622 0.000231524355171512 -0.00026214360105133 0.000159507189243259 -0.000134298209537388 0.000233470444250225 -0.000184202711207119 0.000489494298152373 -0.000339050452068579 0.00101719739197463 -0.000186126208312404 0.00497361128431524 0.0028444548942553 -2.3510978491291e-05 0.00232354946060414 -0.000629981644878974
"251" -0.000317500024996172 0.000211533213825002 -0.000276985253691097 0.000147485579674725 -0.000145414548341073 0.000220122707699053 -0.000212848739039849 0.000472911208995453 -0.000336930686044829 0.000804706547933835 -0.000192118349693525 0.00470180116827076 0.00238481468903917 -2.82883798861203e-05 0.00239507073432315 -0.000547551359314272
"252" -0.00034484773575368 0.000191804653020491 -0.000291617738738542 0.000134968432389707 -0.000156652040045911 0.00020630196645425 -0.000240795943723623 0.000455053582786938 -0.000335450788151264 0.0006002620436302 -0.000197175660552595 0.00442253762384918 0.0019153177533494 -3.27198746480948e-05 0.00245844430330449 -0.000472963967965302
"253" -0.000371212358460675 0.000172501357718578 -0.000305953478517096 0.00012204755067939 -0.000167909442219267 0.000192129117864077 -0.000267809530103315 0.000436096073759193 -0.000334630781597587 0.000405086230658613 -0.000201200587617861 0.00413817258185932 0.00144038819552534 -3.6778878456624e-05 0.00251322024322944 -0.00040671817389968
"254" -0.000396397991563182 0.00015377800554832 -0.000319904251082849 0.000108824546351446 -0.000179099749291634 0.000177726696867419 -0.000293668602815484 0.000416213860673161 -0.000334479326601683 0.000220346614992872 -0.000204099390413453 0.00385086312141434 0.000964345375970091 -4.0437368902376e-05 0.00255901621597055 -0.000349210579797759
"255" -0.000420236379616887 0.000135782601800132 -0.000333384591618218 9.53961041872847e-05 -0.000190124090139653 0.000163217091339684 -0.000318159704322148 0.000395588514835198 -0.00033500841247087 4.7110105758443e-05 -0.000205785323073934 0.00356252763480092 0.000491364470179587 -4.36750037597528e-05 0.00259550505183946 -0.000300731087358067
"256" -0.000442565274678277 0.000118653911601631 -0.000346320694825003 8.18588816100632e-05 -0.00020089626057861 0.00014871636968136 -0.000341089210130521 0.000374399441807327 -0.000336220261842156 -0.00011364669671359 -0.000206180629912665 0.00327488450514448 2.5433737152195e-05 -4.64732104084909e-05 0.0026224246741539 -0.000261464023680157
"257" -0.000463235218943206 0.000102522581639134 -0.000358634628218944 6.83083550320042e-05 -0.000211328549184298 0.000134340825547586 -0.000362282004306475 0.000352827517202495 -0.000338129183501212 -0.000261074129268048 -0.000205223230798517 0.00298944241097868 -0.000429681379476852 -4.88151081146352e-05 0.00263957127876958 -0.000231484167147719
"258" -0.000482113125186571 8.7503618019386e-05 -0.000370257079960997 5.48426288214374e-05 -0.000221335870916984 0.000120201285429417 -0.000381572217584096 0.000331053439465774 -0.000340735622586407 -0.000394449298030383 -0.000202854183648318 0.00270750194333837 -0.000870469400989462 -5.06929956986186e-05 0.00264680215903368 -0.000210761733934871
"259" -0.000499084661969264 7.37043473400869e-05 -0.000381134081068389 4.15475626752034e-05 -0.000230846571480745 0.00010640521792077 -0.00039881763825391 0.000309249931328342 -0.000344053341560052 -0.000513202004072294 -0.000199032754959429 0.00243018426056739 -0.00129368248595156 -5.21035627742405e-05 0.00264403630688385 -0.000199155831418631
"260" -0.000514041828027024 6.12163837896689e-05 -0.000391204097990633 2.85163781256755e-05 -0.000239781477261259 9.30528058446908e-05 -0.000413898034528053 0.00028758823976939 -0.000348087449683998 -0.000616920679644057 -0.000193727661947978 0.00215845089033276 -0.00169635639046821 -5.30448901386794e-05 0.00263124951095425 -0.000196423995149188
"261" -0.00052690225164679 5.01209621057882e-05 -0.000400428009121661 1.58306099342718e-05 -0.00024807430919468 8.02347150593355e-05 -0.00042670623995385 0.000266231117386525 -0.000352850712272276 -0.000705353394877573 -0.000186918727137991 0.00189310284681439 -0.00207581519060923 -5.35182411778686e-05 0.00260847589174622 -0.000202218162197844
"262" -0.000537599033694686 4.04809399967972e-05 -0.000408761554154531 3.56576036356113e-06 -0.000255662749241008 6.8037054179384e-05 -0.000437160463548923 0.000245332803663017 -0.000358349580843978 -0.000778433890257583 -0.00017860587542541 0.00163481623456584 -0.00242968224057612 -5.35316945311691e-05 0.00257580560220299 -0.000216095028475245
"263" -0.000546085353925744 3.23471706347656e-05 -0.000416178946118979 -8.19885516010674e-06 -0.0002624915399821 5.65383592054213e-05 -0.00044519975595626 0.000225040546754756 -0.000364602318846608 -0.000836267443937286 -0.000168801048635388 0.00138416541287539 -0.00275586583712351 -5.30987952728572e-05 0.0025333891940881 -0.000237525403411047
"264" -0.000552327264652458 2.57551916363812e-05 -0.000422650858976082 -1.94009455086042e-05 -0.000268512863633636 4.58053426616083e-05 -0.000450785328529062 0.00020548852746789 -0.000371617697879371 -0.00087913587510493 -0.000157525803452484 0.00114163093467899 -0.00305257808500507 -5.22290282248599e-05 0.00248142114750516 -0.000265886881468694
"265" -0.000556314539326731 2.07220868202061e-05 -0.000428165725767343 -2.99751161517827e-05 -0.000273680677773325 3.58975747239359e-05 -0.00045389159043043 0.000186803013229699 -0.000379410392727625 -0.000907501896059663 -0.00014481835432943 0.000907621613179649 -0.00331829633161767 -5.0946058219006e-05 0.00242015819271141 -0.000300489904001107
"266" -0.000558053327571648 1.72559944973425e-05 -0.000432718464537012 -3.98711111193056e-05 -0.000277966370391471 2.68658781483873e-05 -0.000454521237124215 0.000169096839298392 -0.00038800127544499 -0.000921984036247006 -0.000130731287061383 0.000682495253560593 -0.00355179401319131 -4.92679896568298e-05 0.002349906869802 -0.000340570690563939
"267" -0.000557565702231079 1.53445632683535e-05 -0.000436303812593784 -4.9041006356801e-05 -0.000281341710294561 1.87508612937141e-05 -0.00045270139693424 0.000152468843605876 -0.000397402483266664 -0.000923371370973524 -0.000115330675561703 0.000466563548365152 -0.00375209633653447 -4.72219125266944e-05 0.00227102048235504 -0.000385313147501807
"268" -0.000554898951843956 1.49647482656551e-05 -0.000438935627924807 -5.7444655875333e-05 -0.000283787473092571 1.15810188712418e-05 -0.000448469210372115 0.000137011255818995 -0.000407631051533639 -0.000912589334993267 -9.86943127139264e-05 0.000260108756634618 -0.00391849578346619 -4.483388589173e-05 0.00218389879362491 -0.000433843912273928
"269" -0.000550111015931936 1.60744527087475e-05 -0.000440623266382285 -6.50510208615419e-05 -0.000285293098332275 5.37886458864564e-06 -0.000441887149619458 0.000122793897412213 -0.000418705105606345 -0.000890707363610334 -8.09117148843222e-05 6.34027958923663e-05 -0.00405053642300674 -4.2131661925007e-05 0.00208899186127594 -0.00048526119301165
"270" -0.000543276713451171 1.86210297481021e-05 -0.000441395775789325 -7.18404665598358e-05 -0.000285853545701316 1.56986848412361e-07 -0.000433038854285539 0.000109881950907979 -0.000430636076867494 -0.000858904421260651 -6.20828239992169e-05 -0.000123301410302351 -0.00414799425762056 -3.914803515574e-05 0.00198679653363616 -0.00053863059889436
"271" -0.000534498287123144 2.25386541916206e-05 -0.000441275191297655 -7.7795108537173e-05 -0.000285471812622442 -4.08634837169393e-06 -0.000422022014826233 9.83243115520245e-05 -0.000443442260650876 -0.000818457479785892 -4.23196367955054e-05 -0.000299758216742932 -0.00421088115654988 -3.59162293977171e-05 0.00187783683973972 -0.000593009782356545
"272" -0.000523879123975256 2.77473423245931e-05 -0.000440302694018239 -8.29114180144752e-05 -0.000284164605818855 -7.35564795469332e-06 -0.000408953486689683 8.81536046426041e-05 -0.000457135290357992 -0.000770726714770495 -2.17463161349278e-05 -0.00046571947745283 -0.00423942745594788 -3.24669753763194e-05 0.00176269115305266 -0.000647453517407275
"273" -0.000511551576452419 3.41557529185487e-05 -0.000438514739711853 -8.71883503815089e-05 -0.000281945158487153 -9.66438850160594e-06 -0.000393963391679774 7.93962257492064e-05 -0.000471723153214131 -0.000717140110043941 -4.90829162311427e-07 -0.000620927553789203 -0.00423407441832262 -2.88353136840048e-05 0.00164196337319078 -0.000701027155719366
"274" -0.000497646683356523 4.1664285275245e-05 -0.000435961284441472 -9.06380558325137e-05 -0.00027884289979173 -1.10416139629384e-05 -0.00037720139985214 7.206042772973e-05 -0.000487216937594107 -0.000659175323037461 2.13036128359732e-05 -0.000765152894962433 -0.00419547147298369 -2.50589534728842e-05 0.00151628741834819 -0.000752814991610778
"275" -0.000482322838717885 5.01596082018791e-05 -0.000432691096376723 -9.32770246787658e-05 -0.000274891735493219 -1.15172002897991e-05 -0.000358830655667413 6.61429683937724e-05 -0.00050361687787 -0.000598326908600009 4.34908949638149e-05 -0.000898136662675931 -0.00412446607278297 -2.11701006709121e-05 0.00138633025925129 -0.000801940778712449
"276" -0.000465740763776405 5.95271539698584e-05 -0.000428756876876568 -9.51318418397324e-05 -0.000270133879144421 -1.11295216815213e-05 -0.000339019646927172 6.16318888274419e-05 -0.000520921838552334 -0.000536109692187848 6.59212878210073e-05 -0.00101965809901588 -0.00402208943588051 -1.72047053912729e-05 0.00125277296876593 -0.000847566133123707
"277" -0.00044807026971384 6.96365425272724e-05 -0.000424219280205194 -9.62364073380084e-05 -0.000264611383677283 -9.9248628655621e-06 -0.000317953865974295 5.85010456883167e-05 -0.000539125696332251 -0.000474031583619689 8.84344301823638e-05 -0.0011294959990857 -0.00388955282833633 -1.31947946958031e-05 0.00111631754045628 -0.000888911357551427
"278" -0.000429498621279143 8.03609648153383e-05 -0.000419140807496834 -9.66279914825288e-05 -0.000258381273175555 -7.95580099347771e-06 -0.000295820957211368 5.67169419805599e-05 -0.000558219118560205 -0.000413582400382107 0.000110873037423041 -0.00122746311150723 -0.00372824379132161 -9.17514452710145e-06 0.00097768593927794 -0.000925256951860048
"279" -0.000410210912368869 9.15629972275482e-05 -0.000413583525379641 -9.63562269674856e-05 -0.000251497525844012 -5.27769046594975e-06 -0.000272824618110413 5.62314391805031e-05 -0.000578182224064666 -0.000356220389272189 0.000133071730732652 -0.00131339418420605 -0.003539721530414 -5.17413286216095e-06 0.000837602406892251 -0.00095596333649331
"280" -0.000390398544669347 0.000103105407024189 -0.000407609654296329 -9.54718129259588e-05 -0.000244024777069358 -1.95239736567878e-06 -0.000249165277134603 5.69946897658401e-05 -0.000598989350814303 -0.00030335180082419 0.000154866499619023 -0.00138717825005846 -0.00332570464058163 -1.22579165757602e-06 0.000696793425521286 -0.000980461379400073
"281" -0.000370259490009246 0.000114848565555363 -0.000401288293390047 -9.40328094410036e-05 -0.000236029410294494 1.95327526261228e-06 -0.000225053204595411 5.89393471517526e-05 -0.00062061127150486 -0.000256321346056573 0.0001760935443339 -0.00144875117426876 -0.00308806847577314 2.64358393856415e-06 0.000555991402651357 -0.000998270485183808
"282" -0.000349990187310053 0.000126653072375164 -0.000394686571370184 -9.21003127325748e-05 -0.000227581323670968 6.37266046771092e-06 -0.000200691397894629 6.1997369846072e-05 -0.000643002924055605 -0.000216394194807423 0.000196593508960909 -0.00149810517632388 -0.00282884011375848 6.40928743613534e-06 0.000415918738236872 -0.00100899804572296
"283" -0.000329786415872881 0.000138380664469392 -0.000387866521420467 -8.97417304790098e-05 -0.000218755736026061 1.12351912387272e-05 -0.000176290962606175 6.60956834683384e-05 -0.00066611649792236 -0.000184749913608137 0.000216208650474035 -0.00153529680330792 -0.00255019349292722 1.00466548076524e-05 0.000277284455394881 -0.00101234876997539
"284" -0.000309847811887181 0.000149902006470431 -0.000380893419348689 -8.70264393290829e-05 -0.000209625875199742 1.64690861657017e-05 -0.000152057426417962 7.1148177972518e-05 -0.000689892504156433 -0.00016247122128069 0.000234785328419616 -0.00156047297291756 -0.00225442628243847 1.35341032679804e-05 0.000140786695249153 -0.00100811498036321
"285" -0.000290362666807592 0.000161082374813828 -0.000373828747908724 -8.40268404152479e-05 -0.000200268964575899 2.19989830352476e-05 -0.00012819359193175 7.70673383100819e-05 -0.00071425955526136 -0.000150531381728851 0.000252178074295173 -0.00157385404125998 -0.00194397395944865 1.68515594574692e-05 7.09237517964958e-06 -0.000996184881687539
"286" -0.000271513520015472 0.000171798724799388 -0.000366731115872331 -8.08150814267489e-05 -0.000190764745853685 2.77560824504951e-05 -0.000104892042214617 8.37661638109662e-05 -0.000739139941360092 -0.000149776459785022 0.000268248871112815 -0.00157574940799078 -0.00162138814575775 1.99884585626374e-05 -0.000123152377911454 -0.000976550648754371
"287" -0.000253480193486265 0.000181932606784957 -0.000359657913250614 -7.74683251063644e-05 -0.000181190159497511 3.36680521296593e-05 -8.23429818108411e-05 9.11482325705227e-05 -0.000764443432523888 -0.000160927324276826 0.00028286802180178 -0.0015665778435355 -0.00128932300530331 2.29280193872538e-05 -0.000249339370547145 -0.000949281293073664
"288" -0.000236429722380089 0.000191377931704417 -0.000352662646459319 -7.40557934885664e-05 -0.000171621847136167 3.96633795587623e-05 -6.07224123524088e-05 9.91165675030037e-05 -0.000790063572578418 -0.000184560011507046 0.000295919992784942 -0.00154683562159956 -0.000950527574812434 2.56632864491795e-05 -0.000370901291741064 -0.000914548380269053
"289" -0.000220520782662752 0.000200034676227473 -0.000345789228775737 -7.06574428309649e-05 -0.000162137931540427 4.56747024521948e-05 -4.01968051049543e-05 0.000107575679959844 -0.000815891723717635 -0.000221097058767602 0.000307297077850199 -0.00151712588671383 -0.000607825232775963 2.81828890984576e-05 -0.000487318704024137 -0.000872600562743191
"290" -0.000205890017664693 0.000207813008681141 -0.000339079182897382 -6.73422294782029e-05 -0.000152809900381305 5.163739399635e-05 -2.09232555352682e-05 0.000116423511324149 -0.000841795738275673 -0.000270800501817677 0.000316909157407169 -0.00147813851390039 -0.000264096355203422 3.04832330413825e-05 -0.000598118386712803 -0.000823775727867803
"291" -0.000192675397326337 0.000214632292884512 -0.000332572344014347 -6.4180361023875e-05 -0.000143711873357617 5.74891256258037e-05 -3.03989745312487e-06 0.000125566014871955 -0.000867641855078548 -0.000333759014401517 0.000324678427423368 -0.0014306522406022 7.77459957786033e-05 3.25690723918516e-05 -0.000702883580872443 -0.00076847476733919
"292" -0.000180982421459136 0.000220431339815271 -0.000326300352381311 -6.12379894681891e-05 -0.000134907216646403 6.31737889315334e-05 1.33287572105561e-05 0.000134899483469103 -0.000893275480206972 -0.000409878599875987 0.00033054037864027 -0.00137553153724924 0.000414768501365239 3.44366957998115e-05 -0.000801256387564052 -0.000707177017312544
"293" -0.000170916328404199 0.000225152584888851 -0.000320280778428072 -5.85801852806425e-05 -0.000126458888738282 6.86349147558106e-05 2.8072284101628e-05 0.000144331480761069 -0.000918537253585228 -0.000498880263683683 0.000334456875097683 -0.00131370358925879 0.00074407033797917 3.60900789226789e-05 -0.000892937872875969 -0.000640420570987114
"294" -0.00016255143352383 0.000228757187600908 -0.000314536452255612 -5.62667904336598e-05 -0.000118431601578573 7.38263151308459e-05 4.11009509164981e-05 0.000153766874754715 -0.000943251582977686 -0.000600287716954465 0.000336390853760972 -0.00124615256052216 0.00106279079898144 3.75410316482447e-05 -0.000977693023011979 -0.000568797360188393
"295" -0.000155955779816476 0.000231218884816329 -0.00030907533229062 -5.43517858008397e-05 -0.000110873662865846 7.87033166191401e-05 5.23359465714057e-05 0.000163112437200016 -0.000967229295070772 -0.000713426738423623 0.000336341702958112 -0.00117390355477735 0.00136816085759842 3.87974141629561e-05 -0.00105535310748794 -0.000492941843250845
"296" -0.000151169477054252 0.000232523114917765 -0.000303897943366691 -5.28864493831326e-05 -0.000103837893673003 8.32288785496001e-05 6.17209833650891e-05 0.000172278376866408 -0.000990280780880454 -0.000837419339874451 0.000334309540096187 -0.00109799731053475 0.00165752818866712 3.98671456712133e-05 -0.00112581896024108 -0.000413529320834554
"297" -0.000148219507406165 0.00023266790756035 -0.000299009563197928 -5.1914442234261e-05 -9.73658354340751e-05 8.73671292934376e-05 6.92221527892687e-05 0.000181181731853092 -0.00101219653502723 -0.000971181321072803 0.000330321241797797 -0.00101947676237015 0.00192839210470317 4.07646829719242e-05 -0.00118905707764748 -0.000331271286249789
"298" -0.000147115925476109 0.000231669307238882 -0.000294396009803316 -5.14762945139839e-05 -9.14926759395945e-05 9.10924328128808e-05 7.4817126227585e-05 0.000189740852858023 -0.00103276771167748 -0.00111342157852203 0.00032442480195768 -0.000939366302560921 0.00217844841300035 4.15137893117396e-05 -0.00124510392310252 -0.000246892345083091
"299" -0.000147846218668148 0.000229548843637554 -0.00029004109648707 -5.16035239452566e-05 -8.62532105535326e-05 9.43834949685081e-05 7.84990986452518e-05 0.000197877752516072 -0.00105177690019194 -0.00126264695206788 0.000316675855210008 -0.000858660762668476 0.0024056326907126 4.21173430256582e-05 -0.00129405366880422 -0.000161132435186256
"300" -0.000150384470696905 0.000226347090747533 -0.00028592442471386 -5.2327516076999e-05 -8.16713585450375e-05 9.72228176312736e-05 8.02883196156729e-05 0.000205520623033245 -0.00106899524628138 -0.00141716930335137 0.000307159376221035 -0.000778286196817918 0.00260814504785038 4.26011921473006e-05 -0.00133606894125296 -7.47331947779819e-05
"301" -0.000154685508294882 0.000222109590625933 -0.000282022499116611 -5.36656844119232e-05 -7.77637329937486e-05 9.95997975444822e-05 8.02152964821498e-05 0.000212603652898332 -0.00108420150306489 -0.00157511323812433 0.000295964006847963 -0.000699096785508402 0.002784491965698 4.29790603031759e-05 -0.00137136507387612 1.15670274541096e-05
"302" -0.000160688392116325 0.000216895621838416 -0.000278301461547826 -5.56373676539952e-05 -7.45486685294753e-05 0.00010150912365555 7.8322837593823e-05 0.000219065873096946 -0.00109717020734012 -0.00173443159984602 0.00028320395203949 -0.000621852471808061 0.0029335139074374 4.32710563519353e-05 -0.00140021762823076 9.7042702897655e-05
"303" -0.000168315412039397 0.000210775748643402 -0.000274734570229744 -5.82485557266056e-05 -7.20281269214154e-05 0.000102948695558958 7.46790909999312e-05 0.000224850598992365 -0.00110767787654146 -0.0018929328605812 0.000269002487103452 -0.000547209680695889 0.00305440582155544 4.34957007636445e-05 -0.00142295884404168 0.000180990623349208
"304" -0.000177483637574418 0.000203821895694648 -0.000271279151254182 -6.15077050111205e-05 -7.02061624729336e-05 0.000103924531754285 6.93558855832738e-05 0.000229909555506378 -0.00111550691539808 -0.00204830647550316 0.000253496805552574 -0.000475704528011174 0.00314674263653453 4.36664974169447e-05 -0.00143996260299694 0.000262733668961166
"305" -0.000188092046968078 0.00019612214818627 -0.00026789866495262 -6.54108570953378e-05 -6.90775984541757e-05 0.000104442993453096 6.24390168860388e-05 0.000234195980267228 -0.0011204509754804 -0.0021981416191796 0.000236837454023916 -0.000407749384579006 0.00321047986526398 4.38016825713418e-05 -0.00145164239652619 0.000341630484804911
"306" -0.000200027345218718 0.000187762229213719 -0.000264558063621918 -6.9950400303444e-05 -6.8634026294192e-05 0.000104515238882705 5.40322630159384e-05 0.000237676696367765 -0.00112230453360558 -0.00233997209366835 0.000219182113641609 -0.000343612452537599 0.00324595680194628 4.39193075534067e-05 -0.00145845226133398 0.000417077851401684
"307" -0.000213171049498335 0.000178834516972623 -0.00026121469548419 -7.51164094316691e-05 -6.88608541697943e-05 0.000104158350176341 4.4243221643564e-05 0.000240318179141317 -0.00112088490764901 -0.00247132184795427 0.000200698425403142 -0.00028344147523531 0.00325389185003528 4.40282324322664e-05 -0.00146086735747422 0.000488529217825614
"308" -0.000227394321085355 0.000169436715736875 -0.000257832891851332 -8.08890370595155e-05 -6.97354094709425e-05 0.000103390698341703 3.31875300446198e-05 0.000242095288423479 -0.00111602740879823 -0.00258973635715717 0.000181555036928477 -0.000227242753367833 0.00323535801212177 4.41452326888199e-05 -0.00145939907171025 0.000555484226159918
"309" -0.00024256469064406 0.000159663632512098 -0.00025437700776061 -8.72469762177284e-05 -7.12373718760074e-05 0.000102233368540259 2.09865024468411e-05 0.000242989460600437 -0.00110758002374073 -0.00269285656551758 0.000161933291464159 -0.000174901303501067 0.00319175587103826 4.42753062707896e-05 -0.00145456128232115 0.000617503410423451
"310" -0.000258542911919551 0.000149614988571431 -0.000250815387500005 -9.41613983119653e-05 -7.33343697007708e-05 0.00010070843050104 7.77371291777112e-06 0.000242986759863247 -0.00109541494594281 -0.00277844335501444 0.000142003620732393 -0.000126186655224299 0.00312478804121568 4.44294310923487e-05 -0.0014468885683542 0.000674210825712401
"311" -0.00027519090366096 0.000139386875757936 -0.00024711599955612 -0.000101604756242708 -7.60000036970961e-05 9.88419073016383e-05 -6.32230312632873e-06 0.000242080603281496 -0.00107943495537644 -0.00284444498935016 0.000121947911583892 -8.07614537476625e-05 0.00303641206767431 4.46112241218961e-05 -0.00143691181134156 0.000725294080768172
"312" -0.000292364938451096 0.000129072206544203 -0.000243252246928669 -0.000109538713469905 -7.91959114830565e-05 9.66599536638465e-05 -2.11629750901613e-05 0.000240272785059045 -0.00105956540646826 -0.00288903839106383 0.000101940357026133 -3.81848187245178e-05 0.00292879361604883 4.48273944382862e-05 -0.00142516102712521 0.000770507296609629
"313" -0.000309918884023879 0.000118762821514588 -0.000239205846234167 -0.000117927483358476 -8.28842014464514e-05 9.41901635454848e-05 -3.66132808160392e-05 0.000237562940633457 -0.0010357568042804 -0.00291068731262491 8.21481206595623e-05 2.03716152990665e-06 0.00280427199187289 4.50746182284262e-05 -0.00141215140810558 0.000809679619196023
"314" -0.000327716069413389 0.000108546914990799 -0.000234957475174269 -0.000126725095216127 -8.70197282214076e-05 9.1460634253795e-05 -5.25371871877887e-05 0.000233964930975072 -0.00100799945455988 -0.00290816839935795 6.27383756392518e-05 4.05063331036689e-05 0.00266528641286145 4.53525265328801e-05 -0.00139838663080091 0.000842702651398118
"315" -0.000345615765214372 9.85057140578425e-05 -0.000230494338809627 -0.000135887236274692 -9.15630968790965e-05 8.84975128012768e-05 -6.879868556972e-05 0.0002294907339859 -0.000976311702457152 -0.00288060682466904 4.3870753340228e-05 7.7831771402277e-05 0.00251434515607259 4.56563724427696e-05 -0.00138434940276373 0.000869543562978758
"316" -0.00036347779952444 8.87149471588121e-05 -0.000225812627951317 -0.000145366807408208 -9.64657033314415e-05 8.53293985437755e-05 -8.52665997160026e-05 0.00022416592376336 -0.000940747203597123 -0.00282749609266047 2.56901852986307e-05 0.000114674518476958 0.00235397007971294 4.59827376643055e-05 -0.00137048975521639 0.000890239763563211
"317" -0.000381172584871486 7.92442669872953e-05 -0.000220904353972962 -0.000155112127359575 -0.000101682027950049 8.19852614916257e-05 -0.000101804665202602 0.000218011486749732 -0.000901387580036422 -0.00274871706397125 8.33568288490228e-06 0.000151703934097542 0.00218665630571796 4.63181242276229e-05 -0.00135722564054523 0.00090489016413646
"318" -0.000398574939638805 7.01603519150621e-05 -0.000215776092761177 -0.000165073541611293 -0.000107160399946488 7.84883077627669e-05 -0.000118290892343032 0.000211056802551618 -0.000858354601964235 -0.00264452751976774 -8.06675216845013e-06 0.000189580624688967 0.00201482141230973 4.66544319703861e-05 -0.00134493818428431 0.000913670129457865
"319" -0.000415563932548062 6.15168940376303e-05 -0.000210435517433371 -0.000175197133320475 -0.000112848752039304 7.4869000611108e-05 -0.000134607352732558 0.000203337898876914 -0.000811800721261922 -0.00251555247994365 -2.34006784816639e-05 0.00022896934711492 0.00184076145416539 4.69809350834673e-05 -0.00133396759186072 0.000916800640005905
"320" -0.000432025975447232 5.33624014256623e-05 -0.000204887734500936 -0.000185427492858119 -0.000118699944480694 7.1148515542664e-05 -0.000150633081656982 0.000194889014592984 -0.000761907663411999 -0.00236278095735599 -3.75680483688459e-05 0.000270475609605482 0.00166664051919903 4.72847614943942e-05 -0.00132460050710725 0.00091457006841796
"321" -0.000447853216795397 4.57414139211888e-05 -0.000199153421486552 -0.000195709596113756 -0.000124660619231836 6.73491923480083e-05 -0.000166261081288276 0.000185755133556833 -0.000708893295028785 -0.00218751945976767 -5.04795477295028e-05 0.000314670119133795 0.00149443772636052 4.75480104345182e-05 -0.00131708146009172 0.000907318935445974
"322" -0.000462950219598808 3.86895569249105e-05 -0.000193246577110297 -0.000205991779762088 -0.000130680670963728 6.3498630780609e-05 -0.00018138968297572 0.000175976535808345 -0.000653005577519469 -0.001991359057711 -6.2060469121156e-05 0.000362079025900813 0.00132593907983804 4.77545667781751e-05 -0.00131159648425526 0.000895430669838162
"323" -0.000477225123318487 3.22338050288667e-05 -0.000187187046541541 -0.000216219550690649 -0.000136708671718309 5.96121058181752e-05 -0.000195917910324908 0.000165604669529463 -0.000594511578317871 -0.00177614543909104 -7.22506618425302e-05 0.000413153228027342 0.00116270778942122 4.78932066443438e-05 -0.00130827814314047 0.000879333514603409
"324" -0.000490600065656971 2.63923448874294e-05 -0.000180996041023705 -0.000226339236627327 -0.000142696089381563 5.5710738839629e-05 -0.000209762232834882 0.000154684415921276 -0.000533714303830936 -0.00154393833543387 -8.10060861772564e-05 0.000468274911519989 0.00100607962362835 4.79428658555041e-05 -0.00130720162702679 0.000859486992736415
"325" -0.00050299951117086 2.11830389056966e-05 -0.000174697795101787 -0.000236301785910191 -0.000148594881780485 5.18155290330008e-05 -0.000222839500727126 0.000143270221270328 -0.00047093017412281 -0.00129696049336167 -8.82892625260365e-05 0.000527745824682426 0.000857149188683902 4.78888623599166e-05 -0.00130838231610147 0.000836386800751256
"326" -0.000514366798627353 1.6613164348667e-05 -0.00016831446707634 -0.000246055518735124 -0.000154353987989376 4.79375223670006e-05 -0.000235083311316072 0.000131415901182001 -0.000406504939358414 -0.00103757574559246 -9.40887921475393e-05 0.000591777557685328 0.000716757758865749 4.77186068174403e-05 -0.00131177991465717 0.000810546898769758
"327" -0.000524643319883231 1.26832189016734e-05 -0.000161872607242969 -0.000255552724119353 -0.000159932342550425 4.40965202240166e-05 -0.000246421387080579 0.000119177598861173 -0.000340791027190361 -0.000768248919060054 -9.83962784322055e-05 0.00066049890508489 0.000585514229237717 4.74123187441471e-05 -0.00131729807181989 0.000782498162328349
"328" -0.000533787346231065 9.39035385935039e-06 -0.000155394016247067 -0.000264750473361904 -0.000165284023450864 4.03037581509429e-05 -0.000256802957770089 0.00010661137840465 -0.000274163343439141 -0.000491510064717442 -0.00010121997994006 0.000733930990042987 0.000463769108967453 4.69595094092157e-05 -0.00132477797066023 0.000752784092977173
"329" -0.000541767017398761 6.7263023924126e-06 -0.000148899115129827 -0.000273608336692116 -0.000170371312707702 3.65721816593243e-05 -0.000266179922272017 9.3778814667994e-05 -0.000207004806629291 -0.000209933238974119 -0.000102583572327626 0.000812010683842466 0.00035163766949453 4.63478664804519e-05 -0.00133401025629523 0.00072194861478167
"330" -0.000548555891076345 4.67625048699396e-06 -0.000142417528353745 -0.000282080635594394 -0.000175151703135176 3.29113263773716e-05 -0.000274512411642078 8.0734142040613e-05 -0.000139704845226075 7.38941832060337e-05 -0.000102519738105417 0.000894572633181817 0.000249006812206763 4.5565649711689e-05 -0.00134473627631818 0.00069052948673589
"331" -0.000554136924619556 3.22081548272891e-06 -0.000135964131288848 -0.000290136834724878 -0.000179592262516191 2.93317759128593e-05 -0.000281769340386268 6.75429678177293e-05 -7.26552993276019e-05 0.000357385889250371 -0.000101075715733415 0.00098135261456595 0.000155535566792077 4.46079296848372e-05 -0.00135664736429113 0.000659056499936287
"332" -0.000558507577776099 2.34139025776125e-06 -0.000129561897424597 -0.000297741283309536 -0.000183662447057074 2.58442992186545e-05 -0.000287932223623624 5.42625193232868e-05 -6.25532984532111e-06 0.000637973349542194 -9.83119790914239e-05 0.00107199447948546 7.06768763075457e-05 4.34625868772765e-05 -0.00136939313514861 0.000628036575503505
"333" -0.000561668218044019 2.01053658660118e-06 -0.000123229887527372 -0.000304863122822392 -0.000187327887117217 2.24510784335272e-05 -0.000292980597036642 4.09581666997089e-05 5.91055665423369e-05 0.000913114788088892 -9.42975267719293e-05 0.00116604641353496 -6.31064181415313e-06 4.21282902951388e-05 -0.00138258666241154 0.0005979538171238
"334" -0.000563631657335828 2.2004175659263e-06 -0.00011698030871015 -0.000311476388182459 -0.0001905666101903 1.91635567127816e-05 -0.000296910913989022 2.76859144061247e-05 0.000123044545634849 0.00118031483549999 -8.91117333703088e-05 0.00126296620556911 -7.63514435834047e-05 4.06073752747097e-05 -0.00139580356412696 0.000569263731904541
"335" -0.000564412315687736 2.8752180378344e-06 -0.000110828771005801 -0.000317557466524427 -0.000193356752994625 1.59835677517585e-05 -0.000299727292774481 1.45100632844129e-05 0.000185180560669264 0.00143713549307481 -8.28464138886139e-05 0.00136212385413161 -0.000140534531296071 3.88925527019052e-05 -0.00140859955525484 0.000542381911065553
"336" -0.000564039377076205 4.00433339016072e-06 -0.000104788481851821 -0.000323084494496434 -0.000195673594877922 1.29171291592277e-05 -0.000301430621180125 1.48962782085315e-06 0.000245152833080855 0.0016812027157804 -7.56031357565168e-05 0.0014628042589329 -0.000200085785243797 3.69930545299145e-05 -0.00142050428350679 0.000517685356846722
"337" -0.00056254088364243 5.55237687766862e-06 -9.8872410468589e-05 -0.000328041102871075 -0.000197505233300182 9.96792467371766e-06 -0.000302046366570771 -1.13154916934689e-05 0.000302619724621596 0.00191020820088751 -6.7489816513575e-05 0.00156421460735978 -0.000256355774206522 3.4910120521787e-05 -0.00143103857394562 0.000495499197168643
"338" -0.000559961679084415 7.48192748922093e-06 -9.30836443874529e-05 -0.000332410882280889 -0.000198838514753121 7.13792045006922e-06 -0.000301589762868997 -2.38454818683384e-05 0.000357248106535023 0.00212194047653237 -5.86207586606187e-05 0.00166548676021617 -0.00031078983515719 3.26563418627294e-05 -0.00143971964047348 0.000476108570835522
"339" -0.000556344422508696 9.75401226669089e-06 -8.74344893199115e-05 -0.000336182335310625 -0.000199665799149006 4.43160001370133e-06 -0.000300091558355584 -3.6043070544196e-05 0.000408739738189142 0.0023142744017276 -4.91252540790989e-05 0.00176569111456771 -0.00036491189117682 3.02414290247299e-05 -0.0014460578212954 0.000459739517665487
"340" -0.000551735659197291 1.23297662939756e-05 -8.19249678580385e-05 -0.000339348828598062 -0.000199975940332193 1.84498415099571e-06 -0.000297585053328507 -4.7853953683408e-05 0.000456816686068928 0.00248519555364477 -3.91295520106147e-05 0.00186384716684421 -0.000420296753334406 2.76752797039928e-05 -0.00144958341627277 0.000446562274875354
"341" -0.000546190943913619 1.51704656887783e-05 -7.65627495299608e-05 -0.000341899236541843 -0.000199773988132723 -6.15154206231688e-07 -0.000294112807950006 -5.92236863508518e-05 0.000501224075918017 0.00263279998609191 -2.8770519224111e-05 0.00195891743366739 -0.000478540489137714 2.49756753760237e-05 -0.00144984051251924 0.000436690865192196
"342" -0.000539770611313154 1.82359414899385e-05 -7.13485853010765e-05 -0.000343830773686306 -0.000199055893680779 -2.95255163200949e-06 -0.000289712852640837 -7.01011963123461e-05 0.000541743091074282 0.00275533346802871 -1.81917887107468e-05 0.00204983229510349 -0.000541243331147503 2.21586190031154e-05 -0.0014463971235724 0.00043018474494087
"343" -0.000532533440557705 2.14892857856777e-05 -6.62829244935347e-05 -0.000345143972876117 -0.000197824803995806 -5.16453272181398e-06 -0.000284440789770009 -8.04345033000984e-05 0.000578185354611589 0.00285116925356278 -7.53470201431015e-06 0.00213550120840715 -0.000609970804982255 1.92408207175835e-05 -0.00143886240686946 0.000427037320781585
"344" -0.000524542339167398 2.48915239361052e-05 -6.13656097259608e-05 -0.000345835046403458 -0.000196093473551748 -7.25475841944383e-06 -0.000278347635006912 -9.01822018763247e-05 0.000610395431895118 0.00291885852715122 3.05671493665124e-06 0.00221482367003621 -0.00068622868878447 1.62490159368824e-05 -0.00142688199364429 0.000427190883381627
"345" -0.00051586280716145 2.84032164094095e-05 -5.65960903569629e-05 -0.000345907637957819 -0.000193866049905247 -9.22276110558401e-06 -0.000271490161821432 -9.9298923813378e-05 0.00063824989404506 0.00295712075070016 1.34302283297979e-05 0.00228671101731643 -0.000771446434175673 1.31979473752144e-05 -0.00141014653780985 0.000430523725549287
"346" -0.000506565355329685 3.19897346284108e-05 -5.19714945292836e-05 -0.000345367906369765 -0.000191158039531846 -1.1071295607035e-05 -0.000263925974749317 -0.000107745400392843 0.000661669971199731 0.00296487760210157 2.34376759355258e-05 0.00235009614538837 -0.000866940143264338 1.01113156123197e-05 -0.00138841077545417 0.000436866577639146
"347" -0.000496708072815013 3.56170019288329e-05 -4.74891774704538e-05 -0.000344219157976062 -0.00018798683080162 -1.28021170834233e-05 -0.000255719936744289 -0.000115487723988214 0.000680607339712779 0.00294126349464234 3.29373376566925e-05 0.00240395547830238 -0.000973889082284235 7.01610119715905e-06 -0.00136148906846295 0.000445998040227676
"348" -0.00048636572790974 3.92516127496992e-05 -4.31455919801039e-05 -0.000342467281273482 -0.000184366070190228 -1.44181453368085e-05 -0.000246931237146102 -0.000122495177458153 0.000695046230022638 0.00288563612227718 4.17809986394037e-05 0.00244733189762947 -0.00109331507277793 3.93400168370844e-06 -0.00132926207726322 0.000457647639957415
"349" -0.000475599739531286 4.28603870769305e-05 -3.89400579943713e-05 -0.000340125822308382 -0.000180319908371319 -1.59237602513512e-05 -0.000237628954945996 -0.000128739161942681 0.000705022001294202 0.00279760517816178 4.98317944501685e-05 0.00247932847122767 -0.00122606383351356 8.85474717435602e-07 -0.00129167741989537 0.000471513039556953
"350" -0.000464477374819609 4.64187835585045e-05 -3.48634499609038e-05 -0.000337203756457901 -0.000175871380775003 -1.73223198553006e-05 -0.000227875252014298 -0.000134202367344843 0.000710592062914478 0.00267704025617921 5.6951897757108e-05 0.00249915204694915 -0.0013727712070585 -2.101159370811e-06 -0.00124876653548847 0.000487244449660582
"351" -0.000453060418970115 4.98963635843492e-05 -3.09138707190649e-05 -0.000333713840850924 -0.000171038961792358 -1.86181797361873e-05 -0.000217740506762358 -0.000138866680115157 0.00071186279172997 0.00252408889965299 6.30139892971743e-05 0.00250613259039357 -0.00153387271799335 -5.00425651867579e-06 -0.00120062889313702 0.000504475623295541
