"V1" "V2" "V4" "V5" "V7" "V8" "V10" "V11" "V13" "V14" "V15" "V17" "V18" "V20" "V21" "V23"
"1" 0.000155783936834963 0.000241894519494947 0.000239875620645682 0.000415692524890421 7.51501334647948e-05 0.000130226912377964 -0.000208298168374232 -7.25548988342214e-06 4.19414110649258e-05 0.000605957419663424 -0.000118000045724389 -0.000159398367655237 -0.000309032427591786 -7.83579748745511e-05 -3.0342999870439e-05 1.6445937227788e-05
"2" 0.000172388486916437 0.000256106548962499 0.000258523726349062 0.00043929996154101 8.95784155490096e-05 0.000145714116063402 -0.000196802990098451 5.49167834307435e-06 6.14682353536458e-05 0.000638020386368655 -0.000108943603944945 -0.000139307565911286 -0.000302104006312292 -7.54557658427549e-05 -3.22255083977765e-05 3.34322846512806e-05
"3" 0.000190167366232679 0.000271326600210707 0.000278650248058514 0.000464152429159054 0.000105086693154671 0.000162183307252705 -0.000184526298981912 1.87745427844691e-05 8.20575487719565e-05 0.000671294895682 -9.95577300076454e-05 -0.000118333305336219 -0.000294724773398241 -7.22746137880298e-05 -3.38704867247149e-05 5.08442524910926e-05
"4" 0.000208943400166387 0.0002873696511541 0.000300030917385468 0.000490002045535286 0.000121541765181482 0.00017951263077529 -0.000171610578244948 3.24336902120208e-05 0.000103576965046566 0.000705434892924079 -8.9896016867475e-05 -9.65777126124005e-05 -0.000286945044294023 -6.87599498758903e-05 -3.52450795531961e-05 6.85756940758809e-05
"5" 0.000228510244836594 0.000304038371085192 0.000322412426755184 0.000516565884064531 0.000138786597178779 0.000197568190057353 -0.000158216864628317 4.63059985925631e-05 0.000125867715352409 0.000740056951597884 -8.00302774691038e-05 -7.41518766597665e-05 -0.000278834109751094 -6.48656969979551e-05 -3.63121436123174e-05 8.65166640946453e-05
"6" 0.000248657878458867 0.000321121496315484 0.000345529346126886 0.000543560078039854 0.000156655443051365 0.000216202424017007 -0.000144507903008761 6.02260200542242e-05 0.000148770393109806 0.000774744898058637 -7.00202198313599e-05 -5.11697531080771e-05 -0.000270445274378047 -6.0536431123919e-05 -3.70311105041415e-05 0.000104557041650393
"7" 0.000269172946444746 0.000338406522665002 0.000369103030225281 0.000570681823672181 0.000174971617960794 0.000235254532655298 -0.000130645918473478 7.40364860774113e-05 0.000172121529698395 0.000809052589989949 -5.99243120209137e-05 -2.77501789214952e-05 -0.000261830518939829 -5.57108073633185e-05 -3.73543279240643e-05 0.000122587967660826
"8" 0.000289826274760243 0.000355674497223475 0.000392843200979941 0.0005976302199316 0.000193543077852297 0.000254557377257531 -0.000116797298401368 8.75708865711196e-05 0.000195740930070931 0.000842510874308215 -4.98052608897235e-05 -4.02326402951924e-06 -0.000253041856831704 -5.03365714176008e-05 -3.72337725310168e-05 0.000140498861996269
"9" 0.000310389573441899 0.000372706404330927 0.000416456936615891 0.000624104067077324 0.000212178196971027 0.000273928563874639 -0.000103119126214031 0.000100682925414169 0.000219455241022137 0.000874626910689406 -3.97136738940763e-05 1.98843095548472e-05 -0.000244116358295147 -4.43503529825685e-05 -3.66123066408673e-05 0.000158178980206821
"10" 0.000330636907235093 0.000389293715911204 0.000439648577040911 0.000649813450507496 0.000230667489799736 0.000293184101415706 -8.97680332706377e-05 0.000113232251062971 0.000243094717782289 0.000904883953050241 -2.9695486499546e-05 4.38344899039118e-05 -0.000235085540492662 -3.76810955465609e-05 -3.54229941770424e-05 0.000175534210958554
"11" 0.000350339853153702 0.000405231210538612 0.000462129773064615 0.000674477590908676 0.000248797777359792 0.000312123832157209 -7.68959312255673e-05 0.000125086796208359 0.000266486143860122 0.000932772996582169 -1.97926919459852e-05 6.76825445956968e-05 -0.000225973606355371 -3.02664652654607e-05 -3.36005583107302e-05 0.000192459394379413
"12" 0.000369283570729431 0.000420329208210086 0.000483612146922483 0.000697836534630337 0.000266346844268618 0.00033054966301749 -6.46387671884645e-05 0.000136131584767557 0.000289469057464963 0.000957765294910878 -1.00386074650151e-05 9.12851526699463e-05 -0.00021678857544098 -2.2029761328294e-05 -3.10720617845956e-05 0.000208864733456845
"13" 0.000387259669629143 0.000434412122156435 0.000503827929810787 0.000719661938670627 0.000283096071434854 0.000348251050419876 -5.31264668327084e-05 0.000146269388744829 0.000311894820516055 0.000979353721089326 -4.56236899995992e-07 0.000114488825629875 -0.000207537901217112 -1.29007624867487e-05 -2.77549192999302e-05 0.000224661835475458
"14" 0.000404065984623358 0.000447316397896721 0.000522522854197583 0.000739739149753356 0.000298814619059448 0.000365023275806542 -4.24799237288289e-05 0.000155412391073667 0.00033361477914659 0.000997038619456672 8.9341132969338e-06 0.000137134822067334 -0.000198205574720293 -2.80087842753604e-06 -2.35694264268104e-05 0.000239772096701305
"15" 0.000419517709900159 0.000458902347874709 0.000539456335794613 0.00075788828359741 0.000313279923757776 0.000380650638000679 -3.28097399215863e-05 0.000163495826048032 0.000354502925993915 0.00101035998854286 1.81250227661861e-05 0.000159058355263718 -0.000188784113713927 8.33855987572641e-06 -1.84359418377238e-05 0.000254117083099764
"16" 0.000433440924091297 0.000469040052739509 0.000554404242365577 0.000773949962242163 0.000326265822390403 0.000394925994057138 -2.42094778608202e-05 0.000170459558981823 0.000374435978485774 0.00101890005360257 2.71071628772632e-05 0.000180088474504792 -0.00017925527957836 2.05791361858284e-05 -1.22786850400216e-05 0.000267624148021841
"17" 0.000445677962189009 0.000477620263112208 0.000567168226192296 0.000787796504544597 0.000337549806131449 0.000407642121871528 -1.6767772697055e-05 0.000176260931045001 0.000393300953645165 0.0010222915506286 3.58752874739352e-05 0.000200052935508903 -0.000169607133902787 3.39805055875061e-05 -5.03153628533817e-06 0.000280229104498122
"18" 0.000456083223997141 0.000484544667241095 0.000577566832816045 0.000799313019371171 0.000346923847265217 0.000418600361648732 -1.05590331103742e-05 0.000180869698680999 0.000410993831152631 0.00102022696652088 4.4431425862893e-05 0.000218776110381233 -0.000159826323110129 4.858622866266e-05 3.36645180397224e-06 0.000291864838902807
"19" 0.00046452355320699 0.000489723912711557 0.000585431763580037 0.000808394677281873 0.000354188090244435 0.000427608081212507 -5.6628695835487e-06 0.000184254091118726 0.000427413200051608 0.00101249707510663 5.27630259723428e-05 0.000236071776716181 -0.000149920585602912 6.44167023393804e-05 1.29446091829987e-05 0.000302468461102741
"20" 0.000470878974304387 0.000493069242095796 0.000590613647166549 0.000814942892714337 0.000359153442739606 0.000434490140995465 -2.14162037795122e-06 0.000186382135622445 0.000442455847789963 0.000998973306308568 6.08554865548233e-05 0.000251764340341802 -0.000139913236014279 8.14703861363672e-05 2.37122944878317e-05 0.000311969117435262
"21" 0.000475040880099145 0.000494502340264982 0.000592969945902992 0.000818860598563019 0.000361655034589954 0.000439083319971894 -6.10171362932812e-08 0.000187227018483854 0.00045601106295691 0.000979625238901817 6.86882758172073e-05 0.000265672362346696 -0.000129848639910286 9.97187674716264e-05 3.56539742168548e-05 0.000320301004945257
"22" 0.000476909365783974 0.000493934706453322 0.000592378422971312 0.000820027944657315 0.000361548289891486 0.000441243972265056 5.13041694201463e-07 0.000186743888710104 0.000467965057482411 0.000954523619220005 7.62214654051245e-05 0.000277626493796666 -0.000119803513749223 0.000119096628953398 4.87135030345211e-05 0.000327393587505932
"23" 0.000476384847806733 0.000491264794159663 0.000588712413525884 0.000818309352589666 0.000358718765171028 0.000440857658623706 -4.87738783318662e-07 0.000184884901776735 0.000478186514175341 0.000923860166296209 8.34029350246298e-05 0.000287462583544757 -0.000109887308586955 0.000139506307811469 6.28000005100723e-05 0.000333162606951992
"24" 0.000473386572180588 0.000486390734269972 0.000581861561240364 0.000813546449799784 0.000353080054083529 0.000437834861176459 -3.12429044028317e-06 0.000181590946672885 0.000486534984673608 0.000887910301213959 9.01607961903551e-05 0.000295038638047241 -0.000100240426009124 0.000160809207873337 7.77839417640617e-05 0.000337539768223638
"25" 0.000467834850191818 0.000479194091697252 0.000571719142252727 0.000805551915239311 0.000344579453420515 0.000432109783717269 -7.46561007763707e-06 0.000176788695070797 0.000492857675388748 0.000847061236898366 9.64122843381113e-05 0.000300224353210106 -9.10360491108424e-05 0.000182837105743742 9.34982436071607e-05 0.000340437494378297
"26" 0.00045966383621563 0.000469544910943201 0.000558189064110662 0.00079411353576757 0.000333214316113752 0.000423658688794607 -1.35711692142169e-05 0.00017039624108879 0.00049698570557871 0.000801775906088247 0.000102056440866276 0.000302925291619452 -8.24687928349957e-05 0.000205385389523123 0.000109747684843762 0.000341787114851895
"27" 0.000448815965227169 0.000457310052336241 0.000541198006470316 0.000779008739898615 0.000319011028917968 0.000412492888357537 -2.14875302490869e-05 0.000162337797929295 0.000498752242645382 0.000752581083703789 0.000106986575465553 0.000303076400692427 -7.47567712687795e-05 0.000228223006480886 0.00012630947267232 0.000341519831739649
"28" 0.000435253072446058 0.000442355041646356 0.000520685496644656 0.000759999301274425 0.000302044544427949 0.000398660050874799 -3.12524938103934e-05 0.000152531207739688 0.000497979335449841 0.000700058681787266 0.000111084207899057 0.00030064922362723 -6.81203449570426e-05 0.000251098223877365 0.000142940311337306 0.000339584433779895
"29" 0.000418962372240564 0.000424555326602372 0.000496628673029748 0.000736858933622074 0.000282443948699515 0.000382247209368852 -4.28734587697132e-05 0.000140913997936263 0.000494514093280029 0.000644795599329371 0.00011423774622258 0.000295667140438467 -6.27708584839815e-05 0.000273757621135787 0.000159402210780713 0.000335952313955832
"30" 0.000399959484944405 0.000403800672733372 0.000469036418627803 0.000709386278347848 0.000260371230733419 0.000363384436390201 -5.63363348287117e-05 0.000127447508732768 0.000488207653382054 0.000587384163919049 0.000116335799903584 0.000288190990264607 -5.89048618484948e-05 0.000295936629485511 0.000175454687322735 0.000330627429448704
"31" 0.00037828893554933 0.000380006771424545 0.00043796674603952 0.000677413362318625 0.000236044030103944 0.000342231405226432 -7.15800265655009e-05 0.000112119485474053 0.000478942371358063 0.000528394097065265 0.000117288669533865 0.000278339723857675 -5.66836836992807e-05 0.000317389303253269 0.000190875967607264 0.000323632929726611
"32" 0.000354036573605901 0.000353129340121076 0.000403532691204834 0.000640832204702827 0.000209711818721207 0.00031899195735569 -8.85144754251898e-05 9.49562876171698e-05 0.000466632113547252 0.000468334552223135 0.00011701471269355 0.000266275001136448 -5.62278805914015e-05 0.000337874401236566 0.000205473883910037 0.000315046105251539
"33" 0.000327323885129329 0.000323164156312475 0.000365898355371255 0.000599606122345887 0.000181669896899939 0.000293895341053908 -0.000106993087819665 7.60350153560077e-05 0.000451236593375036 0.000407665383946642 0.000115467037867347 0.00025220765242434 -5.76017758229605e-05 0.000357193519403969 0.000219089229542987 0.000304971258870928
"34" 0.000298322060116631 0.00029015438868766 0.000325291815608941 0.000553776235890716 0.000152237342586267 0.000267203900994687 -0.000126835868502289 5.54715288345659e-05 0.000432760562142576 0.000346766483802909 0.000112618738557586 0.000236394396710238 -6.08179976599452e-05 0.000375163941261751 0.000231607278090932 0.000293556470086985
"35" 0.00026724065308369 0.000254204997523858 0.000281995515485997 0.000503475530590438 0.00012176573731608 0.000239199367207316 -0.000147804292471161 3.34389475746405e-05 0.000411253681250336 0.000285922520180392 0.000108476434695561 0.000219124821185006 -6.5818248584187e-05 0.000391639940596035 0.000242951206871515 0.000280984856660609
"36" 0.000234325041477687 0.00021547172326572 0.000236362363915091 0.000448925542492251 9.06135912950113e-05 0.000210178245334027 -0.000169635907373883 1.01543119236575e-05 0.00038681783876223 0.00022534747704592 0.000103071078775723 0.000200717440304047 -7.24965866599263e-05 0.000406508611212287 0.000253095975445641 0.000267473810942177
"37" 0.000199867630713127 0.000174173368868803 0.000188778969195224 0.000390447930968069 5.91598388135281e-05 0.000180447276195555 -0.000192021021295393 -1.4118379669417e-05 0.000359607247838002 0.000165164961572244 9.6474071752614e-05 0.000181513326796801 -8.06857915969965e-05 0.0004196925163798 0.000262051577916836 0.000253265056406907
"38" 0.000164186494998578 0.000130582203061101 0.000139691624449904 0.000328443720779736 2.77766319923259e-05 0.000150324086790474 -0.000214627996044774 -3.90821251776429e-05 0.00032981951058433 0.000105428780614526 8.87720585042838e-05 0.000161867901604619 -9.01694163862681e-05 0.000431146352846626 0.000269871122952011 0.000238622693937024
"39" 0.000127627287865576 8.50256188686497e-05 8.95737744722816e-05 0.000263405402476256 -3.16570534883687e-06 0.000120115213436386 -0.000237106905942596 -6.44010661252056e-05 0.000297694355129489 4.61136169102755e-05 8.0084054870871e-05 0.00014213643633648 -0.000100693419807443 0.000440849235591658 0.000276639833765516 0.000223823354514063
"40" 9.05574269677052e-05 3.78648296226167e-05 3.89255152215624e-05 0.000195882957017561 -3.33183048894056e-05 9.01242334525003e-05 -0.000259096462157151 -8.97277741518947e-05 0.000263507426638201 -1.28292288289161e-05 7.05496437856317e-05 0.000122663683601211 -0.000111973422813808 0.000448807634457563 0.000282464607553767 0.000209132822660245
"41" 5.33574630853748e-05 -1.04806447158016e-05 -1.17289231229074e-05 0.000126497950600668 -6.23464068698175e-05 6.06430310125939e-05 -0.000280237972725611 -0.000114692338650568 0.000227568850552943 -7.15219240247886e-05 6.0321810665418e-05 0.000103789472566432 -0.000123704113047818 0.000455045990091101 0.000287475457046513 0.000194833367740922
"42" 1.64100818650321e-05 -5.95709574216093e-05 -6.18731190048902e-05 5.59115350713265e-05 -8.99456835978677e-05 3.19402092486178e-05 -0.000300178929707389 -0.000138925716296288 0.000190210012737875 -0.000130090404453759 4.95699976869012e-05 8.5823731544572e-05 -0.000135568005448462 0.000459608130247127 0.000291813798440935 0.000181173645679626
"43" -1.98996120912283e-05 -0.000108937178758181 -0.000110985169137818 -1.51795740250005e-05 -0.000115836607846757 4.27359690634946e-06 -0.000318583706340784 -0.000162062006457216 0.000151785482309678 -0.000188673721503365 3.84746402244247e-05 6.90523455616297e-05 -0.000147250155379945 0.000462550852915456 0.000295627275161647 0.000168395738079057
"44" -5.51929822732252e-05 -0.000158100508654973 -0.000158564179900089 -8.60561659950858e-05 -0.000139787469798772 -2.21344828743418e-05 -0.000335146626012566 -0.000183752871566494 0.000112660100143932 -0.000247403000676884 2.72173681193703e-05 5.37251361984257e-05 -0.000158446764421689 0.000463939295693423 0.000299056092263153 0.000156710913140228
"45" -8.91074928708556e-05 -0.000206563879245359 -0.00020412495580092 -0.000155996348468444 -0.000161593570640481 -4.70790100502728e-05 -0.000349583942836592 -0.000203663762972501 7.32058985083136e-05 -0.000306395503505138 1.5982879681949e-05 4.0057573544186e-05 -0.000168869464963289 0.000463845455862193 0.000302239916331662 0.000146296591991839
"46" -0.000121297760765748 -0.000253837172139352 -0.000247213114093479 -0.000224282687950823 -0.000181093018991636 -7.03863071164167e-05 -0.000361653925649073 -0.000221496097918428 3.3799887144499e-05 -0.000365736675726671 4.95711473011382e-06 2.8220438490453e-05 -0.00017824741056728 0.000462350250640566 0.000305302493613967 0.000137302176302247
"47" -0.000151437423444682 -0.000299440024419618 -0.00028741252238928 -0.000290210065508672 -0.000198164698333074 -9.19103094062004e-05 -0.000371153325999205 -0.000236976182260002 -5.1805544413525e-06 -0.000425453265887886 -5.68465011846864e-06 1.8339690946534e-05 -0.000186349668249808 0.000459537692682458 0.000308356413212003 0.000129831591974482
"48" -0.000179234056790377 -0.000342899441730016 -0.000324343944242878 -0.000353111281775723 -0.000212730502849741 -0.000111532326745988 -0.000377924934963482 -0.000249873889049263 -4.33690301629155e-05 -0.000485541505711911 -1.57703250684765e-05 1.0503421312354e-05 -0.000192975231850297 0.000455487347329241 0.000311490151659851 0.000123953186388773
"49" -0.000204420914807707 -0.000383774549590747 -0.000357676773358584 -0.000412348133824665 -0.000224744007966965 -0.000129163116659167 -0.000381854846267791 -0.000260002295379079 -8.04058589707914e-05 -0.000545916700425567 -2.51424051522344e-05 4.74948160778186e-06 -0.000197968534781193 0.000450286638737603 0.000314769613293178 0.000119697467913986
"50" -0.000226762259230882 -0.000421649184494643 -0.000387124240000772 -0.000467331807049378 -0.000234198334670307 -0.000144740001922876 -0.00038286789994326 -0.00026721297685579 -0.000115950430782965 -0.000606430568620513 -3.36555635356663e-05 1.07242204429822e-06 -0.0002012020269458 0.000444021690557949 0.00031824104793526 0.000117054853704221
"51" -0.000246057604418182 -0.000456143513789509 -0.000412447412406131 -0.000517528040529394 -0.000241125925973488 -0.000158227782129886 -0.000380946345279211 -0.000271407281731132 -0.000149679327249986 -0.000666859320384937 -4.11839737499044e-05 -5.7582205840284e-07 -0.000202608053559235 0.000436765019286162 0.000321915504208247 0.00011597760952741
"52" -0.000262150273133363 -0.000486917812653752 -0.000433457964821797 -0.000562458792888611 -0.000245587553095096 -0.000169616141193194 -0.000376110529507962 -0.000272538691882046 -0.000181285131561617 -0.000726903920222371 -4.76180333018798e-05 -2.85870126161254e-07 -0.000202154116932462 0.000428604221767374 0.00032579032884438 0.000116379520719997
"53" -0.000274908306645009 -0.000513687767941154 -0.00045001992487742 -0.00060172200837538 -0.000247667786160111 -0.000178912712480022 -0.000368421112749691 -0.000270603471665167 -0.000210495407826268 -0.000786174550712993 -5.2873275382414e-05 1.81013455086739e-06 -0.000199855558726093 0.000419604269644005 0.000329824153825023 0.000118145419601605
"54" -0.000284244830493291 -0.000536211240380622 -0.000462047841272326 -0.000634979489535669 -0.000247480819866001 -0.000186151685641422 -0.000357987513701491 -0.000265648124669524 -0.000237058904821807 -0.000844207802238351 -5.68868419212507e-05 5.54596925764609e-06 -0.000195776513207431 0.000409837700373873 0.000333950855956112 0.000121127370857455
"55" -0.000290114084581173 -0.000554304649090234 -0.00046950126703553 -0.0006619679525743 -0.000245168613899429 -0.000191385796676528 -0.000344952691989199 -0.00025776333339456 -0.000260761965754196 -0.000900469457454718 -5.96176849242853e-05 1.07204776011989e-05 -0.00019002127507495 0.000399359129790059 0.000338076142467297 0.000125155285822659
"56" -0.000292498287173815 -0.000567840534316156 -0.000472390406579686 -0.000682503836383245 -0.000240876533569559 -0.000194679672981996 -0.000329489978625541 -0.000247086947166315 -0.000281417327603984 -0.000954361574294771 -6.10500912002165e-05 1.71086031524054e-05 -0.000182731855429553 0.000388227965715738 0.000342090381705371 0.000130030206621862
"57" -0.000291425304695704 -0.00057675166952138 -0.000470775991501209 -0.000696479291519183 -0.000234771802860103 -0.000196114829658124 -0.000311809842986293 -0.000233794469805763 -0.000298882700597603 -0.0010052152570045 -6.12031711134005e-05 2.44540526385519e-05 -0.000174089860829951 0.000376484726850365 0.000345849432109475 0.000135546565768276
"58" -0.000286958073827118 -0.000581031474602944 -0.000464759171569637 -0.000703873439378099 -0.000227039188717751 -0.000195788019384876 -0.000292151194062787 -0.000218106232908328 -0.000313051336181436 -0.00105231999355389 -6.01116520264288e-05 3.24873909303736e-05 -0.00016431642982759 0.000364164668523631 0.000349197368793394 0.000141475648685853
"59" -0.000279194046667171 -0.000580733103189647 -0.000454488528746962 -0.000704731190334268 -0.000217858174269992 -0.000193801127860819 -0.000270768261241843 -0.000200271566223039 -0.000323856659877339 -0.00109493948106828 -5.78386619665657e-05 4.09226277361866e-05 -0.000153655018734635 0.00035129485712409 0.000351955972160912 0.000147589509050636
"60" -0.000268259659651857 -0.000575966445486871 -0.000440145274785995 -0.000699185430967845 -0.000207414320190617 -0.000190265156006948 -0.000247941761273449 -0.000180567000667624 -0.000331274976989074 -0.00113231920387552 -5.44736427899476e-05 4.94718373771058e-05 -0.000142370926631829 0.000337893619927287 0.000353944177794184 0.000153651838460582
"61" -0.000254320489717296 -0.0005668948201503 -0.000421952108592867 -0.000687432219532661 -0.000195900004619157 -0.00018529715937808 -0.000223957319435705 -0.000159296979385095 -0.000335321207868652 -0.00116372183599325 -5.01253694459436e-05 5.78465675928006e-05 -0.000130746181203899 0.000323973302664353 0.00035497070849851 0.000159436369506482
"62" -0.000237563349852686 -0.000553737806492735 -0.000400171902463722 -0.000669743084000581 -0.000183495933882375 -0.000179016668894547 -0.000199113014013686 -0.000136784916438854 -0.000336050817144058 -0.00118842506544499 -4.49226550744958e-05 6.57605507555414e-05 -0.000119075300979785 0.000309536148819047 0.00035483999087648 0.000164720793078147
"63" -0.000218209604127154 -0.000536761493563718 -0.000375089820766853 -0.000646455508794974 -0.000170390549624187 -0.000171550082416178 -0.000173715832299108 -0.000113364213546369 -0.000333565477275736 -0.00120576033402826 -3.90107730936063e-05 7.29470617428394e-05 -0.000107653684883875 0.000294581788319458 0.000353368467941727 0.000169291628290774
"64" -0.000196502181015386 -0.000516273019713365 -0.000347025540937584 -0.00061796029650652 -0.000156748462048955 -0.000163018006072818 -0.000148064254457401 -8.93757440053275e-05 -0.000327999340209553 -0.00121513357984914 -3.25484603599335e-05 7.91554561866138e-05 -9.67702379121304e-05 0.000279112092504897 0.000350376852043072 0.000172961787047572
"65" -0.000172700041773346 -0.00049262192218278 -0.000316318234293247 -0.000584705700299949 -0.000142746544382767 -0.000153542022308677 -0.000122459685795536 -6.51629065858653e-05 -0.000319527572614171 -0.00121602813492121 -2.57028355960994e-05 8.41606536214194e-05 -8.67064722091948e-05 0.000263115613558851 0.00034570184432384 0.000175551861584991
"66" -0.000147091660364985 -0.000466181583265328 -0.000283336001445376 -0.000547185449156696 -0.000128531176088827 -0.000143245108436198 -9.7192552108961e-05 -4.10653515437513e-05 -0.000308361122577904 -0.0012080430745989 -1.86501329772382e-05 8.77665429582132e-05 -7.77232892884371e-05 0.000246584831100378 0.00033920261618324 0.00017691808596402
"67" -0.000119968971046123 -0.00043735420574528 -0.000248455550137982 -0.000505922815083357 -0.000114249268094637 -0.000132243095533271 -7.25386160535222e-05 -1.74053568628634e-05 -0.000294737503922182 -0.00119091756611213 -1.15629351322262e-05 8.98196641466989e-05 -7.00516810794931e-05 0.000229523299267479 0.000330769757716017 0.000176935680341667
"68" -9.16424190948056e-05 -0.000406559099627163 -0.000212073204726678 -0.000461484607548471 -0.000100038098576582 -0.000120646282182335 -4.87622545998295e-05 5.49845575318117e-06 -0.000278921023453465 -0.00116449402582833 -4.6201186590169e-06 9.01928618822199e-05 -6.39071072229704e-05 0.00021193147953412 0.000320312039751864 0.000175513914624852
"69" -6.2425136446175e-05 -0.000374230612026374 -0.000174592764258938 -0.000414450693278764 -8.60121835801e-05 -0.000108568072142402 -2.61091316861585e-05 2.73550982090613e-05 -0.000261200538148569 -0.00112879179216281 2.01408325588271e-06 8.88094208098112e-05 -5.94635724132186e-05 0.000193819889854401 0.000307778488935217 0.000172583980086964
"70" -3.2637765049614e-05 -0.000340800393789994 -0.000136420804226534 -0.000365422001478527 -7.22848558192474e-05 -9.61068487268471e-05 -4.80286121455204e-06 4.78953687764241e-05 -0.000241879005104671 -0.00108397195875973 8.18034472890188e-06 8.56306459249697e-05 -5.68536536621877e-05 0.000175204366254337 0.000293149318628304 0.000168113521855029
"71" -2.60587609689096e-06 -0.000306707772419093 -9.79695716858315e-05 -0.000314998989803388 -5.89497381742104e-05 -8.33650799903349e-05 1.49499069243465e-05 6.68717550846062e-05 -0.000221282026860864 -0.00103034135117517 1.37258885383965e-05 8.06559873160318e-05 -5.61840891791612e-05 0.000156113122585422 0.000276440438785845 0.000162093584417963
"72" 2.73544899794276e-05 -0.000272377039680438 -5.96475067657346e-05 -0.000263791964768369 -4.60917458142525e-05 -7.04348256083608e-05 3.29706529968028e-05 8.407028675521e-05 -0.000199730522503495 -0.000968365981801761 1.85235935195328e-05 7.39292224740216e-05 -5.75141918432747e-05 0.00013658390050978 0.000257704232538531 0.000154546294687277
"73" 5.69272514026251e-05 -0.000238230119744761 -2.18490735613161e-05 -0.000212392518623102 -3.37883988329863e-05 -5.74036714837085e-05 4.91041675699926e-05 9.93049480071209e-05 -0.00017756085971885 -0.000898657879253366 2.24517390050381e-05 6.55317267598904e-05 -6.08671975658423e-05 0.000116662398329229 0.000237025549697233 0.000145518151890259
"74" 8.58094419016547e-05 -0.000204659449431956 1.50307304647476e-05 -0.000161380317120556 -2.2100612715708e-05 -4.4353488938779e-05 6.32167860554241e-05 0.000112427074067184 -0.000155091546736462 -0.000821956770364491 2.54171074833303e-05 5.5581210211236e-05 -6.62229148720982e-05 9.64175871419235e-05 0.00021452979181288 0.000135083214456351
"75" 0.000113706860213988 -0.000172040923467607 5.06226261296955e-05 -0.000111314711739078 -1.10831245892592e-05 -3.1364739806517e-05 7.52082627311592e-05 0.000123314597144422 -0.000132648277708809 -0.000739130836518211 2.73378857721586e-05 4.42228143130047e-05 -7.35295141173791e-05 7.59217178343356e-05 0.000190364454860333 0.000123333241869345
"76" 0.000140343821495066 -0.000140725129112043 8.45724550878931e-05 -6.27211048950476e-05 -7.81501269350318e-07 -1.85127962695608e-05 8.49914776233289e-05 0.000131877845921815 -0.000110542640351706 -0.000651152601611277 2.8159060970883e-05 3.16307631570999e-05 -8.27031739302927e-05 5.52557579849609e-05 0.00016471156337971 0.000110380818105607
"77" 0.000165460866342081 -0.000111026578102274 0.000116549666633515 -1.60904452226873e-05 8.76546331711262e-06 -5.8651758959063e-06 9.25152342155184e-05 0.000138070456978956 -8.90585712094588e-05 -0.000559077916715706 2.7847816010207e-05 1.80043728920798e-05 -9.36172096307572e-05 3.45211918809911e-05 0.000137775295293775 9.63553997215212e-05
"78" 0.000188818847731292 -8.32295662595091e-05 0.000146246840424472 2.81301773292496e-05 1.75242651603874e-05 6.51146901944741e-06 9.77461255295335e-05 0.000141866058447467 -6.84733555618097e-05 -0.000464041142975554 2.63870009320893e-05 3.55257500430527e-06 -0.00010612810918078 1.38225588444586e-05 0.000109782980796658 8.13940411596386e-05
"79" 0.00021020384051208 -5.75788416847909e-05 0.000173398864267744 6.95418738293779e-05 2.54682035242021e-05 1.85500087049283e-05 0.000100682253182724 0.000143277287051291 -4.90347864945581e-05 -0.000367215035596381 2.37844610871591e-05 -1.15005624197197e-05 -0.000120063445562392 -6.72455606312418e-06 8.09790524387486e-05 6.56543677097947e-05
"80" 0.000229429181843697 -3.42794211417868e-05 0.000197761252021589 0.000107797944872602 3.25711817817029e-05 3.01896882003759e-05 0.000101334777942785 0.000142348447864129 -3.09553173721891e-05 -0.000269810296580427 2.00685729623312e-05 -2.69262048186746e-05 -0.000135227039412882 -2.69963695068251e-05 5.16185725090104e-05 4.92870062823162e-05
"81" 0.000246335400819749 -1.34882027727278e-05 0.000219143964915964 0.00014261735366845 3.88192717252287e-05 4.13720018703112e-05 9.97521105575229e-05 0.000139155701149677 -1.44279203785549e-05 -0.000173044747569664 1.52915204739647e-05 -4.24930475706438e-05 -0.000151401763291096 -4.6860528132712e-05 2.19767818762463e-05 3.24612462840667e-05
"82" 0.000260792665740316 4.67107026685481e-06 0.000237379635239578 0.000173772176867719 4.41912080170808e-05 5.20364370540087e-05 9.59908833044615e-05 0.00013379701518074 3.97015381325592e-07 -7.81127669021875e-05 9.51509012698478e-06 -5.79782731560906e-05 -0.000168364145520455 -6.61873139832898e-05 -7.67707131586302e-06 1.53385362936203e-05
"83" 0.000272704350463748 2.01316822357058e-05 0.000252357626358887 0.000201110675474931 4.86782825177208e-05 6.21303322891464e-05 9.01456397042982e-05 0.000126410715532967 1.33959425925778e-05 1.37972648681763e-05 2.82849260446747e-06 -7.31645288845649e-05 -0.000185872329708789 -8.48333001726901e-05 -3.70567272211467e-05 -1.91006277120912e-06
"84" 0.000282009800103108 3.28614866772047e-05 0.000264004134937767 0.000224544526390607 5.22675715505035e-05 7.15977405140267e-05 8.23183147548894e-05 0.000117145163978222 2.44883256804266e-05 0.00010158062717959 -4.66984875170847e-06 -8.78534160812267e-05 -0.000203680320433507 -0.000102669369605356 -6.58913113378598e-05 -1.91229328219715e-05
"85" 0.000288678180734067 4.28867709246961e-05 0.000272297768468492 0.000244057112917764 5.49471279340394e-05 8.03848897097963e-05 7.26391499080502e-05 0.000106186837660908 3.36241253569968e-05 0.000184165404296298 -1.28637429756305e-05 -0.000101854110094108 -0.000221530519511179 -0.000119551845435853 -9.3897416810982e-05 -3.61361788096693e-05
"86" 0.000292715338519312 5.02674305710043e-05 0.000277256896937924 0.00025969925046837 5.67151538755377e-05 8.84467604804822e-05 6.12523294496292e-05 9.37379455393232e-05 4.07904319454437e-05 0.000260590452067372 -2.16296822282498e-05 -0.000115004194948524 -0.000239169652061197 -0.000135350021843702 -0.000120808205071213 -5.27868082083591e-05
"87" 0.00029416255071682 5.51043591606969e-05 0.000278955106045574 0.000271588557579221 5.75690968543236e-05 9.57327592920569e-05 4.83249905585856e-05 8.0016648098111e-05 4.60131732195693e-05 0.000329979075557205 -3.08285759163336e-05 -0.000127158639019344 -0.000256342497976072 -0.000149937175955702 -0.000146367652805113 -6.89244418009237e-05
"88" 0.00029308613290458 5.75443664108498e-05 0.000277500662767964 0.0002799009070362 5.75048291593594e-05 0.000102204280932595 3.40341675137195e-05 6.52584758539268e-05 4.93441676219706e-05 0.000391568792042182 -4.03237182550809e-05 -0.000138193051207741 -0.000272807580348501 -0.000163193207260457 -0.00017032986583046 -8.4395164126861e-05
"89" 0.00028959433861023 5.77618621890499e-05 0.000273041725293858 0.000284867628085755 5.65334935843481e-05 0.000107819344059855 1.85649494358917e-05 4.97073136787702e-05 5.08629019033933e-05 0.000444720087327336 -4.9970823810906e-05 -0.000148013141527412 -0.000288331117870434 -0.000175014204868931 -0.000192470043268738 -9.9061647085889e-05
"90" 0.00028380948386862 5.5955404098434e-05 0.000265768579905763 0.000286771655006916 5.46635299629317e-05 0.000112549275263521 2.11923674183601e-06 3.36130081562984e-05 5.06791621607552e-05 0.000488921293690749 -5.96277009768526e-05 -0.000156542711716549 -0.000302690784125993 -0.00018530442820239 -0.000212583688832414 -0.000112792249633685
"91" 0.000275891820209688 5.23568481081455e-05 0.00025589893371296 0.000285925188584208 5.19179485659472e-05 0.000116371870276872 -1.50976009198114e-05 1.72279628126063e-05 4.89191277724052e-05 0.000523796203705634 -6.91525514333699e-05 -0.000163727799551221 -0.000315683989946783 -0.000193991936830536 -0.000230486669350402 -0.000125456845880011
"92" 0.000266007170288307 4.71954361615672e-05 0.000243677495427251 0.000282663601273251 4.83185848354522e-05 0.000119271178149885 -3.28876075082557e-05 7.88642415934057e-07 4.57185703673056e-05 0.0005491333812765 -7.84169383921985e-05 -0.000169539733696318 -0.000327140879375928 -0.000201017913545692 -0.000246036923523061 -0.000136949810973494
"93" 0.000254343803110546 4.07168712453074e-05 0.000229363023974832 0.000277339465519784 4.39026477889656e-05 0.000121243537700853 -5.10526696641154e-05 -1.54707256555844e-05 4.12306979554511e-05 0.000564850615279521 -8.73003073939383e-05 -0.000173969230785425 -0.000336921877735452 -0.000206357178889568 -0.000259118054635627 -0.000147172031786593
"94" 0.000241098852412183 3.31678470278744e-05 0.00021322883295563 0.000270302930429024 3.87233325973247e-05 0.00012229601398242 -6.93955330216072e-05 -3.13371514961032e-05 3.56021196582208e-05 0.000571012756532625 -9.56984298744782e-05 -0.000177019020452152 -0.000344910748485527 -0.000209996107757597 -0.00026965026156974 -0.000156033468353096
"95" 0.000226478021943454 2.47789320936549e-05 0.000195550742889415 0.00026189117339022 3.2832017803707e-05 0.000122449172714937 -8.77389317010788e-05 -4.6616653763533e-05 2.8992043254923e-05 0.000567838400194799 -0.000103517580462958 -0.000178710159428678 -0.000351035161019383 -0.000211954219184127 -0.000277589745659543 -0.000163466115125965
"96" 0.000210678791483574 1.57720868670992e-05 0.000176607091681382 0.000252421601789036 2.63111324246922e-05 0.000121740577196611 -0.000105912225319312 -6.11414311937865e-05 2.15457285032593e-05 0.000555666148233492 -0.000110687861071238 -0.000179066332449271 -0.000355257405161881 -0.000212274324373877 -0.000282935144288544 -0.000169412291137134
"97" 0.000193909991640491 6.35147990053352e-06 0.000156663775933938 0.000242183643769354 1.92380734286838e-05 0.000120219148466986 -0.000123762678030173 -7.47712833149554e-05 1.34008094103801e-05 0.000534981621615788 -0.00011715175314137 -0.000178127398882504 -0.000357573152677294 -0.000211024702258832 -0.000285716925156655 -0.000173824899615826
"98" 0.000176360984773185 -3.30182092240142e-06 0.000135983453448794 0.000231430625586151 1.1720501321912e-05 0.000117951509011591 -0.000141152166746903 -8.73966856021429e-05 4.69144703825609e-06 0.000506366483125539 -0.000122871326189777 -0.000175928306291745 -0.00035801992571179 -0.000208294300788118 -0.000286006797382647 -0.000176673278615184
"99" 0.000158229497561162 -1.30245127019635e-05 0.000114816334270911 0.000220389081207888 3.8693849888749e-06 0.000115020306330962 -0.000157958931386416 -9.89239448343434e-05 -4.45454735730267e-06 0.000470495292889398 -0.0001278219339291 -0.000172500077081401 -0.000356651947278529 -0.00020418636616808 -0.000283898430648075 -0.00017793128326208
"100" 0.000139699753606343 -2.2678221996199e-05 9.33988873796747e-05 0.000209250222570541 -4.1787691689576e-06 0.000111525774501532 -0.000174067703879033 -0.000109289418316632 -1.39226767537838e-05 0.000428126422173205 -0.000131989146376334 -0.000167873775911709 -0.000353554230810178 -0.000198820763305743 -0.000279510755415366 -0.000177587690861516
"101" 0.000120949980928582 -3.21392051957661e-05 7.19646137380139e-05 0.00019817434764259 -1.22828954094611e-05 0.000107581115217172 -0.000189380754282399 -0.000118450256092377 -2.35922461577537e-05 0.000380070230871892 -0.000135373222691076 -0.000162066078596436 -0.000348823565182025 -0.000192324466815141 -0.000272984528458284 -0.000175624417446022
"102" 0.000102152869742609 -4.13033656389048e-05 5.07272482698221e-05 0.000187300019163182 -2.02853240800019e-05 0.00010331210238395 -0.000203806436565174 -0.000126373846159939 -3.33540912903354e-05 0.000327176094033329 -0.000137979169663389 -0.000155087667378274 -0.00034256871382763 -0.000184821217362203 -0.000264466630521795 -0.000172034206602148
"103" 8.34827116389199e-05 -5.00755148157211e-05 2.99048715956971e-05 0.000176753808782809 -2.80171977786719e-05 9.8862010573138e-05 -0.000217248348667528 -0.000133041123321609 -4.30870722633001e-05 0.000270297960832853 -0.000139806590301707 -0.000146931820134517 -0.00033489475067811 -0.000176433880002526 -0.000254108825081667 -0.000166804506618929
"104" 6.51036164088612e-05 -5.83654175881018e-05 9.70430622919424e-06 0.000166653080540206 -3.53068699949775e-05 9.43806715726455e-05 -0.000229627400327732 -0.000138437494273538 -5.26662163609105e-05 0.000210311608055237 -0.000140865927547049 -0.000137584999302786 -0.000325905403607628 -0.000167277894592463 -0.000242063580508507 -0.000159922274847772
"105" 4.71771449460854e-05 -6.60907879777644e-05 -9.67252360017662e-06 0.000157106134498174 -4.19720462884067e-05 9.00218451680129e-05 -0.000240854927680489 -0.000142554120105467 -6.19678578808381e-05 0.000148056182093685 -0.000141160161343609 -0.000127020177334505 -0.000315694604049527 -0.000157457959571979 -0.000228471336867003 -0.000151365876324927
"106" 2.9872378053665e-05 -7.31705931437033e-05 -2.80179733844307e-05 0.000148237264125208 -4.78318472321554e-05 8.59495124332489e-05 -0.000250846204061897 -0.000145379482313079 -7.08467627941778e-05 8.43505568081987e-05 -0.000140683258750665 -0.000115198974372703 -0.000304340603445091 -0.000147060122864885 -0.000213463662076112 -0.000141116202962471
"107" 1.33488874789408e-05 -7.95141256826659e-05 -4.51278464995941e-05 0.000140172507853545 -5.27018949163335e-05 8.23273661164296e-05 -0.000259509270458015 -0.000146899163282176 -7.91566008041797e-05 1.99679792644674e-05 -0.000139428891715655 -0.000102075645739595 -0.000291898495802465 -0.000136156991404066 -0.000197157115761963 -0.000129145812561048
"108" -2.23319237115116e-06 -8.5035954006003e-05 -6.08086037462562e-05 0.000133047510650354 -5.64118908021232e-05 7.93162314857096e-05 -0.00026675989759048 -0.000147098402510363 -8.67360333099042e-05 -4.43467155861276e-05 -0.000137380417252269 -8.76032592317343e-05 -0.00027842282985761 -0.000124799296379807 -0.000179653573875093 -0.00011542934849581
"109" -1.67171905662983e-05 -8.96396353911324e-05 -7.48564699690674e-05 0.000127017875367147 -5.8792397965716e-05 7.7068258921533e-05 -0.000272510681477777 -0.000145958146405673 -9.34202288065971e-05 -0.000107909289685806 -0.000134516859636349 -7.17344950973005e-05 -0.000263934346159904 -0.000113025616513684 -0.000161041836724185 -9.99374947615595e-05
"110" -2.99515483509933e-05 -9.32306522512057e-05 -8.70854244900695e-05 0.000122245727335199 -5.96865945199667e-05 7.57351901506146e-05 -0.000276673449819693 -0.000143458990776625 -9.90330963733713e-05 -0.000170080645088576 -0.000130814555775228 -5.44228493552466e-05 -0.000248451647062689 -0.000100855013265557 -0.000141390508101169 -8.26429418801e-05
"111" -4.17896669900213e-05 -9.5712442579386e-05 -9.73168460166445e-05 0.000118888149750158 -5.89605206014443e-05 7.54489117438995e-05 -0.000279179465143975 -0.000139587364337604 -0.000103401292293858 -0.000230262289031833 -0.000126242778724809 -3.56353790593191e-05 -0.00023198125038829 -8.83015336627225e-05 -0.000120766212947658 -6.35342180413237e-05
"112" -5.21007224121668e-05 -9.6985484842215e-05 -0.000105379508517118 0.00011712737793768 -5.64932118909397e-05 7.63351599173061e-05 -0.000279954809100394 -0.000134328950844396 -0.000106346327366077 -0.000287906665600533 -0.000120772594308315 -1.53439890219555e-05 -0.000214525355452901 -7.53609107866013e-05 -9.92210995821255e-05 -4.25976829902633e-05
"113" -6.07595787922297e-05 -9.69568080917094e-05 -0.000111121094645855 0.000117127512975485 -5.21884702459907e-05 7.8498631226651e-05 -0.000278943904163108 -0.000127677553726884 -0.000107699676954115 -0.00034251169005007 -0.000114374392421874 6.46328250022416e-06 -0.000196076071752618 -6.20239792988797e-05 -7.68010084615509e-05 -1.98363609200481e-05
"114" -6.76596821549103e-05 -9.55426380665722e-05 -0.000114414229000336 0.000119055000210817 -4.5964195670905e-05 8.20281983324484e-05 -0.000276111197097499 -0.000119639213309739 -0.000107297138376433 -0.000393603954034156 -0.000107020229820157 2.97772054394614e-05 -0.000176637805742212 -4.82749118239652e-05 -5.35506937737597e-05 4.73304554287496e-06
"115" -7.27090139912193e-05 -9.26589432014646e-05 -0.000115145614409557 0.000123060557074285 -3.77737808444687e-05 8.69974929818374e-05 -0.000271424585682924 -0.000110224486789976 -0.000104984961108818 -0.000440763044012712 -9.86905365196248e-05 5.45786482913326e-05 -0.000156213909205489 -3.40975719151901e-05 -2.95125526923039e-05 3.10780089091888e-05
"116" -7.58367587707315e-05 -8.82399435841422e-05 -0.000113233332711167 0.000129286491104491 -2.75867593721358e-05 9.34535900650888e-05 -0.000264885472683917 -9.94668048095645e-05 -0.000100627299920131 -0.000483601448829785 -8.93634717160879e-05 8.08237544601853e-05 -0.000134812465631553 -1.9471193821373e-05 -4.72769587702675e-06 5.91490485129408e-05
"117" -7.69924633281174e-05 -8.22426439615413e-05 -0.000108624433993476 0.00013783890051044 -1.54017764107284e-05 0.000101430870703024 -0.000256507873616346 -8.74101872645018e-05 -9.41063286271426e-05 -0.00052175273135067 -7.90361122436895e-05 0.000108447854807782 -0.000112466544219534 -4.37953158643643e-06 2.07501250658725e-05 8.88788792207655e-05
"118" -7.614707731316e-05 -7.46242294849828e-05 -0.000101293801732347 0.000148811798148135 -1.2409218752521e-06 0.00011093709536896 -0.000246324455770809 -7.41149645964453e-05 -8.53188821618977e-05 -0.000554902064276092 -6.77072961368237e-05 0.000137370714221918 -8.92031290572051e-05 1.11965474643884e-05 4.6871710392224e-05 0.000120179310705445
"119" -7.32914497573304e-05 -6.53750513177563e-05 -9.12453771666973e-05 0.000162266156730629 1.48442031736158e-05 0.000121966165103606 -0.000234396274904695 -5.96594599545039e-05 -7.41909570505019e-05 -0.00058276123241738 -5.5385517724297e-05 0.000167489354721671 -6.50747915367103e-05 2.72650498643778e-05 7.35796898426404e-05 0.000152942683767456
"120" -6.84489050995202e-05 -5.45016342899769e-05 -7.85213055496765e-05 0.000178225136620593 3.27867592316223e-05 0.000134489652986337 -0.000220804144516928 -4.41436712317678e-05 -6.06717348909704e-05 -0.000605084933660872 -4.20939715795827e-05 0.000198683412797057 -4.01452248045476e-05 4.38304703759871e-05 0.000100806976249764 0.000187048048921042
"121" -6.16576530674233e-05 -4.20258606083468e-05 -6.31941175300028e-05 0.000196686073719591 5.24907599886486e-05 0.000148458052882947 -0.000205644746883029 -2.767534460995e-05 -4.47366062592973e-05 -0.00062166597037061 -2.78599898077133e-05 0.000230822603227223 -1.44896003550468e-05 6.08978650594694e-05 0.000128487766092994 0.000222356120187645
"122" -5.29777866325795e-05 -2.79981627223028e-05 -4.53563410463515e-05 0.000217612418384092 7.38473274492428e-05 0.000163809684662268 -0.000189030109207742 -1.03816651300753e-05 -2.6383072535203e-05 -0.000632347707721747 -1.27264799535582e-05 0.000263758754955894 1.18026986265937e-05 7.84627985007284e-05 0.000156549164006425 0.000258714555270107
"123" -4.24956656446612e-05 -1.24887343293002e-05 -2.51502008137404e-05 0.000240925167539294 9.67185326297377e-05 0.000180462039166274 -0.000171103284981004 7.59725867958233e-06 -5.64583938556095e-06 -0.000637010417440469 3.2548286430757e-06 0.000297332228530361 3.86337024567523e-05 9.65159348645385e-05 0.000184912866964968 0.000295951576149855
"124" -3.03219632803401e-05 4.41419333601318e-06 -2.7327939536832e-06 0.000266514240160309 0.000120954168729034 0.00019831932491886 -0.00015201382870295 2.61078558089861e-05 1.74161651020351e-05 -0.000635590332553133 2.0022974043298e-05 0.00033137463787559 6.58935145344189e-05 0.000115037647410313 0.000213497832891345 0.00033389008231862
"125" -1.65780159272671e-05 2.25994373345692e-05 2.17071696500849e-05 0.00029423822526534 0.000146394148577532 0.000217273037484556 -0.00013192241177845 4.49915559879288e-05 4.27235620667729e-05 -0.000628078901154497 3.75083694897204e-05 0.000365715063510322 9.34693420906482e-05 0.000134011760989375 0.000242224214298908 0.000372345488813303
"126" -1.40974741532003e-06 4.19400636448706e-05 4.79563954940105e-05 0.00032392382891721 0.00017285491426313 0.000237197503326433 -0.000111002400991353 6.40777611857644e-05 7.01612180438365e-05 -0.000614527090410806 5.56334173538063e-05 0.000400174465254532 0.000121235111978093 0.000153410582924245 0.000271008354624178 0.000411125137918322
"127" 1.50214397225208e-05 6.22924389579196e-05 7.57809992655006e-05 0.000355364178334199 0.000200151330237734 0.000257959759319905 -8.9438756953074e-05 8.31940075808639e-05 9.95910272305038e-05 -0.000595030796075747 7.43137672828464e-05 0.000434574444201477 0.000149069312499016 0.00017320407951139 0.000299771914583536 0.000450031320687955
"128" 3.25454773389909e-05 8.34980175919752e-05 0.000104930175394365 0.000388332211138025 0.000228078852450949 0.000279415870174871 -6.74169995529659e-05 0.000102168871067733 0.000130853875376446 -0.000569777807359055 9.34596670979066e-05 0.000468737575928977 0.00017684820856853 0.000193358031392326 0.00032843882233436 0.000488863020198187
"129" 5.09754100788494e-05 0.000105386547182048 0.000135128890140319 0.000422572734313582 0.000256436021153035 0.000301410148116516 -4.51347524904358e-05 0.000120825451709528 0.000163761989775211 -0.000538981872645501 0.000112974382724762 0.000502484567589302 0.000204443766500976 0.000213833362441761 0.00035693283127816 0.000527422750505123
"130" 7.01133944113849e-05 0.000127777132897227 0.000166095482334713 0.000457811228731854 0.00028500727348186 0.000323786630429921 -2.27811978839188e-05 0.000138992116209678 0.000198110813438006 -0.000502944406180014 0.00013275836115579 0.000535647652577894 0.000231738418069694 0.000234591423583773 0.000385185940176028 0.000565517670229694
"131" 8.97660101262856e-05 0.000150485303763436 0.000197543023100639 0.000493763791161051 0.000313582473800746 0.000346379903873862 -5.45796468275588e-07 0.000156507873614932 0.000233678767192341 -0.000462026246435278 0.000152714643605146 0.000568063251149913 0.000258615994487892 0.00025558727078196 0.000413139265792027 0.000602952617274117
"132" 0.000109717179782037 0.000173312750440601 0.000229165629460307 0.000530121913660345 0.000341938908742757 0.000369017857908176 2.13799245466371e-05 0.00017320772064997 0.000270221390965844 -0.000416621225585951 0.000172730216706441 0.000599565263173251 0.00028496297543247 0.000276771437831811 0.00044072659842872 0.000639539208053796
"133" 0.000129762806299619 0.000196067664371883 0.000260668007714709 0.000566577346774942 0.000369860736609031 0.00039152652678145 4.28115851118754e-05 0.000188945296202415 0.000307486489887085 -0.000367203981867048 0.000192707883017397 0.000630004450520396 0.000310674418337162 0.000298094748940281 0.000467902045471254 0.000675097775956705
"134" 0.000149695134035973 0.000218557022098633 0.000291750175104569 0.000602819301960709 0.000397132155049839 0.000413737306019603 6.35719301360367e-05 0.000203583308576849 0.00034521088684855 -0.000314282291201256 0.000212539295589998 0.000659238344018215 0.000335655423054109 0.000319507647711958 0.000494618444149992 0.000709457780228133
"135" 0.000169307527751107 0.00024058217226859 0.000322116263708429 0.000638534138313876 0.00042354144750128 0.000435469718442161 8.34993143879632e-05 0.000216993398275846 0.000383118100575424 -0.000258412190521835 0.000232125892672146 0.000687131727688094 0.00035982098824839 0.000340954174071572 0.000520835573032956 0.000742453090830742
"136" 0.000188400118229265 0.000261964354984106 0.000351476121441733 0.000673408856856765 0.000448879685011808 0.00045655375542982 0.000102434031575155 0.000229064267847942 0.000420935996753028 -0.000200183270991243 0.00025136169314495 0.00071355536430007 0.000383089307711005 0.000362380805022833 0.00054652016161293 0.000773929799714652
"137" 0.000206774009297519 0.000282512454459545 0.000379554690596067 0.000707141039213569 0.000472948475423812 0.000476815962971491 0.000120223886482074 0.000239698042900605 0.000458376659608165 -0.000140204544772927 0.000270151310620427 0.000738390462880081 0.000405384762657997 0.000383725578566808 0.000571638133382908 0.000803746592974296
"138" 0.000224246346069614 0.000302057866081699 0.000406080437316828 0.000739433969939099 0.000495549845598434 0.000496088553839652 0.000136739522581567 0.000248807426234552 0.00049516483404068 -7.91103241703553e-05 0.000288396766835454 0.000761523908173078 0.000426647678816138 0.000404928340683762 0.000596160965379068 0.000831763848640217
"139" 0.000240642783820115 0.000320439091282501 0.000430812143172424 0.000770018594909868 0.000516504064813543 0.000514211920534407 0.000151861259517544 0.000256326261291262 0.00053102038545311 -1.7540814425017e-05 0.000306004326794591 0.0007828556284812 0.000446820152849593 0.000425926501973362 0.000620067469360018 0.000857867427245922
"140" 0.000255796940989538 0.000337499886843992 0.000453514999299325 0.000798620931199946 0.000535631250332601 0.000531026934626285 0.00016547508060088 0.000262198104371728 0.000565671885386002 4.38721190115681e-05 0.000322887255157153 0.000802287780227132 0.000465848060215445 0.000446651583088167 0.000643328355434682 0.000881937000252342
"141" 0.000269557416191717 0.000353101725348452 0.000473975845090441 0.00082500332721856 0.000552773571295608 0.000546383481793658 0.000177491264662568 0.000266386732741107 0.000598857013314434 0.000104489792868797 0.00033895939388013 0.000819735361252206 0.000483689565330741 0.000467037242840957 0.000665921834122959 0.000903878240215346
"142" 0.000281791044120809 0.000367120277103219 0.000492009822691984 0.000848939390110505 0.000567781676589108 0.000560147014702933 0.000187826795661594 0.000268864227620036 0.000630323904711918 0.000163720392815471 0.000354136815144368 0.000835111328569612 0.000500304068739614 0.00048700980121891 0.000687819210505899 0.000923599717520286
"143" 0.00029237722526789 0.000379440461055744 0.000507445855890628 0.000870228585515716 0.000580522803702829 0.000572181796896101 0.000196413916026069 0.000269619143050191 0.000659830534964891 0.000220979186852513 0.000368345135914197 0.000848345767028848 0.000515657802975136 0.00050649340796977 0.000708993529163771 0.000941024856203838
"144" 0.000301210280084753 0.000389964030357071 0.000520144173365032 0.000888689497091325 0.000590875067552235 0.000582372958678341 0.000203202132654821 0.000268652334694086 0.000687150180975931 0.000275729441751634 0.000381509845507003 0.000859367224897969 0.000529712842354096 0.000525404821033308 0.00072940987285864 0.000956081683143594
"145" 0.000308202774509888 0.000398611261723907 0.000529989585487857 0.000904168701568877 0.000598737613255352 0.000590613674401178 0.000208151617633676 0.000265977915528538 0.000712074384233064 0.000327473139976054 0.000393561338764009 0.000868120733123194 0.000542438787931642 0.000543662404234661 0.000749032523375398 0.000968717717649974
"146" 0.000313285893285736 0.000405308605887593 0.000536888094201106 0.000916536128059084 0.00060402801188368 0.000596812054309094 0.000211238040037354 0.000261621883837664 0.000734413398634968 0.000375772343419877 0.000404435826054227 0.000874551131884122 0.000553806851218374 0.000561185683304548 0.000767820497383419 0.000978890107503544
"147" 0.000316404931850072 0.000410006635834249 0.000540777086192908 0.000925687072819087 0.000606682383926739 0.000600891714429819 0.000212449565045312 0.000255617132838224 0.000753994750332961 0.000420234642874334 0.000414073401507867 0.000878614723769749 0.000563787500347133 0.000577879404088792 0.000785723814108826 0.000986565689601192
"148" 0.000317526985674614 0.00041266499871915 0.000541615279190303 0.000931542305025343 0.000606651444291402 0.000602787252977938 0.000211786764975892 0.000248010228696481 0.0007706660744832 0.000460534482536742 0.000422420655013072 0.000880278495644333 0.000572354011397411 0.000593656667324988 0.000802692948883666 0.00099172124934431
"149" 0.000316630123512802 0.000413260183242741 0.000539389779333012 0.000934042112735028 0.000603914211237664 0.000602456576600236 0.000209263736577033 0.00023885399044801 0.000784293666862289 0.000496405537117538 0.000429422569307597 0.000879515455268006 0.000579476637508917 0.000608418028774804 0.000818668754106513 0.0009943508659992
"150" 0.00031371844247661 0.000411780738430982 0.000534110602566187 0.000933156698561138 0.000598464668776141 0.000599871503194806 0.000204907085278266 0.000228208606875473 0.000794782176615606 0.000527650339732561 0.000435039914339476 0.000876314101216359 0.00058513189103183 0.00062207749439644 0.000833588658976157 0.000994456515556449
"151" 0.000308808840600226 0.000408232498076778 0.000525818567882107 0.000928879061283303 0.000590316800911153 0.000595021414064826 0.000198758199035463 0.000216144323439484 0.000802037303793694 0.000554122124447719 0.000439232481250596 0.000870671533684502 0.000589297597234071 0.000634535705471832 0.000847389855649484 0.000992059394700419
"152" 0.000301928180187049 0.00040263387612546 0.000514566863377277 0.000921225764109027 0.000579514030126651 0.000587912987735164 0.000190862736607776 0.000202735641800674 0.000806003068189536 0.00057575718727982 0.000441963700707807 0.000862595561566157 0.000591951328622741 0.000645700592631146 0.000859999410281967 0.000987184802815702
"153" 0.000293135929610169 0.000395019745620628 0.000500446147301154 0.000910242650638061 0.000566115643332542 0.000578577532415196 0.000181292603981701 0.000188072435213662 0.000806650387245392 0.000592516372811293 0.000443214818920321 0.00085211785048246 0.000593083883531566 0.000655490824005943 0.000871358443752496 0.000979884038064498
"154" 0.000282491077489047 0.000385431450718196 0.000483559332710743 0.0008959840587747 0.000550198460351318 0.000567054007539051 0.000170120957545491 0.000172236339445019 0.000803966772726242 0.000604451677217503 0.000442964671445524 0.000839276456426803 0.000592678800571637 0.000663815136991543 0.000881393391291157 0.000970210765539227
"155" 0.000270077526770984 0.000373938605969574 0.000464035633347054 0.000878545336239757 0.000531871187418391 0.00055340736656839 0.000157437656904431 0.000155331794095654 0.000797968707287192 0.000611635135774493 0.000441207451585734 0.000824128712469833 0.000590736626257351 0.000670604170259745 0.000890049074479174 0.000958245423197873
"156" 0.000255990770391864 0.000360609590134299 0.00044202001453155 0.000858032542547372 0.000511249365521819 0.000537718302820411 0.000143337002103198 0.000137459179189087 0.000788699042233111 0.000614212168201981 0.000437937531215424 0.000806744037565168 0.000587261048812574 0.000675779594272608 0.000897258503664334 0.00094407039362008
"157" 0.000240336122949597 0.000345532597536167 0.000417680182702008 0.000834572674933545 0.000488472776417113 0.00052008474740258 0.00012793046752582 0.00011872515887256 0.000776224593922541 0.000612346938231615 0.000433169899670246 0.000787212750232051 0.000582268412798654 0.000679284860469123 0.000902970801285671 0.00092779208115383
"158" 0.000223243423911072 0.000328812389367262 0.000391201536704406 0.000808326913007542 0.000463700645471897 0.000500616997568428 0.000111341464002437 9.92498800965527e-05 0.000760637886695779 0.000606243643356788 0.000426922421768039 0.000765643840303049 0.000575787896089017 0.000681073853787917 0.000907150695664059 0.000909528568813936
"159" 0.000204838116130941 0.000310555716177147 0.000362777651695441 0.000779459557384026 0.000437103593478327 0.000479444687969367 9.36988062327332e-05 7.91471914724658e-05 0.000742055119592214 0.000596144823844236 0.000419223550918755 0.000742155788269974 0.000567854217948159 0.000681107351968966 0.000909754801348022 0.000889409840994733
"160" 0.000185263856048297 0.000290889107249299 0.000332623320868434 0.00074816308486314 0.000408866949245576 0.000456704373030331 7.51364556165706e-05 5.85477279150875e-05 0.0007206112545669 0.000582306299632798 0.000410112876492019 0.000716883401975491 0.000558514466747183 0.000679356888143755 0.000910766423283391 0.000867580201263177
"161" 0.000164679386782305 0.000269952365497619 0.000300962178038456 0.000714646189603861 0.000379192115587219 0.000432550008342418 5.580863419853e-05 3.75775567763673e-05 0.000696468305342975 0.000565009922385731 0.00039964351100874 0.000689982120088134 0.00054783601454467 0.000675817520339747 0.000910174264311251 0.000844199244014043
"162" 0.000143238218355196 0.000247886902395963 0.000268025848123603 0.000679135781747575 0.00034828043476453 0.00040714155857485 3.58614839835585e-05 1.63732845511686e-05 0.000669806770398164 0.000544551710423897 0.00038787590265048 0.00066161254426103 0.00053589071784028 0.000670492491589692 0.000907977099565223 0.000819429368015349
"163" 0.000121108518259416 0.000224844704308025 0.000234052208800717 0.000641864268392365 0.000316349234799588 0.00038064935099956 1.54513189526618e-05 -4.934761556618e-06 0.000640818400537022 0.000521238023264207 0.000374878780328807 0.000631953073196706 0.000522766350445563 0.000663394616242718 0.000904193246800219 0.000793448940471457
"164" 9.84587949679172e-05 0.000200993235581482 0.000199294658245731 0.000603084690938419 0.000283619109165371 0.000353248777487467 -5.25976507011243e-06 -2.62074885215192e-05 0.000609726169067419 0.000495386492844276 0.00036073126489223 0.000601186595895034 0.000508559390423481 0.000654562651820021 0.000898848997799259 0.000766440520342187
"165" 7.54604915441615e-05 0.000176497616933398 0.000163987736416286 0.000563057085445259 0.000250309187793688 0.000325117449078379 -2.61086634448926e-05 -4.73109027920481e-05 0.000576746633432665 0.000467309961994521 0.000345528025285053 0.000569508721154826 0.000493380504678226 0.000644040692959363 0.000891989108062934 0.000738597097974182
"166" 5.22838563822112e-05 0.000151523729343107 0.000128384016256668 0.000522040875428631 0.00021664345710361 0.000296440449752246 -4.6936282505816e-05 -6.81112334813938e-05 0.000542121659640443 0.00043734612074315 0.000329356227398659 0.000537111675756148 0.000477338631520091 0.000631883959121159 0.000883657430339952 0.000710108222359461
"167" 2.91005395146779e-05 0.000126246387417188 9.27266541772626e-05 0.000480303789663885 0.00018284666985552 0.000267397785406332 -6.75871309504665e-05 -8.84800304947885e-05 0.000506096160701757 0.000405815823481253 0.000312319916683745 0.000504201152065417 0.000460557666728157 0.000618166901750817 0.00087392179672588 0.000681166995971368
"168" 6.07768617501197e-06 0.000100839255680399 5.7247960151551e-05 0.000438114971799507 0.00014912974382757 0.00023817198476192 -8.79058900371252e-05 -0.000108289741632541 0.000468918281503419 0.00037304615215311 0.000294529002448929 0.000470977536330211 0.000443172936585199 0.000602973058710804 0.000862853148751184 0.000651970201856592
"169" -1.66231975939494e-05 7.54702896851783e-05 2.21853003165421e-05 0.000395743399978181 0.000115711093407253 0.000208939898448975 -0.000107740083002274 -0.000127420570601451 0.000430846769542796 0.000339361601467261 0.000276094074721231 0.000437642249360314 0.00042531172625213 0.000586395171251838 0.00085053502308367 0.000622709208357248
"170" -3.88466450518579e-05 5.03136935199535e-05 -1.22439888099386e-05 0.00035344789013969 8.27860163626395e-05 0.00017987439948689 -0.000126949479581147 -0.000145761123986959 0.000392135744496432 0.000305082117287476 0.000257129903871225 0.000404395485722441 0.000407107799652324 0.000568535965828158 0.000837058695527206 0.000593569191919399
"171" -6.0444556678153e-05 2.55237349759749e-05 -4.5832074238316e-05 0.000311480237853535 5.05576743614211e-05 0.000151145669658112 -0.000145407281996826 -0.000163207469383772 0.000353031830612799 0.000270531015690713 0.000237750634214353 0.000371427692255738 0.000388694681087154 0.000549503490136827 0.00082251587096122 0.000564731226905883
"172" -8.12768525820889e-05 1.26040385583043e-06 -7.83792165462516e-05 0.000270088099582075 1.92066426497241e-05 0.000122913809982736 -0.000162984219407664 -0.0001796666912072 0.000313788080209398 0.000236017787436002 0.000218076731473201 0.000338928972022615 0.000370209637687787 0.000529416467105722 0.000807010387797446 0.00053637344409272
"173" -0.000101213457939564 -2.23271136062077e-05 -0.00010970302027226 0.000229503381624512 -1.10918682860006e-05 9.53306009485178e-05 -0.000179568764463232 -0.000195051362914335 0.000274647913070002 0.000201846621025872 0.000198222872856619 0.00030707824148919 0.000351781554339689 0.000508403408853804 0.000790648064693936 0.00050865652189355
"174" -0.000120139554108765 -4.51010480925936e-05 -0.000139640979355773 0.000189941435731476 -4.01823458656423e-05 6.85377885510742e-05 -0.000195062077834275 -0.000209291831077839 0.000235842564430758 0.00016831521644214 0.000178306764774205 0.000276045522052543 0.000333536269089597 0.000486582738184547 0.000773537133083013 0.000481738056438949
"175" -0.000137944365327383 -6.69336029411323e-05 -0.000168035348332082 0.000151609102395833 -6.79095587607362e-05 4.2673432376533e-05 -0.000209373043738389 -0.00022232370359059 0.000197595552676313 0.000135699878828165 0.000158441874230573 0.000245995265549519 0.000315598781436352 0.000464092853339759 0.000755791608174893 0.000455761087102757
"176" -0.000154537721847962 -8.77078159729059e-05 -0.000194758437733992 0.000114692587647115 -9.41456471363681e-05 1.78573726916077e-05 -0.000222425323646219 -0.000234095372084589 0.000160112477297494 0.000104282401752093 0.000138737864934688 0.000217077310994398 0.000298084669036607 0.000441059861400786 0.00073752020838282 0.000430858997130554
"177" -0.000169834306752395 -0.000107313191996505 -0.000219688910626258 7.93644591117837e-05 -0.000118768919345892 -5.79502130352505e-06 -0.000234156216864573 -0.000244570850255946 0.000123603869171909 7.43182131936633e-05 0.000119305812534461 0.000189430645124252 0.000281107194430303 0.000417625801497937 0.000718838472892133 0.000407152756381885
"178" -0.000183770122014696 -0.000125665070435937 -0.000242733386584423 4.57688900941565e-05 -0.000141674980028578 -2.81846187491855e-05 -0.000244518532668912 -0.000253719364606564 8.82390833278347e-05 4.60484430010037e-05 0.000100240983522774 0.000163181864090819 0.00026476718716431 0.000393915074512993 0.000699857667057646 0.000384746524260221
"179" -0.000196281264658532 -0.000142672063233717 -0.000263805640445509 1.40487261364968e-05 -0.000162773054989358 -4.92225566287487e-05 -0.000253465610318714 -0.000261523972371228 5.41946081557441e-05 1.96873825209373e-05 8.16483525512302e-05 0.00013845228474743 0.000249171474625441 0.000370069444882377 0.000680693340920325 0.000363738881306898
"180" -0.000207328976866692 -0.000158268996872396 -0.000282840932341192 -1.56835077609957e-05 -0.000181983115214997 -6.88280782695893e-05 -0.000260976009027648 -0.000267978369173621 2.16205745031391e-05 -4.56267858102969e-06 6.3618906730355e-05 0.000115346509869508 0.000234400048926577 0.000346212950688762 0.000661455667607232 0.00034421007789264
"181" -0.000216879950680395 -0.000172403290683114 -0.000299795051775085 -4.33353894583375e-05 -0.000199250732768142 -8.69379058640844e-05 -0.000267036195462622 -0.000273086000452376 -9.35193632321659e-06 -2.65166625838288e-05 4.62393481370404e-05 9.39554282231727e-05 0.000220543340734112 0.000322476718644073 0.000642248631302084 0.000326228853587055
"182" -0.000224910922985662 -0.00018502021565496 -0.000314629645588157 -6.88182300731403e-05 -0.000214521670432296 -0.000103492250197418 -0.000271635851498354 -0.000276854459315433 -3.85966906176606e-05 -4.60401412292366e-05 2.95940789120285e-05 7.43659812090935e-05 0.000207677272228858 0.000298990784437455 0.000623189042042097 0.000309853263382586
"183" -0.000231415125526894 -0.000196094744187465 -0.000327330261971078 -9.20755149660993e-05 -0.000227763519526751 -0.000118451082846742 -0.000274785386844178 -0.000279307233785139 -6.60139748311588e-05 -6.30035572630811e-05 1.37536745704365e-05 5.66475669204256e-05 0.000195874463857908 0.000275874271914955 0.000604380971705115 0.000295133077391841
"184" -0.000236394855993193 -0.000205602818735677 -0.000337897742280455 -0.000113062832512405 -0.000238958189275994 -0.000131782331001039 -0.000276503488990111 -0.000280472144749712 -9.15240246240295e-05 -7.73054596520003e-05 -1.20902620941015e-06 4.08596162763521e-05 0.000185190976229922 0.000253240666038561 0.000585921401975542 0.000282092270179254
"185" -0.00023986020707007 -0.000213529187448442 -0.000346340247955945 -0.000131746607174353 -0.000248092705920466 -0.000143459706389076 -0.000276806014896301 -0.000280381295436016 -0.000115052437884528 -8.88932527984417e-05 -1.52310868744026e-05 2.70543115224371e-05 0.000175695019060683 0.000231205454994738 0.00056791481038632 0.000270759423098171
"186" -0.000241832168226929 -0.00021987554154786 -0.000352680618842162 -0.000148112504172874 -0.000255173729390402 -0.000153476969652343 -0.000275733885141976 -0.000279077011727521 -0.000136550106005622 -9.77272223038319e-05 -2.82569818622829e-05 1.5272441386658e-05 0.000167428333839806 0.000209876304906558 0.00055045782565924 0.000261142967113625
"187" -0.000242341780800573 -0.000224647319948902 -0.000356957717389723 -0.000162159292273715 -0.000260216501320244 -0.000161828215489742 -0.000273326153151943 -0.000276602364329389 -0.00015598493026972 -0.000103803773129631 -4.02364477525126e-05 5.54409201854371e-06 0.000160437182227117 0.000189349723610561 0.000533639024236047 0.000253244857833965
"188" -0.000241426365235039 -0.000227863368956658 -0.00035921388058305 -0.000173897802735965 -0.000263247791438476 -0.000168526486244957 -0.000269627421027734 -0.000273010219170932 -0.000173332241531106 -0.000107150672865172 -5.11286863408848e-05 -2.11400361585611e-06 0.000154759314980156 0.000169718623046735 0.000517547249193699 0.000247055625821903
"189" -0.00023912761150269 -0.000229545103280377 -0.000359507637423688 -0.000183352254045285 -0.000264307534031821 -0.00017358630660718 -0.000264692141964449 -0.000268347643138016 -0.000188589886611126 -0.000107832827127643 -6.0895052544451e-05 -7.68407228359723e-06 0.000150433754346375 0.000151071665370281 0.000502272004974042 0.000242557578182943
"190" -0.000235500798813943 -0.000229726060376803 -0.000357905390340519 -0.000190558289807005 -0.000263442175615462 -0.000177036745652098 -0.000258578518922407 -0.000262676307318504 -0.000201764115333708 -0.000105925261868805 -6.95056536239647e-05 -1.11676754290286e-05 0.00014748020106367 0.000133481710917724 0.000487884554109854 0.000239722220008921
"191" -0.000230600219480776 -0.000228446075511639 -0.000354474454217254 -0.000195556935934825 -0.000260707406520467 -0.000178911618521329 -0.00025134953611075 -0.000256053247005832 -0.00021288074346499 -0.000101549876503814 -7.69410326539651e-05 -1.25718808333661e-05 0.000145918288569399 0.000117019799056636 0.000474462635030426 0.000238517369092917
"192" -0.000224492107160303 -0.000225747817537413 -0.000349298224886228 -0.000198406720685856 -0.000256174253064916 -0.000179257834310174 -0.000243073877926982 -0.000248540049995831 -0.000221978142764428 -9.48451377114406e-05 -8.31838932711008e-05 -1.19121619239213e-05 0.000145765629695767 0.000101743634114111 0.000462067588969859 0.000238896294238584
"193" -0.000217237629680059 -0.000221681384020722 -0.000342458441555666 -0.0001991641696111 -0.00024990902256916 -0.000178121198518015 -0.00023381872327635 -0.000240196485343355 -0.000229100537815316 -8.59791250597324e-05 -8.82231741983013e-05 -9.2098313397147e-06 0.000147030209821294 8.77110645448178e-05 0.000450766208269768 0.000240815398545085
"194" -0.000208909963099722 -0.000216301757317046 -0.000334047247966285 -0.000197903286442542 -0.000242001588584381 -0.000175561694031562 -0.000223657494536342 -0.000231085653684992 -0.000234304479078105 -7.51327228104743e-05 -9.20589075043608e-05 -4.49951413857643e-06 0.000149710979504381 7.49567684098493e-05 0.000440604642660635 0.000244210850087292
"195" -0.000199583369984434 -0.000209672158566132 -0.000324158783438008 -0.000194697770802838 -0.000232533320665227 -0.000171643471661951 -0.000212667427865352 -0.000221273644869923 -0.000237666748034878 -6.25084511476508e-05 -9.46968798937596e-05 2.17970312739518e-06 0.000153803795828096 6.35144456998174e-05 0.000431632253069821 0.000249024924992987
"196" -0.000189334190277795 -0.000201851032365883 -0.000312891686687324 -0.000189630409825092 -0.000221601397965306 -0.000166434477857546 -0.000200922270027579 -0.000210824325969293 -0.000239259440863463 -4.83284017578904e-05 -9.6145519905231e-05 1.07791347072698e-05 0.000159297762099098 5.34087326423109e-05 0.000423884193228798 0.000255184337110046
"197" -0.000178237292005494 -0.000192905460197837 -0.000300344136376391 -0.000182785426530802 -0.000209302937542553 -0.000160009610550418 -0.000188504464048105 -0.000199799553422278 -0.000239170963486871 -3.28254974926535e-05 -9.64246945924085e-05 2.12457626527086e-05 0.000166174610773284 4.46511744033515e-05 0.000417392247129031 0.000262617228479744
"198" -0.00016637436602495 -0.000182910832836919 -0.000286617744194825 -0.000174259878837852 -0.000195747097756255 -0.00015244641567905 -0.000175489503872056 -0.000188266611556415 -0.000237495132559614 -1.62320991033779e-05 -9.55612474145566e-05 3.35105688960179e-05 0.000174411563899401 3.72445403767336e-05 0.000412172285773815 0.000271240205247632
"199" -0.000153824571748813 -0.000171936146097897 -0.000271817920657549 -0.000164148092492495 -0.000181035014174151 -0.00014382922554852 -0.000161957520803552 -0.000176289444357029 -0.000234333918151793 1.21034138303814e-06 -9.35813734775092e-05 4.75090110828563e-05 0.000183974264814969 3.11796798761751e-05 0.000408235170891615 0.000280973568449108
"200" -0.000140667950587667 -0.000160057419596319 -0.000256044425960218 -0.000152545667161621 -0.00016528025406507 -0.000134244834790619 -0.000147990323975542 -0.000163929788961225 -0.00022979073560375 1.92415801503811e-05 -9.05245759690595e-05 6.31617677970302e-05 0.000194826963709206 2.64412037587355e-05 0.000405587518873493 0.00029172729544422
"201" -0.000126985105648297 -0.000147351170862062 -0.000239405665650679 -0.000139559587247899 -0.000148593798709775 -0.000123776853462896 -0.000133667143719483 -0.00015125362167951 -0.000223975823079684 3.76342665995572e-05 -8.64357078263425e-05 8.0384246798015e-05 0.000206922282102966 2.30028448354768e-05 0.000404215259470217 0.000303407759288911
"202" -0.000112854561289023 -0.000133895146108396 -0.000222001690260594 -0.000125292400692823 -0.000131094074922577 -0.000112516525244516 -0.000119063075273571 -0.000138321321444617 -0.000217000479243189 5.61420699509356e-05 -8.13617524247081e-05 9.90854746390303e-05 0.000220207225951466 2.08310702833485e-05 0.000404105744812068 0.000315923450811833
"203" -9.83566291192932e-05 -0.00011976879062108 -0.00020393239450301 -0.000109846140083786 -0.000112885212515011 -0.000100552530755005 -0.00010425210030852 -0.000125192624844073 -0.00020897850357916 7.45239903173204e-05 -7.53510326203188e-05 0.000119178662030283 0.000234630989657322 1.98837083392205e-05 0.00040523504048012 0.000329177517756929
"204" -8.35642161498925e-05 -0.000105050230200412 -0.000185296954836654 -9.33315020964367e-05 -9.40936529328923e-05 -8.79785502511678e-05 -8.93143726767021e-05 -0.000111930318300009 -0.000200028377031341 9.25711338073789e-05 -6.84684233909125e-05 0.000140554660037529 0.00025012136951292 2.01086714055567e-05 0.000407563241761719 0.000343069808869327
"205" -6.85583812269879e-05 -8.98208159048438e-05 -0.000166197085999234 -7.58581748508518e-05 -7.4825563498992e-05 -7.48835234108922e-05 -7.43230480652637e-05 -9.85947087771614e-05 -0.000190265252653756 0.000110071412731014 -6.07722430935766e-05 0.0001631122047435 0.000266612981219079 2.14446339705229e-05 0.000411047382790875 0.000357500149673093
"206" -5.3405926411484e-05 -7.41571824647039e-05 -0.000146721693846097 -5.75224979629303e-05 -5.51915429136349e-05 -6.1354622584964e-05 -5.93420897209065e-05 -8.52363306114352e-05 -0.000179798082161403 0.000126823570099216 -5.23295127298274e-05 0.000186746628617772 0.000284033758223139 2.38309796177445e-05 0.000415642055004664 0.000372371350565184
"207" -3.81763875024607e-05 -5.81399652965962e-05 -0.000126959771343456 -3.8438156532009e-05 -3.53003784474178e-05 -4.74783201828928e-05 -4.44397730135486e-05 -7.19131310889136e-05 -0.000168742417571075 0.000142645789495166 -4.32063685187169e-05 0.000211346733246507 0.000302306474560136 2.71996738035122e-05 0.000421290478454304 0.000387587855574355
"208" -2.29398393082118e-05 -4.18442887928121e-05 -0.000107000994345256 -1.87090807121752e-05 -1.52590325430334e-05 -3.33393449350023e-05 -2.96779270286802e-05 -5.86756325646828e-05 -0.000157206821501382 0.000157381125197991 -3.347608662982e-05 0.000236799215923419 0.000321346463752738 3.14726430126191e-05 0.000427924080709812 0.000403044067977194
"209" -7.75448008316889e-06 -2.53413498163364e-05 -8.69272980216116e-05 1.56753967886004e-06 4.83218160633514e-06 -1.90207448912313e-05 -1.51169869672799e-05 -4.55720038546155e-05 -0.00014529048381161 0.000170879334783117 -2.32063134205997e-05 0.000262993374259984 0.000341072506643181 3.65757495597583e-05 0.000435478059290574 0.000418650075096059
"210" 7.31433753126183e-06 -8.71209745884872e-06 -6.68189842862031e-05 2.22886185688147e-05 2.4876688489536e-05 -4.5999471654017e-06 -8.09951622704922e-07 -3.2653294943575e-05 -0.000133098447599881 0.000183021385587653 -1.24766648069033e-05 0.000289814540890315 0.000361395562496401 4.24245164018229e-05 0.000443871284346736 0.000434309424203643
"211" 2.22130509806633e-05 7.98222607561837e-06 -4.67471780520031e-05 4.33605494667001e-05 4.47821584560654e-05 9.85311702193663e-06 1.31943214300202e-05 -1.99589617167271e-05 -0.000120723660631259 0.000193691977927677 -1.35428406222966e-06 0.000317152091642324 0.000382232586381216 4.89399790428523e-05 0.000453036945372106 0.000449932625040969
"212" 3.6894921515182e-05 2.46715240226179e-05 -2.67770537104341e-05 6.46924106385173e-05 6.44654194462114e-05 2.4265328322076e-05 2.68535968759061e-05 -7.5276128072963e-06 -0.000108248072938885 0.000202803256751269 1.00863129414602e-05 0.00034489497864393 0.000403491960130102 5.60388358448886e-05 0.000462887452971366 0.000465434879191042
"213" 5.13042934993159e-05 4.12913595269394e-05 -6.97703155302138e-06 8.61943428479939e-05 8.38445173810212e-05 3.85741259705556e-05 4.01267209745493e-05 4.60310107851623e-06 -9.57577489745696e-05 0.000210289201964281 2.17709954582933e-05 0.000372933150474169 0.000425091341232554 6.36339088067839e-05 0.000473342051351278 0.000480728964084542
"214" 6.54044150454557e-05 5.77828179903875e-05 1.25977220759411e-05 0.000107789396073303 0.000102846602902622 5.27209728937149e-05 5.29800168330023e-05 1.64030602238618e-05 -8.33197854120316e-05 0.000216093758193366 3.36319648263002e-05 0.000401162942261862 0.000446941850216147 7.16509969368005e-05 0.000484321697343887 0.000495747466485873
"215" 7.91541314702319e-05 7.40942774606042e-05 3.18928618286834e-05 0.000129394041813149 0.000121407890542315 6.66538766336421e-05 6.53863985777423e-05 2.78435027223186e-05 -7.10012175582264e-05 0.000220178051132602 4.56038096143288e-05 0.000429485464869588 0.000468963097266052 8.00085920265332e-05 0.000495743942563377 0.000510416808790471
"216" 9.25189808802802e-05 9.017144374018e-05 5.08599040125818e-05 0.000150940589454493 0.000139462969040365 8.03227347784471e-05 7.73227343160116e-05 3.89022793844212e-05 -5.88593609805044e-05 0.000222536343585563 5.76183802349551e-05 0.000457798069680371 0.000491071045260409 8.86236900943905e-05 0.000507525197318202 0.000524665993483869
"217" 0.000105466656569801 0.000105969391240802 6.94531954560124e-05 0.000172363883991486 0.000156961982934222 9.36881722224974e-05 8.87713078242314e-05 4.95569162330075e-05 -4.69387875710675e-05 0.000223161150417537 6.96186512119974e-05 0.000486012575699303 0.000513193608009482 9.74347835721978e-05 0.000519587823256495 0.000538443662901377
"218" 0.000117969238467302 0.000121444166741215 8.76387886086406e-05 0.000193597569946957 0.000173855452488044 0.00010671165505713 9.97225551445155e-05 5.97957627915293e-05 -3.52840376759082e-05 0.000222066377572946 8.15446838131678e-05 0.000514040826905673 0.000535247954709273 0.000106361937523591 0.000531853977741221 0.000551695720572541
"219" 0.000130004586357971 0.000136557915314393 0.000105377141667266 0.000214587968055456 0.000190106483086092 0.000119361848586064 0.00011016248120003 6.96016603056072e-05 -2.39193393339556e-05 0.000219287572392729 9.33431714278593e-05 0.000541800100187984 0.000557168593885937 0.000115349354613439 0.000544250259994922 0.000564374458349585
"220" 0.000141555008852592 0.000151279365312914 0.000122638142241521 0.000235289116613108 0.000205679456619642 0.000131616889833882 0.00012009506091427 7.89704173264684e-05 -1.28735554407834e-05 0.000214858809341998 0.000104969138573699 0.00056922070249438 0.000578891541941589 0.000124337523786574 0.000556711808714828 0.000576444707182842
"221" 0.000152598936902889 0.00016557316264345 0.00013939264595967 0.000255648526647653 0.000220550206282774 0.000143453412883986 0.000129520437943764 8.78958218520633e-05 -2.16226233655389e-06 0.000208838425629079 0.000116375456916561 0.000596229209454428 0.00060035302288185 0.000133266723613872 0.000569168123819818 0.000587872386168973
"222" 0.000163124665361348 0.00017942100876888 0.00015562018699053 0.000275628687243393 0.000234693315670946 0.000154859635085487 0.000138440802880538 9.63734221764278e-05 8.20637801781945e-06 0.000201300533287918 0.000127524486674698 0.000622761332777362 0.000621494071573784 0.00014209351701087 0.000581556834334007 0.0005986340021591
"223" 0.00017311810137797 0.000192796272040042 0.000171292747511691 0.000295193080991812 0.000248096347307962 0.000165822610677077 0.000146863886044442 0.000104404525017513 1.82297376689456e-05 0.000192317947710695 0.000138382394429853 0.000648764442976161 0.000642262555529426 0.000150775644522074 0.000593827439806334 0.000608708733615949
"224" 0.000182569764169545 0.000205680419609232 0.000186393607264064 0.000314308088267982 0.000260747264400602 0.000176339048253989 0.000154804233106624 0.000111993436382147 2.79128712676253e-05 0.000181977834432314 0.000148922693706064 0.000674188682285311 0.000662614130034927 0.000159276010681412 0.000605925677225233 0.000618084349374861
"225" 0.000191472396363782 0.000218057670555495 0.000200900238311429 0.000332943341701463 0.00027264188721199 0.000186404008774947 0.000162268900309489 0.000119142352038276 3.72591852688731e-05 0.000170384542798947 0.000159116769917116 0.000698986029299127 0.000682499461743089 0.00016756516173591 0.000617806049998947 0.000626751399115528
"226" 0.000199819258392752 0.000229913864244031 0.000214797869632814 0.000351073176918863 0.00028377397066825 0.000196021780640273 0.000169273940780228 0.000125857164539677 4.62863115183416e-05 0.000157642636162621 0.000168947377777356 0.000723120425445247 0.000701877686107177 0.000175616869716096 0.000629426261573301 0.000634713831638132
"227" 0.000207602577376026 0.000241242307586591 0.000228067398367726 0.000368671973811408 0.000294150564040647 0.000205195644806055 0.000175835345287828 0.000132144285503997 5.5011109213667e-05 0.000143862709122128 0.000178399308756937 0.000746556901122202 0.000720716195359329 0.000183412884217409 0.000640752087779999 0.000641970903049976
"228" 0.000214817053111683 0.000252030589987316 0.000240695171249584 0.000385717124620658 0.000303773700767708 0.000213933516629538 0.000181967190311965 0.000138011367238824 6.34512310059457e-05 0.000129170365740018 0.000187463987052845 0.000769267249446027 0.000738976007907992 0.000190939733202573 0.000651752031254144 0.000648531344540925
"229" 0.000221458198138383 0.000262274030448741 0.000252658894701393 0.0004021908157751 0.000312652942614419 0.000222246394535739 0.000187687011021959 0.000143466102917738 7.16289781438943e-05 0.000113690057101089 0.000196134338706226 0.000791227902751095 0.000756630824013717 0.000198183842544423 0.000662397477798771 0.000654405510019183
"230" 0.000227521340516504 0.000271963905834465 0.000263947098260013 0.000418070212209888 0.000320795380735234 0.000230142510230438 0.000193005417328372 0.000148514980392362 7.95678939728972e-05 9.75486121021408e-05 0.000204408232032932 0.000812419616978699 0.000773654084318757 0.000205144609134754 0.00067266840914883 0.000659613076449889
"231" 0.000233000594801812 0.000281100518525455 0.000274541824493866 0.000433339350295093 0.000328219990447406 0.000237638642705714 0.000197939220400054 0.000153167488365791 8.72927702913701e-05 8.08802703696151e-05 0.000212286690211723 0.00083282776089323 0.000790016835552761 0.000211821897378425 0.000682548113506715 0.000664170616276171
"232" 0.000237896765746757 0.000289678870540762 0.000284424209620096 0.000447979322040302 0.000334932233233102 0.000244745852966301 0.00020250384705446 0.000157430082320194 9.48264624780692e-05 6.38234420144272e-05 0.000219777735877162 0.000852440432139232 0.000805701109087421 0.000218218491091694 0.000692021250026265 0.000668100896028071
"233" 0.000242198640595861 0.000297693895079052 0.000293574509419835 0.000461972226471094 0.000340950358571436 0.000251475534328885 0.00020670383568658 0.000161305514041491 0.000102192891222955 4.65130428481158e-05 0.000226882803752355 0.000871245392646531 0.000820682345932782 0.000224334671548234 0.000701077357253665 0.000671425373276809
"234" 0.000245901435647745 0.000305146808946034 0.000301975780287858 0.00047529876719352 0.000346287398844416 0.000257843582150757 0.000210550970636043 0.000164797480475553 0.000109408305940222 2.90906226418452e-05 0.000233617883274455 0.000889234820710578 0.000834939850080198 0.000230182312491125 0.000709708313948853 0.000674171364879054
"235" 0.000249002131790914 0.000312034847790893 0.000309610151617355 0.000487947136454287 0.000350957576048985 0.000263864987600508 0.000214055790370443 0.000167917792061764 0.000116498535051306 1.16811518068237e-05 0.000239994891987734 0.000906408214842836 0.000848463759089222 0.000235772216168758 0.000717913181270797 0.000676368109607565
"236" 0.000251499450900997 0.000318358560118165 0.000316456109006917 0.000499898095283115 0.000354978823107449 0.000269548299176121 0.000217222525488612 0.000170663476100117 0.000123477332899599 -5.57872374531568e-06 0.000246027250909288 0.000922760378283534 0.000861229690932709 0.000241117354850173 0.000725686503999436 0.000678043816547197
"237" 0.000253380463459203 0.00032411773696108 0.00032249296406864 0.000511137354963649 0.000358361685992601 0.000274906925038049 0.000220050839260958 0.000173038089231818 0.000130359331542778 -2.25619327770699e-05 0.000251732134218174 0.000938284875435378 0.000873225045433326 0.000246229483920444 0.000733031977837145 0.000679223318109565
"238" 0.000254644435805577 0.000329311358310743 0.000327704977212818 0.00052164580634669 0.000361121164908146 0.000279952664674515 0.00022254316951674 0.000175043556295569 0.000137153491070241 -3.91400476162921e-05 0.000257123904513126 0.000952983353084233 0.000884433914016189 0.000251121579770906 0.000739948853828868 0.00067994036088148
"239" 0.000255285250750717 0.000333943655449985 0.000332070442725684 0.000531409506519665 0.000363270251291035 0.000284688554656164 0.000224701518378945 0.000176680645287309 0.000143866095930689 -5.52018032209058e-05 0.000262222558574648 0.000966850498129851 0.000894843763655038 0.000255805487428451 0.000746442185000678 0.000680215940992326
"240" 0.000255298962882788 0.000338011643818936 0.000335570433680304 0.000540415289428646 0.000364816410776947 0.000289122877601188 0.000226517992204674 0.000177944508327285 0.000150498505756458 -7.06274880327351e-05 0.00026704714165522 0.000979882471550841 0.000904433597423314 0.000260296038215877 0.000752512909654079 0.000680080831890686
"241" 0.000254682487818661 0.000341520490363392 0.000338189526485758 0.00054864843653107 0.000365773681582338 0.000293260187753529 0.00022798996347179 0.000178840285306371 0.000157052781054775 -8.53338666354639e-05 0.000271617022702209 0.000992081587260386 0.000913196528362088 0.000264606433511005 0.000758170469860767 0.00067956556287077
"242" 0.000253431191586573 0.000344469962498486 0.000339911289586319 0.000556097930957822 0.000366152080522957 0.000297102776702888 0.000229111671227297 0.000179361612411416 0.000163519680339037 -9.92097169516709e-05 0.000275946343012915 0.00100343805375128 0.000921113087153385 0.00026874044946551 0.000763411122304815 0.000678689329267553
"243" 0.000251544209040179 0.000346869476133031 0.00034072030077028 0.000562752891244133 0.000365953670426355 0.000300649036169261 0.000229872327252804 0.000179508986602614 0.000169891335515582 -0.00011218275008529 0.000280052955911961 0.00101394564258786 0.000928171312809229 0.00027271165792954 0.000768245561726161 0.000677477982713376
"244" 0.000249019214203699 0.000348716802062146 0.000340605419038387 0.000568601839466466 0.00036518866421747 0.000303896258448881 0.000230262922004561 0.000179279463356052 0.000176146753846587 -0.000124179483668157 0.00028395441176119 0.0010236007727363 0.000934352396677416 0.000276522995158235 0.000772671937521983 0.000675952986522675
"245" 0.000245862370129695 0.000350027570687338 0.00033955324400951 0.000573640603167296 0.000363861170198705 0.000306838781444235 0.000230275118907814 0.0001786706245293 0.000182274602300634 -0.000135144437992116 0.000287663292506225 0.00103239179376353 0.000939649008532443 0.000280180695539629 0.000776694685054636 0.000674132158561392
"246" 0.000242070455945993 0.00035080043551623 0.000337562247668972 0.000577859901063579 0.000361977803902108 0.000309468791697129 0.000229894999072155 0.000177680575243149 0.000188243661861908 -0.000145026678016709 0.000291195915793361 0.00104030865934224 0.00094403759374892 0.000283680180536539 0.00078031445241478 0.000672033262558386
"247" 0.000237653582302482 0.000351048844349494 0.000334625616852031 0.00058126070719504 0.000359537675235031 0.000311776337568048 0.000229113612221306 0.000176307869868996 0.000194033634169093 -0.000153792735478255 0.000294559870139352 0.00104733624174965 0.000947506454165099 0.000287022025893241 0.000783525657369902 0.00066966956431575
"248" 0.000232614711482312 0.000350785196021922 0.000330744529565842 0.000583841542574086 0.000356541944187863 0.000313748560846831 0.000227918012160438 0.000174551486176028 0.000199609240476781 -0.000161418436016009 0.000297765070515201 0.0010534607836195 0.000950036684375339 0.000290195986087178 0.000786324800872943 0.000667051605538899
"249" 0.000226968879457031 0.000350017774343475 0.000325922105494659 0.000585605781558862 0.000352992654216202 0.000315373573812996 0.000226295330905978 0.000172411921175778 0.000204938409411366 -0.000167897751307479 0.000300816158475075 0.00105866450598609 0.00095161391412965 0.000293191938209631 0.000788706875259317 0.000664192881319637
"250" 0.000220723980649446 0.000348760453674178 0.000320165422475857 0.000586557629771299 0.000348893527012912 0.000316631195419197 0.000224232151957084 0.000169885892048285 0.000209983029344111 -0.00017323080997908 0.000303719109567702 0.0010629271355693 0.000952222697179068 0.000296000834324377 0.000790662120905229 0.0006610921372524
"251" 0.000213897260506363 0.000347032225466223 0.00031349052837673 0.000586707046991835 0.000344244325187675 0.000317506792531566 0.000221725006483298 0.000166980045059696 0.00021470197218742 -0.000177432125911701 0.000306475035511326 0.00106622797732671 0.000951838110637112 0.000298600039452432 0.000792176550121983 0.000657759607597357
"252" 0.000206506896522122 0.000344852020926389 0.000305911020792774 0.000586065665495521 0.000339042084643712 0.00031797875569525 0.000218760087177795 0.000163695421727861 0.000219053471343505 -0.000180533342823519 0.000309079134284685 0.00106854491217343 0.00095045265402425 0.000300970877124743 0.000793238598966462 0.000654188224460967
"253" 0.000198573274490384 0.000342236554074834 0.000297448043796514 0.000584650189009403 0.000333288782257258 0.000318027199048222 0.000215330025012091 0.000160034351785763 0.000222997412747163 -0.000182568889926071 0.000311529957434379 0.00106985102802606 0.000948041005698692 0.000303088294321315 0.00079382926257217 0.000650377967500518
"254" 0.000190124047594989 0.000339209910416868 0.000288131503527353 0.000582478377246662 0.000326984772797945 0.000317632093760874 0.000211433721059211 0.000156004977409763 0.00022648339732535 -0.00018359788671424 0.000313815795938073 0.00107012415074689 0.000944589709711541 0.000304923826365607 0.000793927441766458 0.000646321512219782
"255" 0.000181186864954995 0.000335795759665417 0.000277990169475671 0.00057957327567272 0.000320136221827671 0.000316768446962331 0.000207060975135183 0.000151612714972172 0.000229468632144116 -0.000183667695787037 0.000315931197080306 0.00106933205841037 0.000940085544636167 0.000306447675560417 0.000793511483844824 0.000642007831432335
"256" 0.000171793731552003 0.000332019151013306 0.000267067267974637 0.000575960056065115 0.000312740942127683 0.000315417920183155 0.000202215240169617 0.000146867063653979 0.000231908998040067 -0.000182854967076076 0.000317858950816616 0.00106745438137472 0.000934508385367787 0.00030762976620325 0.000792556456879668 0.00063742881258394
"257" 0.000161976926896635 0.000327913182827226 0.000255399104178106 0.000571671165942735 0.000304807749199435 0.000313555708842509 0.000196901335240591 0.000141782615117454 0.000233758912250363 -0.000181239400921169 0.000319587049883448 0.00106446063263638 0.000927846218105095 0.000308433581251264 0.00079103698348007 0.000632566352403406
"258" 0.0001517769279041 0.000323502557316804 0.000243037637605909 0.000566735344818771 0.000296338230084353 0.000311163105525494 0.000191113971444929 0.00013636740609208 0.000234970212884582 -0.000178898026523652 0.000321092172426969 0.00106032285331894 0.000920085753370333 0.00030881708163364 0.000788915648260716 0.00062740390399383
"259" 0.000141239360303843 0.000318825776502275 0.000230033030767859 0.000561195972260244 0.000287347913204331 0.000308218443584565 0.000184873797291545 0.000130639969531783 0.00023550960319837 -0.000175937399252505 0.000322360724602517 0.00105502156712346 0.000911219439290164 0.00030875678796336 0.000786175468980615 0.000621922040327755
"260" 0.000130404742268432 0.000313915420963776 0.000216446769215167 0.000555089524296183 0.000277838881975727 0.000304703309440699 0.000178185756036739 0.000124616675918995 0.000235332607169356 -0.00017244686881172 0.000323365562456885 0.00104852895994824 0.000901240495652784 0.000308201899462776 0.000782777731665029 0.000616099184280753
"261" 0.000119325011193822 0.000308805818543528 0.000202340461582799 0.000548460276533691 0.000267828324602742 0.000300600693176757 0.000171063748394001 0.000118316957141979 0.00023440442523089 -0.00016851705149302 0.000324084398880828 0.0010408241680982 0.000890136364966239 0.000307118434137648 0.000778688337693392 0.000609909974652195
"262" 0.000108052542008128 0.000303539815858932 0.000187781714515218 0.000541356455617736 0.000257333039139802 0.000295895833957426 0.000163533337464741 0.000111762489047128 0.000232690480728642 -0.000164273353534983 0.000324491773064949 0.00103189013143252 0.000877912846853597 0.000305473399021777 0.000773883621026747 0.000603331711388272
"263" 9.66412707702737e-05 0.000298157454561166 0.000172843030476158 0.000533827930609515 0.000246370537478255 0.000290578297722405 0.000155613563409162 0.000104978764718173 0.000230166008341056 -0.000159806867978057 0.0003245667560047 0.00102171370641591 0.000864569634114925 0.000303232602038415 0.000768330818674554 0.00059633528897694
"264" 8.51490133972743e-05 0.000292699408159256 0.000157603274727236 0.00052592586502567 0.000234958739422024 0.00028463458336248 0.000147330750908111 9.79884660921871e-05 0.000226803737137871 -0.000155231909771858 0.000324275996332395 0.00101028079982681 0.000850109959278206 0.000300356488176823 0.000761997630721954 0.000588893381050979
"265" 7.36357849076228e-05 0.000287211063792397 0.000142139660645914 0.000517710615682072 0.000223127616234125 0.000278062500922175 0.000138718772410554 9.08248374798192e-05 0.000222586342523318 -0.000150649865207391 0.000323598102317178 0.000997587845178448 0.000834549454097226 0.00029681955246742 0.000754863535395138 0.00058097813149133
"266" 6.21668596472216e-05 0.000281735156892153 0.000126537983262451 0.000509236370824923 0.00021090548894834 0.00027086083090592 0.000129812658479737 8.35155705828157e-05 0.000217499332677964 -0.000146166472001975 0.000322507853025454 0.000983634321258419 0.000817901955758026 0.000292597650485266 0.000746898829037209 0.000572565542953728
"267" 5.08008816597109e-05 0.000276318445190118 0.00011088559337769 0.00050056165858546 0.000198322386051147 0.000263025225937787 0.000120650791325165 7.60938358062071e-05 0.000211536602555548 -0.000141879441383302 0.000320975918720955 0.000968426099903443 0.000800184741657376 0.000287663245149031 0.000738086563623384 0.000563621172858541
"268" 3.96109791474234e-05 0.000271008710222564 9.52693823256969e-05 0.000491754937803415 0.000185414868595821 0.000254566643251775 0.000111274113416409 6.85940956770802e-05 0.000204697831142303 -0.000137890519772673 0.000318985450169996 0.000951974390229322 0.000781432367414967 0.000282005275082065 0.000728412206980594 0.000554120016772688
"269" 2.86606476987507e-05 0.000265851789244374 7.97814024815056e-05 0.00048287462376562 0.000172219167645449 0.000245491255325508 0.000101732852585255 6.10517506460969e-05 0.000196987460360553 -0.000134285053499217 0.000316509007058237 0.000934297556936234 0.000761666358083776 0.000275607128632985 0.000717859179061544 0.000544041131807258
"270" 1.80199632617364e-05 0.0002608959855737 6.45127219997743e-05 0.000473988073056816 0.000158778477243509 0.000235815317840375 9.20710809041701e-05 5.35057230785381e-05 0.000188417968208164 -0.000131150629079091 0.000313530742540248 0.00091542180503091 0.000740932868509291 0.000268464227344067 0.000706422615271496 0.000533353232302083
"271" 7.75540915861523e-06 0.000256186810568974 4.95579016416161e-05 0.000465154652060632 0.000145137765680954 0.00022555593266513 8.23466832482582e-05 4.59929861718729e-05 0.000179007273481164 -0.000128554819904972 0.000310029439881402 0.000895377341314826 0.000719272537430406 0.000260576487741182 0.000694100355290718 0.00052203793751145
"272" -2.06567784287469e-06 0.000251770626531208 3.50070952785665e-05 0.000456443093616729 0.000131347154958864 0.000214738110112714 7.26134146765834e-05 3.85551359758404e-05 0.000168783822590494 -0.000126575166668743 0.000305993940298123 0.000874209338671024 0.000696732444142107 0.000251951869356303 0.000680899878430055 0.000510073363201915
"273" -1.13745835249859e-05 0.000247695936325309 2.09503834732809e-05 0.00044791561297622 0.000117452738703325 0.000203385360112908 6.29251126737509e-05 3.12312322819932e-05 0.000157776641454147 -0.000125258120322895 0.000301411354890467 0.00085195964940463 0.000673372088949448 0.000242602044377604 0.000666826633246438 0.000497438340216154
"274" -2.01049160184625e-05 0.000244007710531035 7.48306616667249e-06 0.000439639296572418 0.000103510897552197 0.000191534669694938 5.33451768125948e-05 2.40630461116414e-05 0.000146029716457705 -0.000124663343051117 0.000296277974667252 0.000828690434106285 0.000649252690956352 0.000232550996550793 0.000651905292905526 0.000484124745422198
"275" -2.81928655429165e-05 0.000240746596729384 -5.31305202241119e-06 0.000431669862149639 8.95753655326727e-05 0.000179219686510806 4.39305574582772e-05 1.70896272008511e-05 0.000133585063332878 -0.000124820091493028 0.000290586725305283 0.000804460973248666 0.000624445259901693 0.000221825915060497 0.000636158277319724 0.000470117298628458
"276" -3.55774292771746e-05 0.000237954804469443 -1.73492063314758e-05 0.000424073381230819 7.57047293461445e-05 0.000166480191223491 3.47476866631953e-05 1.0356315361658e-05 0.000120498813183764 -0.000125757882352676 0.000284338639667209 0.000779344599089362 0.000599018906224245 0.000210465586736198 0.000619617338949231 0.000455407697796886
"277" -4.21994861561442e-05 0.000235674747361871 -2.85474677556252e-05 0.000416901759906435 6.19546734071134e-05 0.000153362039528414 2.58549566671395e-05 3.8974489736485e-06 0.000106824729630237 -0.000127483645048452 0.000277539662875737 0.00075341709787377 0.000573051206001934 0.000198507324385302 0.000602319754418231 0.000439991570088174
"278" -4.80018184505925e-05 0.000233935125870559 -3.88314960280778e-05 0.00041020936704696 4.83849298803032e-05 0.000139910309263727 1.73135458261944e-05 -2.24640286547357e-06 9.26277343078367e-05 -0.000129998992792315 0.000270196467073837 0.000726761997976387 0.000546625038524502 0.00018600402565398 0.000584310980769131 0.000423868325205552
"279" -5.29350612798227e-05 0.000232777118579872 -4.81297661559655e-05 0.000404051598826943 3.50563548524674e-05 0.000126178052845285 9.18271735590911e-06 -8.0347250329602e-06 7.79798912698185e-05 -0.000133305014155494 0.000262324454189688 0.000699475324063552 0.000519832838513782 0.000173013271092482 0.000565649740754069 0.000407043252722678
"280" -5.69539020414189e-05 0.000232223922544611 -5.63819500031651e-05 0.00039846568816946 2.20242210857432e-05 0.000112219287863308 1.5222427549684e-06 -1.34359812039714e-05 6.2951040895143e-05 -0.000137359669488208 0.000253939865617644 0.000671646877401774 0.000492759187626922 0.000159598776410347 0.000546389751944335 0.000389523049924962
"281" -6.00156759221798e-05 0.000232304078961994 -6.35230737545837e-05 0.000393501387074861 9.3532174914414e-06 9.80910355677871e-05 -5.60867799322677e-06 -1.84142813565886e-05 4.76215646509456e-05 -0.000142141802218195 0.000245066811420783 0.000643386092756591 0.000465505666292585 0.0001458306977668 0.000526600120650514 0.000371325761832168
"282" -6.20789231242641e-05 0.000233040202002169 -6.95046019000033e-05 0.000389193774751454 -2.90049943854987e-06 8.38506240252231e-05 -1.21555633249024e-05 -2.29390799942105e-05 3.2073963698477e-05 -0.000147602965045598 0.000235732205241639 0.000614794274980363 0.00043816442642304 0.000131788734041288 0.00050635234224705 0.000352464711699944
"283" -6.31192138334291e-05 0.000234449605422864 -7.42844758113702e-05 0.000385574902683468 -1.46841811449247e-05 6.9558620760942e-05 -1.80703410443397e-05 -2.6982366242465e-05 1.63857260166535e-05 -0.000153687217686738 0.000225964684889772 0.000585983932292242 0.000410837743654916 0.000117547705876592 0.000485726705988388 0.000332964839349484
"284" -6.31091485674e-05 0.000236543193992471 -7.78265040712062e-05 0.000382666964767557 -2.59400390829363e-05 5.52767147962424e-05 -2.33014916009642e-05 -3.05175759823482e-05 6.51802468852872e-07 -0.000160325884496999 0.000215800461893881 0.000557068092702151 0.000383626640967493 0.000103197268665205 0.000464803954869333 0.000312853711194894
"285" -6.20366178219116e-05 0.000239326967662394 -8.01093646710951e-05 0.000380490914488668 -3.66205668364449e-05 4.10629346143521e-05 -2.780965029648e-05 -3.35260109722087e-05 -1.50480803963919e-05 -0.000167437036462052 0.000205277435881667 0.00052815952615438 0.000356628779408288 8.88230534601677e-05 0.000443672400059214 0.000292159912710908
"286" -5.98858119349805e-05 0.00024280755796157 -8.11065440609201e-05 0.000379063142121862 -4.66738436354e-05 2.69836746260516e-05 -3.15500346730069e-05 -3.59867945705404e-05 -3.06226141780647e-05 -0.000174943427505328 0.000194441918032721 0.00049938010506168 0.000329948038976431 7.45213904379067e-05 0.000422423957476893 0.000270923137368511
"287" -5.66572648925665e-05 0.000246978725978183 -8.08199899612369e-05 0.000378384915479397 -5.60593138052253e-05 1.30972719445649e-05 -3.44954569410256e-05 -3.78874321015246e-05 -4.59841142220845e-05 -0.000182743926198034 0.000183332649224047 0.00047084190792821 0.000303681173686772 6.03830718575034e-05 0.000401148789870127 0.00024918246106306
"288" -5.23547604128852e-05 0.000251830442310187 -7.9247673842057e-05 0.000378459178325524 -6.47332132466795e-05 -5.36871204874145e-07 -3.66116943874131e-05 -3.92174944907369e-05 -6.10455054040406e-05 -0.000190745711872675 0.000172003641905555 0.000442664235494056 0.000277932762317413 4.65100615807882e-05 0.000379952944746739 0.000226983314473477
"289" -4.69931241584382e-05 0.000257350928555917 -7.64025688687264e-05 0.000379279215299858 -7.26608021501471e-05 -1.38586236669856e-05 -3.78786135871998e-05 -3.99716544635307e-05 -7.5723249845857e-05 -0.000198844216396128 0.000160501835641077 0.000414961616184299 0.000252793404640931 3.29901769177516e-05 0.00035892530824055 0.000204374456828729
"290" -4.05904225821367e-05 0.000263517439878703 -7.23058867907333e-05 0.000380828266876478 -7.98118492498629e-05 -2.68105792498136e-05 -3.8282845836394e-05 -4.01506458483302e-05 -8.9929376312658e-05 -0.000206919938142274 0.000148882831313304 0.000387845652253967 0.000228358561285219 1.99279960410835e-05 0.000338169236645235 0.000181410509616659
"291" -3.31782792499091e-05 0.000270302122980358 -6.69922497979994e-05 0.000383082676294528 -8.61590748063839e-05 -3.93445268385176e-05 -3.78106705830022e-05 -3.97567942056498e-05 -0.000103591895191128 -0.000214871395907774 0.000137200241220279 0.000361425934170497 0.000204713455430021 7.40875435328437e-06 0.000317777995140727 0.00015814239704558
"292" -2.47932457332521e-05 0.000277678606241239 -6.05008471814442e-05 0.000386018366688801 -9.16830573990299e-05 -5.14044933961302e-05 -3.64592217718885e-05 -3.87967263003023e-05 -0.000116628838212152 -0.000222578349943693 0.00012550629233926 0.000335807077294379 0.00018194544166232 -4.47067017161206e-06 0.00029785252814987 0.000134632842868992
"293" -1.54763967845843e-05 0.000285603481395946 -5.2884313867282e-05 0.000389597829426189 -9.63695616053498e-05 -6.29443013338134e-05 -3.42323127584821e-05 -3.72859456920502e-05 -0.000128971130817406 -0.000229937187396031 0.000113859458334971 0.000311093894237216 0.000160134861158173 -1.56192918850344e-05 0.00027849018978612 0.000110944185235055
"294" -5.28247625092593e-06 0.000294036448307895 -4.42056665861316e-05 0.000393777935233166 -0.000100212048012725 -7.39219253067765e-05 -3.11422044612486e-05 -3.52414432877127e-05 -0.000140552813161663 -0.000236828096416612 0.00010231488210434 0.000287374341971605 0.000139352037614273 -2.59590785867264e-05 0.000259775159695428 8.71376074203835e-05
"295" 5.72687757557156e-06 0.000302927333679413 -3.45329204319963e-05 0.000398511303437559 -0.000103203937475416 -8.43010403145798e-05 -2.72023077836265e-05 -3.26848570343996e-05 -0.000151312415633135 -0.000243144400815657 9.09297610367471e-05 0.000264738378613472 0.000119666492952399 -3.54043351156066e-05 0.000241801985622544 6.3283718303112e-05
"296" 1.74879189300642e-05 0.000312224667262414 -2.39477392829827e-05 0.000403741204378051 -0.000105355136999301 -9.40447346240894e-05 -2.24431039271707e-05 -2.96439019933541e-05 -0.000161197625527299 -0.000248784275938187 7.97550743487581e-05 0.000243268465322921 0.000101134115702922 -4.38838508584941e-05 0.000224651932990189 3.94426010903052e-05
"297" 2.99214479481587e-05 0.000321866980100008 -1.25362535158181e-05 0.000409405997545873 -0.000106672872046329 -0.000103125040640653 -1.68895909371648e-05 -2.61489452647654e-05 -0.00017016451586952 -0.000253643986202861 6.88448552369286e-05 0.000223034577483884 8.38055355716789e-05 -5.13349843593553e-05 0.000208397430806422 1.56919113096717e-05
"298" 4.29533520006894e-05 0.000331791883511218 -3.93069448128829e-07 0.000415439663423977 -0.000107175759542921 -0.000111518778620275 -1.05775885440195e-05 -2.22341359546594e-05 -0.000178166500119808 -0.000257641635455375 5.82492522023851e-05 0.000204102677306791 6.77335835468545e-05 -5.76910634930809e-05 0.000193117113004831 -7.90404238005701e-06
"299" 5.64878105723013e-05 0.000341929460837996 1.23740073733831e-05 0.000421767995717196 -0.000106887753731299 -0.000119206950896307 -3.55958694021662e-06 -1.7940912305967e-05 -0.000185178546382819 -0.000260677307435215 4.8017417111108e-05 0.00018652672276195 5.2942833697071e-05 -6.29041635449627e-05 0.000178865047829948 -3.12707190313037e-05
"300" 7.04407546533865e-05 0.000352211063698114 2.56592697200514e-05 0.000428314251385707 -0.000105836169266857 -0.000126178914663974 4.1197510145919e-06 -1.33108287997063e-05 -0.000191176616156124 -0.000262691494601214 3.81904603990791e-05 0.000170352191780972 3.94647496511944e-05 -6.69321082554908e-05 0.000165705761328936 -5.43389015430462e-05
"301" 8.47084194981199e-05 0.000362563609314698 3.93511672419075e-05 0.000434999524886919 -0.000104058897302547 -0.000132428075133537 1.24020515963019e-05 -8.39027428694744e-06 -0.000196146435616203 -0.000263614977784825 2.88114075531089e-05 0.000155616197727829 2.7313884026149e-05 -6.97414115598615e-05 0.000153679526786438 -7.70380236050405e-05
"302" 9.9192420606072e-05 0.000372906491118004 5.33241295393633e-05 0.000441735743923259 -0.000101598430702866 -0.000137949398806294 2.12305838465032e-05 -3.22683697981988e-06 -0.000200077651697017 -0.000263393998122427 1.99176631997595e-05 0.000142342000616605 1.65038045429289e-05 -7.13075220436628e-05 0.000142828390821032 -9.92969162149194e-05
"303" 0.000113786864754391 0.000383161850004911 6.74618733907041e-05 0.000448437530280388 -9.85013891176745e-05 -0.000142753863972288 3.05332326790636e-05 2.12695599587267e-06 -0.000202978741570661 -0.000261990385695234 1.15429105965609e-05 0.000130549710096588 7.02875721684858e-06 -7.16143661688504e-05 0.000133179815183517 -0.000121044835095512
"304" 0.000128379932829982 0.000393247322803208 8.16321437287032e-05 0.000455012051707495 -9.4819903315507e-05 -0.000146847244391899 4.02465233755075e-05 7.61564497722018e-06 -0.000204859681527661 -0.000259373536413043 3.71203736403112e-06 0.000120240260799318 -1.12125389551878e-06 -7.06610820734527e-05 0.000124752081100785 -0.00014221285376658
"305" 0.000142867981873094 0.000403083092407819 9.57081720548695e-05 0.000461370669518166 -9.06093070429208e-05 -0.000150249977986681 5.02889794016309e-05 1.31871618282413e-05 -0.000205738472669203 -0.000255535269673409 -3.54798293506574e-06 0.000111408902243655 -7.96310113902104e-06 -6.84524559816218e-05 0.000117555026681749 -0.000162734940872761
"306" 0.000157131368613982 0.000412585028484821 0.000109563477235148 0.000467420152119122 -8.59361628276025e-05 -0.000152980914290836 6.05865536440814e-05 1.87806076286182e-05 -0.000205646907269881 -0.000250467084003109 -1.02234242363334e-05 0.000104042487255014 -1.35246914501288e-05 -6.50034144314894e-05 0.000111583419212211 -0.000182541175383794
"307" 0.000171066184211827 0.00042167258391241 0.000123066497346336 0.000473067161903236 -8.08603534510821e-05 -0.000155068427979259 7.10602361799875e-05 2.43440012688307e-05 -0.000204619717745752 -0.000244191488642932 -1.63001613315185e-05 9.81144938101095e-05 -1.78470202982593e-05 -6.03421520077191e-05 0.000106829313329443 -0.000201570014182694
"308" 0.000184554878601599 0.00043026403614424 0.000136093030524988 0.000478221450475619 -7.54541401782725e-05 -0.000156547294308751 8.16238072587008e-05 2.98122568849807e-05 -0.000202707043705762 -0.000236723186300914 -2.17715119626454e-05 9.35839138287018e-05 -2.09774015474244e-05 -5.45062828853692e-05 0.000103266819094967 -0.000219761418572449
"309" 0.000197489194271119 0.000438281951329466 0.000148513119480119 0.000482792935989176 -6.97909303721461e-05 -0.000157452122314697 9.2195495835788e-05 3.51345554211635e-05 -0.000199959884323622 -0.000228118214386717 -2.6637217964064e-05 9.04127341273415e-05 -2.29637618286418e-05 -4.7540649742371e-05 0.000100864573673758 -0.000237057040274471
"310" 0.000209760889552444 0.000445648308168544 0.000160211407257595 0.000486694674065519 -6.39392075721684e-05 -0.000157826310367639 0.00010269676481096 4.02521099739042e-05 -0.000196442232100336 -0.000218426519762199 -3.08996227896991e-05 8.85399357358715e-05 -2.38740521673082e-05 -3.95033183220473e-05 9.95787568876194e-05 -0.000253396111677998
"311" 0.000221268218389606 0.000452290529259777 0.000171067328304045 0.000489840902602852 -5.79796758617249e-05 -0.000157713102583611 0.000113038644463751 4.51106726140508e-05 -0.000192215970126362 -0.000207715908501921 -3.45707794475784e-05 8.79055908664019e-05 -2.37728849301725e-05 -3.04565580060415e-05 9.93595848668644e-05 -0.000268730694381583
"312" 0.000231908742641432 0.000458142299598948 0.000180971850191998 0.000492154015413118 -5.19847453254422e-05 -0.000157164906358584 0.00012313957943386 4.96528855143421e-05 -0.000187361438214943 -0.000196073223965566 -3.76659579675158e-05 8.84362137601158e-05 -2.27377490563496e-05 -2.04753019479222e-05 0.000100140212901023 -0.00028301070359152
"313" 0.00024159165877873 0.000463136297965866 0.000189818999806877 0.000493556782489166 -4.60342735028772e-05 -0.000156231796885228 0.00013292481657956 5.38329125309223e-05 -0.000181956556889761 -0.000183590811798867 -4.02085353149495e-05 9.00496481119679e-05 -2.08519053965211e-05 -9.6412871130893e-06 0.000101851522462386 -0.000296191069441631
"314" 0.000250225263663588 0.000467215682802637 0.000197516002958499 0.00049398358816661 -4.02000355357019e-05 -0.000154968642633393 0.000142309309126194 5.76000070616312e-05 -0.000176084112168237 -0.000170371173445674 -4.22242858960063e-05 9.26629279124381e-05 -1.81974665862865e-05 1.96070742312682e-06 0.000104415695813355 -0.000308234137352592
"315" 0.000257727118938154 0.00047032178667067 0.000203974118689376 0.000493370513713544 -3.45610232337701e-05 -0.000153435620341634 0.000151225131759833 6.09110125857085e-05 -0.000169836534856447 -0.000156537086582613 -4.37420562861168e-05 9.61801005563257e-05 -1.48676181695102e-05 1.42348928266251e-05 0.000107743859266949 -0.000319103135981855
"316" 0.000264028034700167 0.0004724174232006 0.000209113337377906 0.000491661025521279 -2.91852198642908e-05 -0.000151689775893095 0.000159603344491582 6.3728239775129e-05 -0.000163301636793438 -0.00014221147831012 -4.47977079746803e-05 0.00010050505483965 -1.09549673762697e-05 2.70845797751543e-05 0.000111745927691964 -0.000328766392420121
"317" 0.000269060183100435 0.000473455205558124 0.00021287058150841 0.000488808280123377 -2.41437583229532e-05 -0.000149789537087737 0.000167375364500915 6.60116133321847e-05 -0.000156577115242483 -0.000127534711109613 -4.54323025810119e-05 0.0001055360706173 -6.55656529382739e-06 4.04030833719254e-05 0.0001163193155633 -0.000337200043380271
"318" 0.000272765470023509 0.000473405210602311 0.000215189431267065 0.00048477278730824 -1.95038041442481e-05 -0.000147795203708751 0.000174482321692972 6.77336020797294e-05 -0.00014975702845899 -0.000112639965914401 -4.56912887769394e-05 0.000111163042847496 -1.77287994691796e-06 5.40860827141698e-05 0.000121358560444391 -0.000344390147241078
"319" 0.000275101580928443 0.000472243072371518 0.000216025247631234 0.000479523394784642 -1.53290015580498e-05 -0.000145766142967434 0.00018087718256493 6.88668285632958e-05 -0.000142941076846012 -9.76841831017789e-05 -4.56169207376264e-05 0.000117282338488628 3.29979411181465e-06 6.80241067669171e-05 0.000126761548864172 -0.000350320129167203
"320" 0.000276031484901148 0.000469953032505445 0.000215343261709715 0.000473037682782223 -1.16719447079598e-05 -0.000143762007860404 0.000186508927077317 6.93911015684229e-05 -0.000136219609684642 -8.28098755603398e-05 -4.52646811468059e-05 0.000123780765715445 8.56553128221621e-06 8.21100963102569e-05 0.000132410613211295 -0.000354983771182706
"321" 0.000275528741858095 0.000466526241200008 0.000213127299368012 0.000465305897164065 -8.59193116840272e-06 -0.000141840294820677 0.000191339438769607 6.92948107649538e-05 -0.000129691082970259 -6.81778248376572e-05 -4.46816151550058e-05 0.000130550049519961 1.39247603968391e-05 9.62319322936841e-05 0.000138196521797551 -0.000358386589366407
"322" 0.000273580447463192 0.000461964059389032 0.000209372645373314 0.000456324146255126 -6.13045102528616e-06 -0.000140052747958278 0.00019534065115445 6.85666362166131e-05 -0.000123444481847598 -5.39388599294449e-05 -4.39198997726626e-05 0.000137479373623758 1.92805791424316e-05 0.000110283912280771 0.000144007211051598 -0.000360536578472189
"323" 0.000270181524746099 0.000456272317613335 0.000204083878700931 0.000446100359318659 -4.32582867445289e-06 -0.000138454793054555 0.000198490451621583 6.7206986555335e-05 -0.00011757166800669 -4.02454217648637e-05 -4.303876761231e-05 0.000144461850697123 2.45490533758181e-05 0.000124156884076469 0.000149727439996933 -0.000361446513452087
"324" 0.000265345276922356 0.000449473640047228 0.000197281651745075 0.000434653660619899 -3.21656128898726e-06 -0.000137091085108733 0.000200771390306146 6.52216882465672e-05 -0.000112153637987268 -2.72579286358514e-05 -4.20879853376974e-05 0.000151396463121048 2.96362969535048e-05 0.000137754904871718 0.000155248158894151 -0.000361141066823089
"325" 0.000259088089321627 0.000441590895118932 0.000189001603237975 0.00042201053765181 -2.82221174407143e-06 -0.000136007078424616 0.00020218535390969 6.26189259786224e-05 -0.000107267547872398 -1.51137880687723e-05 -4.11232683660235e-05 0.000158176639912114 3.4465876518372e-05 0.000150975201310181 0.00016046061414733 -0.000359646944941219
"326" 0.000251439415256006 0.000432662468058888 0.000179287997525023 0.000408209225603022 -3.16696208953751e-06 -0.000135247125631131 0.000202728845969619 5.94173135142271e-05 -0.000102987473692243 -3.96136814452081e-06 -4.0194873033823e-05 0.00016471269530974 3.89633606426015e-05 0.000163729425444916 0.000165262524662352 -0.00035700440986624
"327" 0.000242446854241105 0.00042272491253906 0.000168201831923975 0.000393294922775144 -4.25505008050722e-06 -0.000134840191934731 0.000202415382583553 5.56416934462268e-05 -9.93774681654808e-05 6.06694746239181e-06 -3.93575513288681e-05 0.000170912786209386 4.30560193788178e-05 0.000175933316556807 0.000169556089730056 -0.000353257151352786
"328" 0.000232158966841842 0.000411834952081034 0.000155808469045755 0.00037732260776767 -6.09272505594626e-06 -0.000134818615159696 0.000201271462471937 5.13206926162664e-05 -9.64973707837422e-05 1.48436010729114e-05 -3.86578355441728e-05 0.000176696842680921 4.66864401905371e-05 0.000187507371560591 0.000173249820929791 -0.000348454297256786
"329" 0.000220637636114324 0.000400046072650109 0.000142190174243229 0.000360361450395701 -8.6767633391458e-06 -0.000135211285784862 0.00019931720483828 4.64901431547514e-05 -9.43906079596759e-05 2.22580345453935e-05 -3.81423246076591e-05 0.00018198725686379 4.980251203411e-05 0.000198385066846262 0.00017625732653298 -0.000342652951243441
"330" 0.000207958318824677 0.000387422988971542 0.000127440501666465 0.000342478131008922 -1.19897929715226e-05 -0.00013603061722166 0.0001965957051831 4.11887643714114e-05 -9.30970415781475e-05 2.82072428779175e-05 -3.78508116492366e-05 0.00018671882134049 5.23598182970338e-05 0.000208508589350567 0.000178503432433616 -0.000335914384736103
"331" 0.00019420332065772 0.000374038402330736 0.000111663788519921 0.000323757346359399 -1.601047655592e-05 -0.000137289344853225 0.000193155282242679 3.54666734519004e-05 -9.26517335743256e-05 3.25983303665209e-05 -3.78265029146859e-05 0.00019083548567024 5.43211476361071e-05 0.000217826791976657 0.000179924069964616 -0.000328302285310256
"332" 0.000179459759781495 0.000359963574260212 9.49626408542628e-05 0.000304283021842485 -2.07126166150339e-05 -0.000138996277222471 0.000189042807809097 2.93719716289359e-05 -9.30682201711625e-05 3.53572343918433e-05 -3.81009019491132e-05 0.000194293439569676 5.56636914658507e-05 0.000226302295595468 0.000180459569764829 -0.00031989515168941
"333" 0.000163829320856042 0.000345288078905483 7.74574009616139e-05 0.000284149976339075 -2.60547211988589e-05 -0.000141147346235294 0.000184320729134342 2.29607136958818e-05 -9.43558088890194e-05 3.64201831087071e-05 -3.870068646674e-05 0.000197052783904371 5.63716388887669e-05 0.000233904824495068 0.00018006557305627 -0.000310762330417383
"334" 0.000147409509969484 0.000330090560182897 5.92717557926736e-05 0.000263457927727337 -3.20000747826503e-05 -0.000143741075377063 0.000179054133801993 1.62912110930856e-05 -9.65174572344106e-05 3.57505794378455e-05 -3.96535010030694e-05 0.000199088122231139 5.64412970864561e-05 0.000240617436428944 0.000178706972062121 -0.000300985948160389
"335" 0.000130316661773522 0.000314465993224345 4.05411657618795e-05 0.00024231020565564 -3.84943051776651e-05 -0.000146758794191131 0.000173315413519293 9.42687995204614e-06 -9.95356077964536e-05 3.33092020138843e-05 -4.09748207111087e-05 0.00020038762193127 5.58756510605809e-05 0.000246440940003524 0.000176362914934802 -0.000290637909361363
"336" 0.000112658843999137 0.000298501357773145 2.13880839869748e-05 0.000220812303440074 -4.54836494746745e-05 -0.000150186985830332 0.000167179877868479 2.43041687583823e-06 -0.000103387669374048 2.90958290182093e-05 -4.26753583841302e-05 0.000200944648249761 5.46882644061978e-05 0.000251372995131513 0.000173020167933462 -0.000279811489228021
"337" 9.45569012729168e-05 0.000282289675943633 1.95464736677998e-06 0.000199071756902892 -5.29064679692183e-05 -0.000153994822516953 0.000160726700779561 -4.63201906854567e-06 -0.000108044181847108 2.3117364006593e-05 -4.47663728900118e-05 0.000200765578358357 5.28980887029783e-05 0.000255431705771209 0.000168678762302421 -0.000268580763387559
"338" 7.61300833211045e-05 0.000265934487062864 -1.76233838552387e-05 0.000177204633557331 -6.06938973840806e-05 -0.00015815582900845 0.000154036676735126 -1.16910542467211e-05 -0.0001134582791042 1.53922279148555e-05 -4.72411106338889e-05 0.000199872481471736 5.05449741781944e-05 0.000258648416946014 0.000163353489545768 -0.000257028294044199
"339" 5.74998269922756e-05 0.000249521880152616 -3.72042746016438e-05 0.00015532096640452 -6.87739687684867e-05 -0.000162632069465407 0.000147202152734909 -1.86802277484226e-05 -0.000119574016231118 5.96971368507965e-06 -5.009786533943e-05 0.000198288535932915 4.76685379533495e-05 0.000261060480626841 0.000157070660127512 -0.000245236330698543
"340" 3.87875051102512e-05 0.000233152534812722 -5.66547768426956e-05 0.000133536067193048 -7.70792753117662e-05 -0.000167383461382163 0.000140305735167464 -2.55285698437297e-05 -0.000126328252733778 -5.09639900022787e-06 -5.33213349182921e-05 0.000196055278871073 4.43150602281896e-05 0.000262713824919991 0.000149864759452344 -0.000233282044689679
"341" 2.01180682507502e-05 0.000216920685350806 -7.58366621121716e-05 0.00011195635928236 -8.55275591432068e-05 -0.000172363234327956 0.000133435015877559 -3.2171794725193e-05 -0.000133649585653416 -1.77327403308396e-05 -5.68918233003387e-05 0.000193222619383298 4.05415439129646e-05 0.000263669761634562 0.000141785280753978 -0.000221237977820722
"342" 1.60486607192689e-06 0.000200913903736825 -9.46205252127057e-05 9.06937052352134e-05 -9.40411772048039e-05 -0.000177526151561495 0.000126677903291479 -3.85426887110682e-05 -0.000141459999929996 -3.18355991437816e-05 -6.07890407328423e-05 0.000189840833698491 3.64135593764817e-05 0.000263989144464132 0.000132891088572014 -0.000209179402909122
"343" -1.6632456119738e-05 0.000185224294046319 -0.000112876734977141 6.98564712088428e-05 -0.000102543128398095 -0.00018281829545928 0.000120119367738421 -4.45773544380488e-05 -0.000149664152748225 -4.73107533627434e-05 -6.49771314289462e-05 0.000185977620626859 3.19976793958671e-05 0.000263749477894495 0.000123249336507873 -0.000197171962824487
"344" -3.4483720477121e-05 0.000169936617324887 -0.000130486035388669 4.95453966369364e-05 -0.000110951037072701 -0.000188182474416542 0.00011384657671826 -5.0216087906326e-05 -0.000158171934999311 -6.40283925717594e-05 -6.94232412068173e-05 0.000181706450574402 2.73672179054302e-05 0.000263030530062261 0.000112941592887348 -0.000185278039008197
"345" -5.18410802563891e-05 0.000155132828807773 -0.000147330064172479 2.98625444453644e-05 -0.000119183398512658 -0.000193564674278071 0.000107935088180997 -5.54007647664986e-05 -0.000166880664550314 -8.18529772847107e-05 -7.40853870568724e-05 0.000177100718609761 2.26020073529715e-05 0.000261919450160056 0.000102048565029557 -0.000173556499833274
"346" -6.85999849939143e-05 0.000140888138933254 -0.000163304970756881 1.08935939607713e-05 -0.000127168107161498 -0.000198905799059894 0.000102464082071975 -6.0078000117525e-05 -0.000175685300820515 -0.000100646768835938 -7.89190778599071e-05 0.000172244622759193 1.77800885076509e-05 0.000260507537535974 9.06718573152556e-05 -0.000162054240959158
"347" -8.46698756280436e-05 0.000127270885175862 -0.000178307119871063 -7.26920209924843e-06 -0.000134824507422668 -0.000204148240761063 9.75031072557018e-05 -6.41996842413361e-05 -0.000184475740256934 -0.000120247487024999 -8.38744012140926e-05 0.000167224643556227 1.29878386244227e-05 0.000258886468346341 7.89038478482176e-05 -0.000150822078914916
