"V1" "V2" "V4" "V5" "V7" "V8" "V10" "V11" "V13" "V14" "V15" "V17" "V18" "V20" "V21" "V23"
"1" 0.000308219285133402 -0.000421043653201025 -1.91435123510774e-06 0.000172366402464549 0.00037376141980341 0.000464909427914192 0.000319514516309013 2.95511870504368e-05 -0.00163575010783631 0.00163019529153854 -0.00158514700990355 -0.00238768797662834 -0.000968766257052351 -8.0748150456665e-05 -0.00168863607631314 -0.00429725110940939
"2" 0.000330528765377567 -0.000407856662139808 2.25991284094826e-05 0.000179593740456597 0.000368785191255695 0.000469505414820741 0.00031993302671199 3.26508743680663e-05 -0.00155135421787652 0.00166444984734136 -0.00147072591821415 -0.00237341141461529 -0.000912353750494612 -4.52635893168476e-05 -0.00161917040961236 -0.0040809390100878
"3" 0.000353373463226465 -0.000392529127060445 4.85867381245845e-05 0.000187329818510751 0.000363167235055246 0.000474123143076619 0.00032055801950833 3.71898629249027e-05 -0.00145589038054863 0.00169021236252909 -0.00135180247066058 -0.00234536079965134 -0.000847713055351359 -6.83444324922682e-06 -0.00155345943885563 -0.00386045582790195
"4" 0.000376744381301436 -0.000375180974252479 7.58965763062357e-05 0.000195543492770625 0.000356955234983424 0.000478737690215611 0.000321425997432662 4.3114493448675e-05 -0.00135074970984484 0.001707405165934 -0.00122949393128318 -0.00230357473305198 -0.000775772034788016 3.53650583689724e-05 -0.00149195877308631 -0.00363773535599998
"5" 0.000400621860768804 -0.000355948953207004 0.000104378607954731 0.000204192580106315 0.00035019699847818 0.000483323316641281 0.000322576452847192 5.03559965685728e-05 -0.00123742585926197 0.0017160333082694 -0.00110493315684967 -0.00224820265748608 -0.000697507749404185 8.21449060823097e-05 -0.00143504281295165 -0.00341474420986455
"6" 0.000424989772553953 -0.000334986406398579 0.000133871752159816 0.000213240598268415 0.000342950860410923 0.000487856407747992 0.000324040444321306 5.88379894741255e-05 -0.00111748568447996 0.00171617427506564 -0.000979252288130476 -0.00217950520812135 -0.00061395336923342 0.000134303601387565 -0.00138301505142992 -0.0031934580502584
"7" 0.000449824960235547 -0.000312451233848563 0.000164206841100252 0.000222635677260576 0.000335277389686401 0.000492316352511215 0.000325855432219911 6.84681667228478e-05 -0.000992540568401415 0.00170797949879524 -0.000853551835717443 -0.00209783604468651 -0.000526203236756164 0.000192593023466988 -0.00133611452152529 -0.00297583902596515
"8" 0.000475089423765397 -0.000288516827818203 0.000195219738640076 0.000232328901759785 0.000327247346470846 0.000496677160791465 0.000328049220604806 7.91445820827314e-05 -0.000864241374801772 0.00169166216506994 -0.00072889317332799 -0.00200364915380645 -0.000435390401535235 0.000257698796616764 -0.00129448492942695 -0.00276381653692991
"9" 0.000500737629868711 -0.000263358536337965 0.000226732198303475 0.000242261804183524 0.000318921708476524 0.000500914966758 0.000330650294962194 9.07545232160928e-05 -0.000734236673471245 0.00166748048210313 -0.000606258915931664 -0.00189747243890373 -0.000342676598316374 0.000330219982273042 -0.00125819110827403 -0.00255925958330671
"10" 0.000526716387542139 -0.000237143441413802 0.000258575697674953 0.000252377005094432 0.000310375846649978 0.000505007233576055 0.000333678242716343 0.000103182761232304 -0.000604163095104471 0.0016357633044875 -0.000486559212168932 -0.00177991636759024 -0.000249270115250184 0.000410679126697479 -0.00122722637938873 -0.00236397540090055
"11" 0.000552953253773074 -0.000210057853008696 0.000290571206074231 0.000262611251071604 0.000301673550534611 0.000508920643173848 0.000337146646670814 0.000116296947267202 -0.000475630304231761 0.00159686306899588 -0.000370624899638904 -0.00165164832481477 -0.000156373630036511 0.000499473510995006 -0.00120150107476735 -0.00217965845231296
"12" 0.000579370306221969 -0.000182270263971104 0.000322549334437425 0.000272896174044456 0.000292879779927722 0.000512628478077302 0.000341059374327306 0.0001299654329519 -0.000350177754675259 0.0015511607061391 -0.000259169775970246 -0.00151339566164854 -6.5206028221112e-05 0.000596887447634598 -0.00118085948529569 -0.00200790074452386
"13" 0.00060586974158063 -0.000153952890384117 0.000354335900866481 0.00028316608467358 0.000284056809413392 0.000516092770967753 0.000345418171178947 0.000144041984006978 -0.000229279218282418 0.00149907238257559 -0.000152818238053352 -0.00136593625938388 2.30285719546965e-05 0.00070307319145184 -0.0011650809412527 -0.00185014704226453
"14" 0.000632354669267546 -0.000125277564471057 0.000385765008533579 0.000293349427026731 0.000275264976910415 0.000519280836270803 0.000350213118783622 0.000158382354764834 -0.000114319401474506 0.00144102410633907 -5.21073647782332e-05 -0.00121009496757601 0.000107158876284226 0.000818051658519252 -0.0011538808940871 -0.00170769177134997
"15" 0.000658704972286663 -9.64036264748998e-05 0.000416680044258064 0.000303377489963409 0.000266555830920449 0.000522146302796282 0.000355426226934416 0.000172833219982136 -6.56565322657905e-06 0.00137745889851967 4.25575371446452e-05 -0.00104672914304823 0.000186055267314605 0.000941686359905289 -0.00114693236573629 -0.00158165065088599
"16" 0.000684800027691505 -6.74893595478244e-05 0.000446918320244988 0.000313178876716444 0.000257975043072665 0.000524647622172883 0.000361031903592548 0.000187235215296575 9.28413400856817e-05 0.00130882198847276 0.000130829697183378 -0.000876722618346652 0.000258656939741038 0.00107370312651592 -0.00114385266801699 -0.00147294616399844
"17" 0.000710503743149768 -3.86855657310149e-05 0.000476335758290116 0.000322680880173361 0.000249572668352111 0.000526734988058446 0.00036699229392714 0.000201429799898097 0.000182903909195422 0.00123556971495425 0.00021247125895357 -0.000700995822699694 0.000323988129503794 0.00121367067404736 -0.0011442355307257 -0.0013822921738937
"18" 0.000735689787248143 -1.01374267892248e-05 0.000504794792463724 0.000331817271612338 0.000241380265921338 0.000528362651975311 0.00037326886638134 0.0002152578866946 0.000262772336140335 0.00115815605580968 0.00028731694923833 -0.000520481865173175 0.00038118429414873 0.00136099990309441 -0.0011476381181285 -0.00131016565776728
"19" 0.000760210355803055 1.80172742623771e-05 0.000532164665661829 0.000340519328845617 0.000233431824208023 0.000529475646479453 0.000379812854406747 0.00022855695648181 0.000331772525505396 0.0010770259904963 0.000355276848470514 -0.00033613876242805 0.000429505908586235 0.00151495764059824 -0.0011535896211304 -0.00125681348236204
"20" 0.000783932702565889 4.56479465345104e-05 0.00055832594333472 0.000348720855239065 0.000225755017296959 0.000530021617520615 0.000386570451527854 0.000241164943472922 0.000389402558831004 0.000992623363898864 0.000416325495660708 -0.000148935787387303 0.000468351312744178 0.0016746542523723 -0.00116161437007406 -0.00122222671795812
"21" 0.000806718352404489 7.26267777510379e-05 0.000583169295702424 0.000356359218196155 0.000218370100651257 0.000529948602840304 0.000393480522730001 0.000252923804979792 0.000435345025711476 0.000905382614104667 0.000470499222561385 4.01461016138542e-05 0.000497265437559618 0.00183906678026163 -0.00117121309315368 -0.00120614144924826
"22" 0.000828430236179589 9.8837097869293e-05 0.000606602857420549 0.000363373958465955 0.000211292490963504 0.000529200660832966 0.000400476875998859 0.000263679645614654 0.000469459066456854 0.000815715535048014 0.000517882732023154 0.000230117813962214 0.00051597154227562 0.00200702453309889 -0.00118188533554132 -0.0012080332587288
"23" 0.00084894671265825 0.000124171561134861 0.000628536958428724 0.000369709441195697 0.00020453794919974 0.000527727810521342 0.000407488868326435 0.000273277115726526 0.000491790639461162 0.000724024641763245 0.000558604614945108 0.000419982851128637 0.000524355226837845 0.00217722919468251 -0.00119312334155315 -0.00122711232161247
"24" 0.000868144375344922 0.000148516245903207 0.000648908044698267 0.000375313752399389 0.000198112667302392 0.000525477675734431 0.000414452243680658 0.000281573549580558 0.000502568822637406 0.000630706393945865 0.000592819040970868 0.000608744124409009 0.000522465482974673 0.0023482793486283 -0.00120443260038695 -0.00126234733927556
"25" 0.000885918429113203 0.000171778591663041 0.000667651982728573 0.000380138064409436 0.000192020207182993 0.000522401547158581 0.000421285240154133 0.000288426196179037 0.000502188429265778 0.00053612908026455 0.000620734061612742 0.000795405776408011 0.000510529886148592 0.00251865073625617 -0.00121531690986593 -0.0013124492017858
"26" 0.000902170551285551 0.000193867722122834 0.000684728944613495 0.00038413786387337 0.000186262274139568 0.000518456859434707 0.000427921793100354 0.000293705380147557 0.00049122092489932 0.000440655840686823 0.000642560262459201 0.000978976525255411 0.000488922899666901 0.00268673880075329 -0.00122529200470963 -0.0013759079603436
"27" 0.00091682282127127 0.000214700659556763 0.000700100476949026 0.000387278841145883 0.000180837454014976 0.000513603065488744 0.000434287074155461 0.000297287896846914 0.000470387478827271 0.000344624367660273 0.000658542420252031 0.00115847854668792 0.000458166371544708 0.00285086059264515 -0.00123389690147922 -0.00145100645528433
"28" 0.000929802611146372 0.000234200327971029 0.000713751256232003 0.000389522595476341 0.000175739757895913 0.000507805465681172 0.000440304817192564 0.000299064599870623 0.000440558349262184 0.000248355827166662 0.000668950056193085 0.00133294476961759 0.000418917335106147 0.00300928063389257 -0.00124067828384198 -0.00153583746704118
"29" 0.000941061048938998 0.000252299754079271 0.000725673928856709 0.000390841755698067 0.000170961831336615 0.000501032013174453 0.000445907036669917 0.000298933069391504 0.000402717752446478 0.000152158169390556 0.000674067829585993 0.00150143162039925 0.00037194114293304 0.00316022285379454 -0.00124520632622468 -0.00162834071674408
"30" 0.000950560900016227 0.000268936669326749 0.000735869735499079 0.000391214188392629 0.000166497308663711 0.000493253978555954 0.000451025532466788 0.000296807267334588 0.00035795435332047 5.63108430088884e-05 0.000674187904764275 0.00166301957388573 0.000318103241763083 0.00330188568523764 -0.00124707185536717 -0.00172631782435754
"31" 0.000958282988861342 0.000284057786596526 0.000744354830064795 0.00039062230715774 0.0001623351781023 0.00048445469696677 0.000455597078806334 0.000292611385349752 0.000307438558942888 -3.89143880668035e-05 0.000669630353522807 0.00181682831080435 0.00025833694209517 0.00343247391751119 -0.00124589920557225 -0.00182748967121035
"32" 0.000964225254393532 0.000297625093553114 0.000751158813204829 0.000389050934115355 0.000158462454309794 0.000474622268310508 0.000459560731942376 0.000286283269385894 0.000252410317012063 -0.000133271644634006 0.000660733850185013 0.00196201693309537 0.000193632124408034 0.00355020214651064 -0.00124133182985797 -0.00192949772425151
"33" 0.000968401127700258 0.000309602686669614 0.00075632168494592 0.000386494576966721 0.000154865434679701 0.00046374604507978 0.000462860794744795 0.000277780615416587 0.000194138032342818 -0.00022653787320552 0.000647843009551967 0.00209778769604491 0.000125008528658372 0.00365333759367445 -0.00123304530072541 -0.00202996989517641
"34" 0.000970839477272183 0.000319966153220363 0.000759885916193448 0.000382953259879671 0.000151531123826646 0.000451827824976385 0.000465446551485157 0.000267070884099838 0.000133913783324726 -0.000318504716832633 0.000631317564044256 0.00222341259451258 5.3493163844406e-05 0.00374019270720763 -0.00122076354989433 -0.00212652875041244
"35" 0.000971580865024001 0.000328704994436677 0.000761907432331627 0.000378427008525859 0.000148447082869253 0.000438867358195988 0.000467275602889591 0.000254144099243009 7.30262073330662e-05 -0.000408996114279039 0.00061153991752084 0.00233821664235764 -1.98865219484682e-05 0.00380917435461087 -0.00120424494350067 -0.00221683880502546
"36" 0.00097068541090709 0.000335813459064761 0.000762455484636375 0.000372928120807139 0.00014559632416076 0.000424883039223713 0.00046830571461967 0.000238999372282999 1.27412253829245e-05 -0.000497847332325601 0.000588890667988178 0.00244161556603041 -9.41348767794088e-05 0.00385878180778857 -0.0011832978218553 -0.00229863364218465
"37" 0.000968221664540432 0.000341298158340805 0.000761596753817665 0.000366469896383697 0.000142964239806265 0.000409886795028521 0.000468508485136863 0.000221658321582211 -4.57175831280424e-05 -0.000584922611253316 0.000563763068992314 0.00253309760259637 -0.000168300185771793 0.00388764692074612 -0.00115777597046513 -0.00236974340818457
"38" 0.000964270166706966 0.000345181286906052 0.000759414750264529 0.000359072352010624 0.000140537438393145 0.000393902841896415 0.000467854645287434 0.000202159115799036 -0.000101183398536614 -0.000670113791556574 0.000536565889618593 0.00261224997972963 -0.000241473050386593 0.00389452996693248 -0.0011275903970535 -0.00242812501526543
"39" 0.000958917949231025 0.000347488347553949 0.000755998861284355 0.000350761872918515 0.000138294189782002 0.000376961454335576 0.000466332283694967 0.000180552638878684 -0.000152571482336197 -0.000753331117662393 0.000507713536894235 0.00267876005108914 -0.000312817061744634 0.00387836683174655 -0.0010927017527899 -0.00247188440708554
"40" 0.000952261421338189 0.000348263545853883 0.000751432204992257 0.000341569534063961 0.000136226322323526 0.00035909731951097 0.000463925587862641 0.000156913766400744 -0.00019888807969561 -0.000834508925887911 0.0004776224037137 0.00273241599964502 -0.00038157450715272 0.00383825426562523 -0.00105313898524659 -0.00249930991573615
"41" 0.00094440170766661 0.000347556312348308 0.000745815921572398 0.000331529844112499 0.00013431179741693 0.00034034492042413 0.000460628107612431 0.0001313280748768 -0.000239231422865472 -0.000913610450970754 0.000446718237575897 0.00277312769256931 -0.000447057781766344 0.00377348598210393 -0.00100898546563751 -0.00250886898477268
"42" 0.000935448323857561 0.000345432124259021 0.000739254657235279 0.000320685501750412 0.000132540186128855 0.000320751783237785 0.000456449335220504 0.000103905912164279 -0.00027281915104667 -0.000990614312558418 0.000415439697449085 0.0028009201338999 -0.000508678178532072 0.00368355313376209 -0.000960398598876093 -0.0024992495722788
"43" 0.000925507809738537 0.000341962565446231 0.000731842822281968 0.000309081203666198 0.000130891331476819 0.000300366177894855 0.000451396339681666 7.47649867895557e-05 -0.000298980607405426 -0.00106551987144646 0.000384219033008658 0.00281593879104013 -0.000565934149513851 0.0035681731928194 -0.000907591328382656 -0.00246935050248891
"44" 0.00091468778323659 0.000337235254699465 0.000723693766235393 0.000296772591130696 0.000129352477529848 0.000279239250900048 0.000445487770655418 4.40453551845327e-05 -0.000317172971835966 -0.00113834539071487 0.000353492636586938 0.00281845087884166 -0.00061841823161545 0.00342728081839309 -0.000850856783480175 -0.00241830961284787
"45" 0.000903097804124835 0.000331339322474576 0.000714912526510349 0.000283811560064501 0.000127906849243349 0.00025742930816584 0.000438747141884282 1.18989240323005e-05 -0.000326962833717777 -0.00120912313902635 0.000323704300405984 0.00280884862676906 -0.000665834333525543 0.00326104295626136 -0.00079055062502223 -0.00234549356260417
"46" 0.00089084242098735 0.00032438228821499 0.000705610439214846 0.000270261723489011 0.000126543878708002 0.000234989345867471 0.000431208990463085 -2.15063850352011e-05 -0.000328052984697842 -0.00127789415223912 0.000295295623938629 0.00278764251168642 -0.000707964728384907 0.00306985334486064 -0.000727081471443859 -0.00225052645324436
"47" 0.000878018503935463 0.00031647542057638 0.000695894663376608 0.000256189465962908 0.000125243465713745 0.000211989484181481 0.000422906339555786 -5.59892347535331e-05 -0.000320267634111162 -0.00134471022627197 0.000268710878326084 0.00275545767552126 -0.000744699782189977 0.00285433457799851 -0.00066092687015644 -0.00213326847038293
"48" 0.000864723887496012 0.000307731733003451 0.000685868613145113 0.000241660659056819 0.000123994780091354 0.000188487645179702 0.000413888494693251 -9.13587792848428e-05 -0.000303558027771735 -0.00140960866958547 0.00024439369102394 0.00271303140479891 -0.000776029039184931 0.00261536477766283 -0.000592629876489991 -0.0019938371481888
"49" 0.000851049046603244 0.000298275766791203 0.000675636359699671 0.000226751529289288 0.000122783396320166 0.000164554913079053 0.000404201566511525 -0.000127409708715433 -0.000278000837524179 -0.00147264980292369 0.000222784635867179 0.00266119701930161 -0.000802029257026461 0.00235402561336276 -0.000522775340537378 -0.00183259643828203
"50" 0.00083706996443113 0.000288239704718644 0.000665304028198528 0.000211536198324826 0.000121597159473826 0.000140255998056169 0.000393900191189501 -0.000163928604610356 -0.00024379342265929 -0.00153386417476144 0.000204329280915166 0.00260088172921487 -0.000822862432892152 0.00207164349716576 -0.000451989695457573 -0.00165015595681162
"51" 0.00082286454182824 0.000277754156108018 0.000654963015243248 0.00019609506448306 0.000120419448735586 0.000115661747281771 0.00038304697534846 -0.000200694164611837 -0.000201242913059199 -0.00159328763329518 0.000189466236561145 0.00253308897457986 -0.000838770539913111 0.00176974007453186 -0.000380944501747004 -0.00144736984370434
"52" 0.000808494364108627 0.000266948038554002 0.000644699376799467 0.000180507761876736 0.000119240431290997 9.0847228419963e-05 0.000371706029312819 -0.000237484390676291 -0.000150779689875391 -0.00165092629985198 0.000178633842556759 0.0024588883885918 -0.000850090313116941 0.0014500471007354 -0.000310338950581949 -0.00122532287912123
"53" 0.000794011071769842 0.000255953135040782 0.000634601280149718 0.000164857016709229 0.000118049005038989 6.58781387195132e-05 0.000359942390520395 -0.00027406717932707 -9.29275835255273e-05 -0.00170676312895266 0.000172261948288325 0.00237940538569827 -0.000857210748215464 0.00111449036658296 -0.000240880572315728 -0.000985338061294831
"54" 0.000779466029153704 0.000244902062981709 0.000624737812916237 0.000149222274908505 0.000116832428189102 4.08277625091272e-05 0.000347828805563274 -0.000310209362361817 -2.8315339553004e-05 -0.00176075890562098 0.00017077958573997 0.00229579603380504 -0.000860597411739185 0.000765152610204579 -0.000173290393167153 -0.00072894434719944
"55" 0.000764888910756367 0.000233919432537375 0.000615173587269984 0.000133688821166629 0.000115576526513078 1.57690686091354e-05 0.000335433344922079 -0.000345681793434602 4.23344537759958e-05 -0.00181284041236228 0.000174596538479727 0.00220923751183162 -0.000860755235548196 0.000404293564436389 -0.000108283684695306 -0.000457895243783586
"56" 0.000750312970128772 0.000223124295172039 0.000605957301475276 0.000118335361251781 0.000114277831915579 -9.22594935289618e-06 0.000322830929374179 -0.000380258013709641 0.000118221275126674 -0.00186289442796511 0.000184112881226484 0.00212091210912309 -0.000858244905614306 3.43044056332955e-05 -4.65446871446743e-05 -0.000174139326846647
"57" 0.000735754909410948 0.00021262667463734 0.000597132354394102 0.000103239585109751 0.000112919079817409 -3.40908428651495e-05 0.000310095023842113 -0.000413713313968107 0.000198457881816974 -0.00191076818463961 0.000199702546633851 0.00203199090220061 -0.000853657371264969 -0.000342307260967267 1.12678470025983e-05 0.000120194787850102
"58" 0.00072122632071576 0.000202529037672761 0.000588725154393339 8.84794873014177e-05 0.000111494427811778 -5.87531553517956e-05 0.000297297903043362 -0.000445831093774805 0.000282089354168461 -0.00195626269058636 0.000221712601690517 0.00194361833197658 -0.000847619935062165 -0.000722941730303781 6.45441835706112e-05 0.00042279547449443
"59" 0.000706727620613192 0.000192925353857461 0.000580745860071892 7.4121468445634e-05 0.000109994939980288 -8.31511742104282e-05 0.000284510739147943 -0.000476406719518053 0.000368102156702061 -0.0019991509978996 0.000250463979989444 0.00185689264354925 -0.000840746073975727 -0.00110493561026643 0.00011275503787993 0.000731205691431863
"60" 0.000692260544119871 0.000183895762353097 0.000573200040170927 6.02349939382543e-05 0.00010841429006856 -0.00010721168285141 0.000271806873126103 -0.00050524443541394 0.000455447707062653 -0.00203915626792676 0.000286228689973307 0.00177286000667555 -0.000833665447430888 -0.00148558218064858 0.00015542898047933 0.00104282843364199
"61" 0.000677815148446383 0.000175508645542047 0.00056606853989818 4.68823594036781e-05 0.0001067429255178 -0.00013087732084008 0.000259248783752908 -0.000532164540005641 0.00054303055353524 -0.00207596393720616 0.000329229876574221 0.00169250290911251 -0.000826990691769627 -0.00186215938133319 0.000192186227835219 0.00135495483472423
"62" 0.000663375847190807 0.000167815230353608 0.000559323942521542 3.4115682207185e-05 0.000104978517598969 -0.000154087206505283 0.000246901276690829 -0.000557004107273289 0.000629742704667736 -0.0021092190891699 0.000379648941950285 0.00161671751024865 -0.000821314740987287 -0.00223195934900555 0.0002227451456232 0.00166477938313153
"63" 0.000648933578991804 0.000160856731880967 0.000552929465744064 2.1984065335278e-05 0.000103114159525279 -0.000176782309507674 0.000234826239556477 -0.000579615251852094 0.000714451591234631 -0.00213854115237444 0.000437590877903087 0.00154631872161415 -0.000817185537490713 -0.00259232076701021 0.000246933974880242 0.00196943847370122
"64" 0.000634469450645018 0.000154661172425422 0.000546833501494696 1.05266450563237e-05 0.000101146794370142 -0.000198908754823009 0.000223078727722617 -0.000599867979316119 0.000796043701618515 -0.00216352834983132 0.000503096708511034 0.00148202529394366 -0.000815119487695596 -0.00294064877235081 0.000264686734172221 0.00226601182801471
"65" 0.000619960629701459 0.0001492411360554 0.00054096811501133 -2.2147548819663e-07 9.90749583201442e-05 -0.000220417775076391 0.000211707248059323 -0.00061765681606483 0.000873432280503088 -0.00218376393160581 0.000576132046849669 0.00142445321371526 -0.000815559251525841 -0.00327444917495385 0.000276068125542659 0.00255158407750641
"66" 0.00060539210030153 0.000144589921212889 0.000535264068771541 -1.02341379110559e-05 9.69005893538806e-05 -0.00024126429513649 0.000200762266308439 -0.000632900139248171 0.000945561776219925 -0.00219882083042129 0.000656560359199831 0.00137411826888486 -0.000818898491799338 -0.0035913607105578 0.000281247770150726 0.00282325932488102
"67" 0.000590747018917019 0.00014070494697536 0.000529643371889195 -1.94967825596885e-05 9.46182254927463e-05 -0.000261405294769113 0.000190278584437138 -0.000645530645757044 0.00101142680070531 -0.00220827972485695 0.000744173158083848 0.00133143035201021 -0.000825438543899626 -0.00388916808619276 0.000280520276970668 0.00307818616030946
"68" 0.000576009426005013 0.000137556589814719 0.000524019328755072 -2.79954918271917e-05 9.22374612693668e-05 -0.000280803577489153 0.000180299247914902 -0.000655511427988898 0.0010700947909888 -0.00221173105673625 0.000838645144941492 0.00129668847494385 -0.000835411862967103 -0.00416583788155345 0.000274278933137411 0.00331361658056541
"69" 0.000561166115925913 0.000135114194252287 0.000518308885480593 -3.57306821625913e-05 8.97583009739189e-05 -0.000299428708589508 0.000170848683931381 -0.000662827394182575 0.00112073251634577 -0.0022087944790749 0.00093956303466101 0.00127008968852689 -0.000848963024692542 -0.00441954632903333 0.000263036909803853 0.00352692963121133
"70" 0.000546211377036394 0.00013333811600828 0.000512421764936462 -4.27038853921332e-05 8.71913747779937e-05 -0.000317252378861566 0.000161952920744663 -0.000667483652438356 0.00116260639928469 -0.0021991265968198 0.00104638359932758 0.00125172430219287 -0.000866150908145112 -0.00464869389558163 0.000247382822561775 0.00371568022886546
"71" 0.000531140620377957 0.000132174160680024 0.000506276174316094 -4.89266193635327e-05 8.45410636486824e-05 -0.000334253515480422 0.000153630586190175 -0.000669511226096494 0.00119510385344083 -0.00218242823585719 0.00115845914309636 0.00124158444031848 -0.000886952943726439 -0.00485192663769507 0.000227997457015176 0.00387763016727249
"72" 0.000515958012552537 0.000131574501907259 0.000499792705612547 -5.44149172294715e-05 8.18188132372609e-05 -0.000350414468690186 0.000145900177293238 -0.000668963663890665 0.00121774796936733 -0.00215846071378863 0.00127503226475746 0.00123955904848129 -0.000911244918474577 -0.00502815496229313 0.000205623564243396 0.00401079720516021
"73" 0.000500672848460638 0.000131481554839395 0.000492896574407699 -5.91929765596591e-05 7.90361048438417e-05 -0.000365720309778037 0.000138768855930687 -0.000665915620854276 0.00123021219570513 -0.00212704295498151 0.00139522667366056 0.00124544725216087 -0.00093884045791614 -0.00517655743494479 0.000181048615046483 0.00411348557058067
"74" 0.000485297424380044 0.000131834637989013 0.000485523866776059 -6.32882488766649e-05 7.62049283817881e-05 -0.000380167826712847 0.000132242989180573 -0.000660463991003358 0.00123233530820611 -0.002088084411605 0.00151805786242995 0.00125896043596504 -0.00096945653065755 -0.00529660105858797 0.000155112890001622 0.0041843254010598
"75" 0.000469857348035713 0.000132578282654598 0.000477625028998406 -6.67318049552432e-05 7.33420551546089e-05 -0.00039375134359999 0.000126323990259227 -0.000652719159744 0.00122412044894091 -0.00204156309487761 0.00164244211067514 0.00127972867684885 -0.00100274940900796 -0.00538803988682746 0.000128651909498445 0.00422229463483037
"76" 0.000454377303249628 0.000133648262341698 0.000469154738575369 -6.95596391796619e-05 7.04600101261147e-05 -0.00040647294687399 0.000121010462337909 -0.000642818073617573 0.00120574586774013 -0.0019875503542011 0.00176718603902274 0.00130730875824823 -0.00103830756511298 -0.00545091307786281 0.000102516590105569 0.00422675918743053
"77" 0.000438893075535676 0.000134986250195607 0.000460084003671104 -7.1812429802939e-05 6.75796212017729e-05 -0.000418339806950075 0.000116293596800059 -0.000630901442795654 0.0011775658454762 -0.00192620025179208 0.00189101941851625 0.00134118640448751 -0.00107567040013761 -0.00548553526383805 7.7539835405504e-05 0.0041974654141798
"78" 0.000423447270682757 0.000136541387600071 0.000450403242713621 -7.35333008960443e-05 6.47161350935416e-05 -0.000429358899151752 0.000112168753505319 -0.000617134360214706 0.00114009860131669 -0.00185776379791495 0.0020125961888473 0.00138078694987661 -0.00111432284271906 -0.00549251732230695 5.45342184026594e-05 0.00413457728218882
"79" 0.00040808623344497 0.000138260526322919 0.000440115147887802 -7.47637362125222e-05 6.18877554960907e-05 -0.000439542528289304 0.000108620128723724 -0.000601688772681557 0.00109403854331517 -0.00178256069915605 0.00213051294779686 0.00142548669477878 -0.00115372020395544 -0.00547270925491877 3.42596710274713e-05 0.00403866308460971
"80" 0.000392861085503872 0.000140098139625871 0.000429228706888294 -7.55555755541571e-05 5.91133520161666e-05 -0.000448903504522997 0.000105637218638774 -0.000584744698713063 0.00104022396080716 -0.0017009962642843 0.002243323323691 0.00147461147858564 -0.0011932818444941 -0.00542721293033194 1.74348219515511e-05 0.00391068377048234
"81" 0.000377833776636403 0.000142008102085068 0.000417779930104667 -7.59510620178404e-05 5.64105321827328e-05 -0.000457459829100049 0.000103198726279326 -0.000566494370076753 0.000979627725890589 -0.00161355024211159 0.00234955666929643 0.00152745264079304 -0.00123241716654318 -0.00535737010569571 4.72239965238337e-06 0.00375199747485464
"82" 0.00036306032208666 0.000143953702358574 0.000405809684264943 -7.60012439281945e-05 5.3798170824595e-05 -0.000465229406305571 0.000101292549450414 -0.000547129729544998 0.000913340862031883 -0.00152075425182848 0.00244774319979173 0.00158326906814661 -0.00127051298356722 -0.00526470840717185 -3.27495825573427e-06 0.00356431752147861
"83" 0.000348607366697094 0.000145908780801993 0.000393379030769352 -7.57550162010603e-05 5.1296427172208e-05 -0.000472230558889483 9.98940157690812e-05 -0.000526845864593445 0.000842554443306338 -0.00142320654325834 0.00253643670631231 0.00164129424016102 -0.00130694623068007 -0.00515095298432002 -6.01329919233966e-06 0.00334969232236302
"84" 0.000334542376403548 0.000147837960313262 0.000380549568685521 -7.52614013963776e-05 4.89225227818115e-05 -0.000478486499771542 9.898244587824e-05 -0.00050583960395041 0.000768535707321268 -0.00132153149262622 0.00261421270928609 0.00170075956623668 -0.00134111763135705 -0.0050179663250424 -3.03733702807796e-06 0.00311046790830687
"85" 0.000320933268859883 0.000149726033279987 0.000367407111954434 -7.45653452038298e-05 4.66905228470568e-05 -0.000484012229314594 9.85380796682631e-05 -0.000484306618406549 0.000692594847322539 -0.00121640642686668 0.00267973468171482 0.00176087779080202 -0.0013724099357251 -0.00486774312342882 6.06253991827796e-06 0.00284923698396065
"86" 0.000307848113835683 0.000151553759560308 0.000354033192516649 -7.37163441574081e-05 4.46182614668814e-05 -0.000488830000474584 9.85339485221254e-05 -0.00046243325590275 0.000616063931912994 -0.00110852224367129 0.00273174264606583 0.00182088112388284 -0.00140022442655779 -0.0047023867707703 2.16217510620669e-05 0.00256881493386976
"87" 0.000295356630646086 0.000153315239384567 0.000340527807048112 -7.27610191111006e-05 4.27194980914739e-05 -0.000492958945839714 9.89509914570305e-05 -0.000440409397965528 0.000540268333663668 -0.000998580065701189 0.0027690838292855 0.0018799948170536 -0.00142397158579864 -0.00452405458378152 4.39169163439928e-05 0.00227217352262577
"88" 0.000283518654583122 0.000155001412637608 0.00032698779764879 -7.17422583684129e-05 4.10099443200178e-05 -0.000496415191334885 9.97631731579925e-05 -0.000418404780737304 0.000466496705167365 -0.00088728523359162 0.00279072853774337 0.00193747951660427 -0.00144308861492682 -0.0043349560863765 7.31528712059176e-05 0.00196239906702995
"89" 0.000272399543803799 0.00015661156068344 0.000313517697775112 -7.07035456145142e-05 3.94986972756083e-05 -0.000499216928776898 0.000100946317454397 -0.000396588680109657 0.000395987351577171 -0.00077534109526399 0.00279580478456254 0.00199260942504388 -0.00145703044874637 -0.00413733115469823 0.000109481996702581 0.00164266202263654
"90" 0.000262054457223674 0.000158157166888656 0.000300222548078883 -6.96848468476438e-05 3.8201007198555e-05 -0.0005013809945068 0.000102475824529402 -0.000375115033954003 0.000329886847043953 -0.000663432109810168 0.00278359942478066 0.00204470538829178 -0.00146527074085898 -0.00393341095531246 0.000153002657852714 0.0013161500974165
"91" 0.000252540434276962 0.00015963670050068 0.000287214269243483 -6.87273978820494e-05 3.71200024102416e-05 -0.000502917571541948 0.000104327909437481 -0.000354128836324009 0.000269260576256985 -0.000552229221030717 0.00275355947370867 0.00209312304720799 -0.00146731831430637 -0.00372540476636676 0.00020375611425367 0.00098604103568665
"92" 0.000243903297053541 0.000161077121919675 0.00027459507879832 -6.78626167558489e-05 3.62680962574738e-05 -0.000503840011968663 0.000106480807898586 -0.000333755052319041 0.000215031987110696 -0.000442378637300019 0.00270534601609366 0.00213726940016051 -0.0014627003817564 -0.00351548236963892 0.000261722933401031 0.000655461240855563
"93" 0.000236178978647399 0.000162484741221555 0.000262468721850498 -6.71300069713448e-05 3.56514992014497e-05 -0.00050415804719216 0.000108910566111546 -0.000314115734853512 0.000167993889675526 -0.000334497572985099 0.0026387933090146 0.00217660789247993 -0.00145098517377272 -0.00330574962169427 0.00032683881754085 0.000327462106650583
"94" 0.000229399841021478 0.000163885894362063 0.000250938300697488 -6.65578667193011e-05 3.52692057017467e-05 -0.000503880909670749 0.0001115976072069 -0.000295308713446765 0.000128797732769059 -0.000229179727495475 0.00255394456605026 0.0022106584818421 -0.00143176519069974 -0.00309824475299001 0.000398993960489866 4.97099449542699e-06
"95" 0.000223588643105553 0.000165301891228101 0.000240100718542419 -6.6176423808754e-05 3.51301548646716e-05 -0.000503012483910541 0.00011451801470736 -0.000277419603391677 9.79437214921872e-05 -0.000126979311154641 0.00245105095466412 0.00223900709553782 -0.00140467728465173 -0.00289491398320453 0.000478017647931426 -0.000309217355414395
"96" 0.000218763733863434 0.000166762157779288 0.000230044028374664 -6.60140381788699e-05 3.52345519058868e-05 -0.00050156100324138 0.000117654437475627 -0.000260518606963791 7.57676842021364e-05 -2.84200048315921e-05 0.00233055974335032 0.00226130855392913 -0.00136939357340914 -0.00269758694041353 0.000563698109079407 -0.000612464825389691
"97" 0.00021492279285687 0.000168296416278129 0.000220854732881878 -6.60922360898246e-05 3.55808603086393e-05 -0.000499528434005833 0.000120985779738106 -0.000244661211767729 6.24471313436764e-05 6.60150577024911e-05 0.0021931255969088 0.00227729161156235 -0.00132563718181879 -0.0025079898877661 0.000655761333222781 -0.000902309132507475
"98" 0.000212065752199401 0.000169930567950178 0.000212605725904752 -6.64362202680942e-05 3.61692080457124e-05 -0.000496915469981198 0.000124495824773195 -0.00022988848809209 5.79961861618203e-05 0.000155885866033161 0.0020396030557457 0.00228676197323089 -0.00127317044576159 -0.00232772583772679 0.000753898647073215 -0.00117648068623994
"99" 0.000210172001537906 0.000171701651470061 0.000205369578840442 -6.70627189277156e-05 3.69945850551012e-05 -0.000493725970239984 0.000128174382371917 -0.000216225226829148 6.22716202864042e-05 0.000240784620699952 0.00187102908127421 0.00228959657206579 -0.00121181239635366 -0.00215824695586856 0.000857735426765578 -0.00143290238163457
"100" 0.000209216223597969 0.000173639271356885 0.000199199392898524 -6.79908582734121e-05 3.80539018721082e-05 -0.000489957193476435 0.000132001171540222 -0.000203682326827591 7.49812580094137e-05 0.000320349330615272 0.00168863007642183 0.00228575532893601 -0.00114142487284407 -0.00200088205984441 0.000966853670044851 -0.00166969826949035
"101" 0.000209159764947072 0.000175776231118015 0.000194151994943012 -6.92327317863341e-05 3.93440612420795e-05 -0.000485612527872963 0.000135964556316605 -0.000192255977132134 9.56925023431791e-05 0.000394264699219726 0.00149379506442605 0.00227527655892972 -0.00106194425306309 -0.00185680708738844 0.0010807809808599 -0.00188520571000209
"102" 0.000209955274250796 0.000178148334581196 0.000190263855916899 -7.08007422640578e-05 4.08593470591267e-05 -0.000480690187318295 0.00014005858601899 -0.000181930191835799 0.000123831965761592 0.000462258049418428 0.00128806034703027 0.00225826949439464 -0.000973351083043795 -0.00172704497705521 0.00119899434435716 -0.00207797735304519
"103" 0.000211542837534654 0.000180786292923178 0.000187563828775732 -7.27039810760662e-05 4.25875528254455e-05 -0.000475192927825437 0.000144268286716863 -0.000172681872036916 0.000158707383515715 0.00052410548245874 0.00107311664543597 0.00223492384415777 -0.000875707045566702 -0.0016124738115398 0.00132091219674856 -0.00224677102952093
"104" 0.000213856724350215 0.000183722413945777 0.000186073194154527 -7.49483936843967e-05 4.45267985533942e-05 -0.000469118765311388 0.000148590877290893 -0.000164465403903462 0.000199517742783004 0.00057962137025496 0.000850766270318448 0.0022054948434257 -0.00076912270730278 -0.00151380572398626 0.00144591917348216 -0.0023905553211271
"105" 0.000216821318077804 0.00018698477250378 0.000185803389632717 -7.7538030115791e-05 4.66645395195345e-05 -0.000462475288663617 0.00015302083652617 -0.000157233706177742 0.000245358685410028 0.000628677915339598 0.000622899802090863 0.00217031010016049 -0.000653807385193089 -0.00143160210292842 0.00157334076191925 -0.00250851387366134
"106" 0.000220347993237317 0.000190602919382185 0.000186752116845261 -8.04716954170694e-05 4.89973989716738e-05 -0.000455259641909749 0.000157549795573343 -0.000150927042861672 0.00029525436861815 0.000671194618946861 0.00039150794135725 0.00212975539719607 -0.000530032060248973 -0.00136624344386546 0.00170245125172998 -0.00260004003133533
"107" 0.000224341963438894 0.000194601189227182 0.000188904379978309 -8.37472577435485e-05 5.15124728182895e-05 -0.000447481699024389 0.000162182254543484 -0.000145474895226633 0.000348165782101087 0.000707133705543715 0.000158651294884687 0.00208427757496603 -0.000398137904016744 -0.00131797558588095 0.00183249061077717 -0.002664733228398
"108" 0.00022870921064443 0.000199003756559292 0.000192242594559581 -8.73600924436694e-05 5.42020603685248e-05 -0.000439148536013094 0.000166914116986288 -0.000140810247528727 0.000402991952154622 0.000736517132132184 -7.35881855158478e-05 0.00203436872120243 -0.000258550945897752 -0.0012868633897274 0.00196265736411421 -0.00270239753274503
"109" 0.000233337645312652 0.000203823320686978 0.000196731848793378 -9.12998498559692e-05 5.70606522675528e-05 -0.000430264878033209 0.000171747887204673 -0.000136844101043275 0.000458611639608722 0.000759424401706526 -0.000303095230884289 0.0019805692135791 -0.000111792672119803 -0.00127280402662242 0.00209210670888673 -0.00271305153086145
"110" 0.000238120512038609 0.00020908175279406 0.000202333514689923 -9.5557010386615e-05 6.0076776740735e-05 -0.000420848289356038 0.000176685714784791 -0.000133488870191411 0.000513872083787674 0.000775972807693047 -0.000527746952935334 0.00192345808719624 4.15590582982428e-05 -0.00127554877646719 0.0022199791622765 -0.00269690959293647
"111" 0.000242939725311153 0.000214788647050249 0.000208988806245193 -0.000100112626822469 6.32442030746246e-05 -0.000410908713872622 0.000181730412203028 -0.000130658689363185 0.000567616274905107 0.000786345244147355 -0.000745449165167481 0.00186363849329699 0.000200828542425267 -0.00129469074425464 0.00234538352742298 -0.00265438908973765
"112" 0.000247682401252213 0.000220949294947981 0.000216640943033721 -0.000104949643858188 6.6558995261736e-05 -0.000400464881473225 0.000186887865575814 -0.000128258055150004 0.000618703631079908 0.00079077925435335 -0.000954147422680549 0.00180174301653721 0.000365264558030893 -0.00132966911597143 0.0024674171868536 -0.00258610755251846
"113" 0.000252228157314755 0.000227565124987298 0.000225218825592878 -0.000110045674954207 7.00093986743636e-05 -0.000389539079002434 0.000192164767768014 -0.000126192669418106 0.000666009146375298 0.00078955434205144 -0.00115184248224247 0.00173841466698393 0.000534040555574709 -0.00137977412303154 0.0025851713987082 -0.00249289230084751
"114" 0.000256459119822345 0.000234632353872109 0.000234636478762736 -0.000115375855650871 7.35948985743113e-05 -0.000378154442822304 0.000197563951101111 -0.000124366201719895 0.00070844393942592 0.000783004243809659 -0.00133661615613338 0.00167430522843891 0.000706244946389669 -0.00144415648861818 0.00269775044360729 -0.00237576239758152
"115" 0.000260261379140307 0.000242147096317216 0.000244814054485658 -0.000120912841161758 7.73094459952126e-05 -0.000366335345482797 0.000203091719126006 -0.000122678726960579 0.000744967614038136 0.000771508028991812 -0.00150663157096938 0.00161006383692094 0.000880902152935149 -0.00152183922088367 0.00280426108658236 -0.00223594957811159
"116" 0.000263515099075434 0.000250096207969393 0.000255650306142879 -0.000126621168019196 8.1146426109164e-05 -0.000354114887761552 0.000208752885522707 -0.000121038046624967 0.000774607475448351 0.000755492022880714 -0.00166017896692401 0.0015463353675872 0.0010569602755219 -0.00161170806152697 0.00290385149095457 -0.00207487011349236
"117" 0.000266112754065202 0.000258459258917522 0.000267040886735737 -0.000132469254885794 8.51065245574705e-05 -0.000341524837626661 0.000214551081285459 -0.000119353410813655 0.000796458974030381 0.000735428539867263 -0.00179566315829578 0.00148375398325834 0.00123331276078298 -0.0017125407353162 0.00299569473112409 -0.00189414846896189
"118" 0.000267952232510868 0.000267214752125247 0.000278875726556848 -0.000138418641407927 8.91841066819307e-05 -0.00032860341235469 0.000220493412768571 -0.000117533783219938 0.000809696063649693 0.000711832331538251 -0.00191161948385836 0.00142292701245682 0.00140879597996342 -0.00182300677413027 0.00307902337423703 -0.00169559594985196
"119" 0.000268926052702273 0.000276336198965265 0.000291036793330357 -0.000144427591203466 9.33784176068959e-05 -0.000315391899969912 0.000226579967344451 -0.00011549377997102 0.000813578023143894 0.000685248960120814 -0.00200673741304021 0.00136444846518678 0.00158220139415043 -0.00194168726769718 0.00315312434132872 -0.00148121617606058
"120" 0.000268945838412666 0.000285793452167643 0.000303405853426681 -0.000150456682885817 9.76862684739849e-05 -0.000301934725227095 0.000232808065378098 -0.000113154580861722 0.000807474762106485 0.000656265388660033 -0.00207985894462655 0.00130886808827523 0.00175228641116472 -0.00206706638434339 0.00321736851849484 -0.00125319419877532
"121" 0.000267927551289749 0.000295551529512348 0.000315854042317454 -0.000156459214738703 0.000102106222019328 -0.000288275902615062 0.000239176979322377 -0.000110439439952166 0.000790842881831513 0.000625484568961398 -0.0021299799143927 0.00125670892292605 0.00191777761425987 -0.00219756758455354 0.00327120471693664 -0.00101388703964913
"122" 0.000265789011071931 0.000305566067330484 0.000328246169676179 -0.000162390550153924 0.000106633212942278 -0.000274469643253191 0.000245680135723888 -0.000107283249719671 0.000763259711505538 0.00059354058361301 -0.002156257987067 0.00120845625322156 0.00207739755180021 -0.00233155386988138 0.00331417667570006 -0.000765813520184933
"123" 0.000262464463019107 0.000315801296143754 0.000340456294153852 -0.00016820019233245 0.000111268768414295 -0.000260567274520425 0.000252312605215287 -0.000103619142992991 0.000724401665967093 0.000561064026372875 -0.00215802064964644 0.00116454382691034 0.00222987976039303 -0.00246735861656736 0.00334594251284094 -0.000511631931833766
"124" 0.000257898261880959 0.000326207760344061 0.000352344558486139 -0.000173843677590006 0.000116007999385749 -0.000246625888146583 0.000259064106712244 -9.93980027410439e-05 0.000674072970772846 0.000528712123647916 -0.0021347674692476 0.00112536777009695 0.00237396969467578 -0.00260326996951339 0.00336625973562476 -0.000254137203273621
"125" 0.000252041055805129 0.00033673510526247 0.000363774961363892 -0.000179269540532915 0.000120845296254677 -0.000232700460202529 0.000265916613590317 -9.45712163690619e-05 0.000612198331832641 0.00049712562424272 -0.00208617730183989 0.00109126677497902 0.00250846154167974 -0.00273759124915406 0.00337501995866266 3.79214656795102e-06
"126" 0.000244853975968244 0.000347338863040941 0.000374617029452411 -0.000184430874470627 0.000125777889751717 -0.000218851670656646 0.000272854126461327 -8.91014734319749e-05 0.000538811486421793 0.000466938852563574 -0.00201208137087547 0.00106252615464305 0.00263220358675294 -0.00286862247423183 0.00337222133634823 0.000259196291922012
"127" 0.000236314385514864 0.000357958636811974 0.000384732415332672 -0.000189278848977783 0.000130800714819399 -0.00020514187598443 0.000279857380093685 -8.29582162736426e-05 0.000454088150147174 0.000438769072658819 -0.00191251850549626 0.00103938182725878 0.00274413323063996 -0.00299469258979035 0.00335799456177388 0.000509084162177692
"128" 0.000226407563618468 0.000368549074448286 0.00039399513707037 -0.000193766964063646 0.000135905443909332 -0.000191631156331785 0.000286902573088679 -7.6123543650628e-05 0.000358322744768836 0.000413192865703109 -0.00178768134418544 0.00102200967813934 0.00284328366775615 -0.00311419577055633 0.00333259263503701 0.000750478232657172
"129" 0.000215132628846739 0.000379054052865494 0.00040228072068197 -0.000197848807459322 0.000141082667165843 -0.000178381113275029 0.000293961352258756 -6.85844861761208e-05 0.00025193738312007 0.000390752675599274 -0.00163794385661843 0.00101052019890071 0.00292880978197482 -0.0032255767152052 0.00329636940795464 0.00098043919434762
"130" 0.000202497936078058 0.000389416705351293 0.000409476274246103 -0.000201480566334749 0.00014632396035252 -0.000165453024813057 0.00030100833411349 -6.03379541828516e-05 0.000135490037736387 0.000371924492714745 -0.0014638788000019 0.00100497194423575 0.00299999087524446 -0.00332737757475245 0.00324978712347611 0.00119613381268644
"131" 0.000188530683909091 0.000399586157575591 0.00041547082847633 -0.000204621930305497 0.000151620982063145 -0.000152907464225087 0.000308008097856557 -5.13953378949253e-05 9.66273756095037e-06 0.000357119334227711 -0.00126623146021904 0.00100535949714626 0.0030562582796564 -0.00341824469111876 0.00319339981983197 0.00139487010844966
"132" 0.000173260147292513 0.00040950952680002 0.000420168436983167 -0.000207234107678434 0.000156959308088132 -0.000140802926607379 0.00031493210691181 -4.17669995303449e-05 -0.00012472544011868 0.000346671931243986 -0.00104595100478106 0.00101160882326271 0.00309720990990949 -0.00349695847561425 0.00312783643492427 0.00157415130090113
"133" 0.000156737886229382 0.000419129257021584 0.000423482398661922 -0.00020928574705887 0.000162328162212812 -0.000129193946345935 0.00032174092510911 -3.1481412437741e-05 -0.00026671823556962 0.00034083451132317 -0.000804170854309043 0.00102359079989484 0.00312259209815197 -0.00356243416768975 0.00305378892713753 0.00173172873145175
"134" 0.000139018120512811 0.000428405462216761 0.000425345525158635 -0.00021074270147188 0.000167713280357962 -0.000118132552190885 0.00032840483839681 -2.05739899346733e-05 -0.000415245350645232 0.00033974319189574 -0.000542233166275266 0.00104110743755878 0.0031323433266292 -0.00361377035268218 0.00297200462646704 0.00186565013078459
"135" 0.000120175946374655 0.000437285337720922 0.000425697729842431 -0.000211580274422379 0.000173101517762848 -0.000107671160055071 0.00033488310103692 -9.08657731478842e-06 -0.000569102083615065 0.000343452533322711 -0.00026166710605566 0.00106390304209303 0.00312655427878438 -0.00365022345556346 0.00288323594417663 0.00197428871401897
"136" 0.000100291255739205 0.000445722003916128 0.000424504524760244 -0.000211779602432549 0.000178473918565838 -9.78503625326523e-05 0.000341144556183948 2.92699212490574e-06 -0.000726976987686863 0.000351899123291529 3.57808914713479e-05 0.00109165656030329 0.00310548787989098 -0.00367125114180726 0.00278825609624082 0.00205639673547145
"137" 7.94539593887071e-05 0.000453677480217435 0.00042173742526598 -0.000211320382975017 0.000183818856728793 -8.87120897531628e-05 0.00034715330584377 1.54123509954495e-05 -0.000887440588486918 0.000364907010120973 0.000348180571205524 0.00112399202250072 0.00306956176674139 -0.00367649564571729 0.00268781661928756 0.00211111920581957
"138" 5.77661272647819e-05 0.000461110596510568 0.000417396233286243 -0.000210194891179094 0.000189115590114438 -8.0291037028546e-05 0.000352876656546737 2.83014009465876e-05 -0.00104899350346133 0.000382192535723596 0.000673399280446821 0.00116046914742307 0.00301935429854784 -0.0036657996401263 0.00258264403322879 0.00213801009854734
"139" 3.53405272101774e-05 0.000467989762157444 0.000411493709834184 -0.000208396353767755 0.000194351213166928 -7.26131823920918e-05 0.000358284617984185 4.15239354935809e-05 -0.00121004547028859 0.000403364652279733 0.00100912580109213 0.00120059903187572 0.00295556339955558 -0.00363921036232168 0.00247340806079237 0.00213704558469824
"140" 1.22877144508319e-05 0.000474276966357222 0.000404057284932161 -0.000205926660352449 0.000199507662808112 -6.57023819951521e-05 0.000363348796461067 5.4998107977107e-05 -0.00136896762218055 0.000427936887468267 0.00135288388969557 0.00124385139535127 0.00287900748181897 -0.00359695613229863 0.00236070817293222 0.00210861165128605
"141" -1.12667148539933e-05 0.000479955894458111 0.000395143012096974 -0.000202790825886334 0.000204568982574749 -5.95763736278381e-05 0.000368037124237033 6.8645151825576e-05 -0.00152410004393208 0.00045532637273878 0.00170204228739527 0.00128963719298444 0.00279060735570072 -0.00353946215177847 0.00224507625450314 0.00205349278428224
"142" -3.51942631807133e-05 0.000484996515330195 0.000384804273611064 -0.000199001753869007 0.000209514191649503 -5.42471154127678e-05 0.000372327895527971 8.23758726144417e-05 -0.00167378084592149 0.00048488247884682 0.00205384450699222 0.00133734288215639 0.00269134870100889 -0.00346730728320084 0.0021269489424031 0.00197285724964881
"143" -5.9368782133721e-05 0.000489385104382262 0.000373129254670311 -0.000194577160053215 0.000214333455391039 -4.97162966905155e-05 0.000376199726734874 9.61053113989626e-05 -0.00181638172573097 0.000515894260740679 0.00240543297654806 0.00138632224761046 0.00258228091446044 -0.00338124182074052 0.00200666982520035 0.00186820116958886
"144" -8.36572412834153e-05 0.00049310932717053 0.000360207545501275 -0.000189540883683721 0.000219005947937397 -4.59869239134208e-05 0.000379630922374783 0.000109739534330195 -0.00195032410828478 0.000547612451427104 0.00275388124782579 0.00143589840461065 0.00246450366721469 -0.00328213764916673 0.00188449388034745 0.00174133816041081
"145" -0.000107934831263337 0.000496160276951409 0.000346143133010921 -0.000183919781689464 0.000223512916282827 -4.30510382526092e-05 0.000382603814717982 0.000123191137938217 -0.00207410917503907 0.000579272791397228 0.00309622064089924 0.00148539167076019 0.00233912382598909 -0.00317098730644374 0.00176056206532558 0.00159432274501843
"146" -0.000132065385098847 0.000498537864191203 0.000331050727160456 -0.000177751689142992 0.00022784384980195 -4.08980543311993e-05 0.00038510286631847 0.000136370526318468 -0.00218635817902332 0.000610103045931252 0.00342948170399722 0.00153410156540182 0.00220727150415931 -0.00304887841362305 0.00163494823572508 0.00142943152431688
"147" -0.000155933856946201 0.000500247892595009 0.000315057462405546 -0.000171074237288642 0.000231978341093709 -3.95136964109267e-05 0.000387112104081508 0.000149186409669313 -0.00228582632338238 0.000639345876158141 0.00375074126714005 0.00158133689025546 0.00207006909225436 -0.00291696908770325 0.00150762442566342 0.00124908362776548
"148" -0.000179417943079355 0.000501292077204455 0.000298285095732476 -0.000163930579299127 0.000235903784729833 -3.88771602610045e-05 0.000388625532255072 0.000161557271755419 -0.00237142241669694 0.000666302889208356 0.00405713487262847 0.00162641813170913 0.00192861234896805 -0.00277644682004037 0.00137847059703197 0.00105581301375921
"149" -0.000202408973045118 0.000501685937888907 0.00028086472485342 -0.000156372448870323 0.000239604201765391 -3.89646120728438e-05 0.000389625209379798 0.000173395876178385 -0.00244224100215667 0.000690302535182412 0.00434593249212614 0.00166868400198365 0.00178399168404208 -0.00262854989147012 0.00124732249776029 0.000852210402434043
"150" -0.000224803993453813 0.000501446677677417 0.000262935173265949 -0.000148449601931359 0.000243061517251049 -3.97539840336013e-05 0.000390106426190909 0.000184627660859187 -0.00249756024611768 0.000710750257503693 0.00461454994727263 0.00170749226008338 0.00163725982840624 -0.00247449716222616 0.0011139466345918 0.000640895643401263
"151" -0.000246513085066163 0.000500596054724942 0.000244624575805059 -0.000140219845388289 0.000246264403017519 -4.12125912195717e-05 0.0003900600847263 0.000195178246870474 -0.00253686867779681 0.000727122084258023 0.00486059421399188 0.00174224909382424 0.00148943927713419 -0.0023155072722351 0.000978056915630127 0.000424461529805175
"152" -0.000267446759115752 0.000499157528696947 0.000226067728562612 -0.000131746259366391 0.000249195897316304 -4.33102241095344e-05 0.000389477503425756 0.000204981616598927 -0.00255985067541503 0.000738984926594411 0.00508189173691868 0.00177239380529823 0.00134150169721564 -0.00215275399227341 0.000839343759274459 0.000205445614259108
"153" -0.000287539002991865 0.000497158698453153 0.000207390874677748 -0.000123092169365767 0.000251839357744612 -4.60185631177111e-05 0.000388355689781894 0.000213971537448447 -0.00256640923415516 0.000745996638305653 0.00527652572631757 0.00179742254109601 0.00119438466188261 -0.00198736887081643 0.00069747619932262 -1.36874295930821e-05
"154" -0.000306727086141954 0.000494631093182824 0.000188720340552742 -0.00011432514255161 0.000254183636085754 -4.92972391870844e-05 0.000386688517194633 0.000222094124192604 -0.00255664611932724 0.000747901986470621 0.00544286144916583 0.0018168782099187 0.00104898042975034 -0.0018204261085013 0.000552109967351086 -0.000230575251952149
"155" -0.000324960379371832 0.000491605911347539 0.000170170872453158 -0.000105513000449519 0.000256213360871439 -5.31172852955937e-05 0.000384467789398222 0.000229299641278522 -0.00253087600161413 0.00074455365916339 0.00557957762327476 0.00183037138553398 0.000906136737574227 -0.00165292179084013 0.00040290570065021 -0.000442984774569256
"156" -0.000342206201211075 0.000488118234938576 0.000151851914536952 -9.67305858172533e-05 0.000257911250051345 -5.74439609321553e-05 0.000381693599375945 0.000235542216394733 -0.00248959370224355 0.000735896206271748 0.00568566828690264 0.0018375832582758 0.000766656946766598 -0.00148578258926353 0.000249556178436767 -0.000648809245428918
"157" -0.000358434664214698 0.000484196121711527 0.000133865011251897 -8.80497679374606e-05 0.000259266912456748 -6.22399920342109e-05 0.000378359943715116 0.000240784623148001 -0.00243348855290463 0.000721975976350223 0.00576045410944748 0.00183825383345186 0.000631294072113969 -0.00131983984294646 9.17714944061485e-05 -0.000846095258133362
"158" -0.000373637361061869 0.000479874973980056 0.000116307233378362 -7.95482462261998e-05 0.00026026600101847 -6.74741416765196e-05 0.000374461780501671 0.000244995221552351 -0.00236341392582643 0.000702918282238403 0.00580360135764032 0.0018322036956424 0.000500753013764541 -0.00115583248662521 -7.06988227742393e-05 -0.00103303855565828
"159" -0.000387805370895072 0.000475187225633829 9.92576263217068e-05 -7.13038023557815e-05 0.000260892244470687 -7.31102404519241e-05 0.000370000410371805 0.00024814869336165 -0.00228038233206108 0.000678936057219346 0.00581510948638229 0.00181932195903264 0.000375707406917531 -0.000994420737276885 -0.000238048693284712 -0.00120798153471934
"160" -0.000400950539830728 0.000470161319741684 8.27856951503568e-05 -6.33895019564618e-05 0.00026113200297457 -7.91166181552285e-05 0.000364969841774589 0.000250224208184025 -0.00218554702690768 0.000650338549307554 0.0057953133349511 0.00179957934257088 0.000256768503747713 -0.000836145237176181 -0.000410416632827764 -0.00136943622567808
"161" -0.000413087164392724 0.000464821417055262 6.69547338008738e-05 -5.5886418925689e-05 0.000260976690218387 -8.54659190571107e-05 0.000359369745707629 0.000251205968714908 -0.00208018219134848 0.000617505831326309 0.00574485702272141 0.0017730113852531 0.00014451344607209 -0.000681469145036014 -0.0005878746076361 -0.00151606301879974
"162" -0.000424242135816782 0.000459188315963124 5.18156137322441e-05 -4.88674345387849e-05 0.000260407614068469 -9.21232462317231e-05 0.000353200743574062 0.00025108885975622 -0.00196568472779325 0.000580893968357141 0.00566470438545057 0.00173973259052755 3.94806353752193e-05 -0.000530750364226484 -0.000770416634326078 -0.00164668222703148
"163" -0.000434447188713535 0.000453286018155233 3.74052345675904e-05 -4.24086078940457e-05 0.000259418889899151 -9.90626314664968e-05 0.000346459768539597 0.000249865714225634 -0.00184354616943987 0.000541029654895085 0.00555609537537781 0.00169992526934157 -5.78351644718986e-05 -0.000384262612747955 -0.000957961733539844 -0.00176026929754504
"164" -0.000443746519754103 0.000447126367328993 2.37459390117664e-05 -3.65801443988902e-05 0.000257993674466912 -0.000106258359002977 0.00033915293873114 0.000247539407830697 -0.00171533510603514 0.000498500570259435 0.0054205307427152 0.00165384582792317 -0.000146979977351468 -0.000242182158726855 -0.00115034504535283 -0.00185594708026005
"165" -0.000452182162659713 0.000440714756764109 1.08558269416016e-05 -3.14555593525524e-05 0.000256126434437822 -0.000113687678916659 0.000331278931280735 0.000244111435205461 -0.0015826814321612 0.000453959967540639 0.00525975758797224 0.00160181081609122 -0.000227537509763459 -0.000104592547841349 -0.00134730686091661 -0.00193299504543961
"166" -0.000459802381586186 0.000434057913253838 -1.26340956398849e-06 -2.70971349249276e-05 0.000253805056660068 -0.000121325829747923 0.000322846236824378 0.0002395993051061 -0.00144726008295002 0.000408114287282731 0.00507570963119983 0.00154419004907145 -0.000299135110424219 2.85014203422283e-05 -0.00154849979447757 -0.00199083782375303
"167" -0.000466663724816459 0.000427149948250079 -1.26268322050469e-05 -2.356736736567e-05 0.000251022784293815 -0.000129156239381371 0.000313857975136037 0.000234008939736065 -0.00131077683359977 0.000361733246338567 0.00487051319001712 0.00148142021729096 -0.0003614394065765 0.000157187126865687 -0.00175346933462224 -0.00202905692636498
"168" -0.000472817471648185 0.000419991713863486 -2.32473132028824e-05 -2.09185257207877e-05 0.00024777520396664 -0.000137157832046366 0.000304322651653688 0.000227363508467759 -0.00117495523693066 0.000315619386340412 0.00464643282760142 0.00141397886104643 -0.00041414534472284 0.000281617702152893 -0.00196166679776751 -0.00204737014884201
"169" -0.000478322238066283 0.000412562118668145 -3.31588952453764e-05 -1.92035603086772e-05 0.000244055457545672 -0.000145317329710675 0.000294253825183365 0.000219684689572974 -0.00104151481967163 0.000270636693461264 0.00440585963422586 0.00134238715908673 -0.000456998604843768 0.000402036656789235 -0.00217243925238804 -0.0020456648878058
"170" -0.00048323182543575 0.000404853621041999 -4.24005115595024e-05 -1.84603136877308e-05 0.000239860242510709 -0.000153622030284307 0.000283662670565725 0.000211002557852141 -0.000912155608882766 0.000227678198294939 0.00415127475036561 0.00126721250048065 -0.000489775759803045 0.000518744086502968 -0.00238503485143819 -0.00202396968473918
"171" -0.00048759624025491 0.000396841776133968 -5.10187048076724e-05 -1.87253338581064e-05 0.000235190802082805 -0.000162056658247528 0.000272567448008995 0.000201341681585171 -0.000788542963888356 0.000187679763424946 0.0038852168288743 0.00118904220070557 -0.0005123011168752 0.000632115667345793 -0.00259860345609123 -0.0019824674594007
"172" -0.000491466776156132 0.000388505934774502 -5.90748128830017e-05 -2.00218525497963e-05 0.000230048971129694 -0.000170615143901498 0.000260985576171229 0.000190738639509245 -0.000672281496949642 0.000151600446849246 0.00361026815877308 0.00110849088500959 -0.000524429459687955 0.00074256941086362 -0.00281218712209293 -0.00192150267756591
"173" -0.0004948873974806 0.000379820413703968 -6.66220066989691e-05 -2.2364138995025e-05 0.000224440696844509 -0.000179287786013406 0.000248940019240341 0.00017923366404394 -0.000564902478615038 0.000120433508242859 0.00332902126988082 0.00102619512067633 -0.000526064806120631 0.000850594729868366 -0.00302474442943765 -0.00184157397799902
"174" -0.000497900111033661 0.000370758897291088 -7.37324388712133e-05 -2.57592877934024e-05 0.000218372319596004 -0.00018806684619347 0.000236455065626328 0.000166869098454021 -0.000467857960951865 9.51772289254662e-05 0.00304405954528496 0.000942797034316119 -0.000517145226077101 0.000956709542726106 -0.0032351258661563 -0.00174333991404722
"175" -0.000500536210317011 0.000361301179904101 -8.04757628529019e-05 -3.0202929155221e-05 0.000211857616675748 -0.00019694870987911 0.000223562887975394 0.000153691143958621 -0.000382482824595655 7.68476294740616e-05 0.00275793088651362 0.000858946744983561 -0.000497662163713177 0.00106148720472127 -0.00344211554517822 -0.00162762462030283
"176" -0.000502827291015628 0.000351414768070636 -8.69224792355538e-05 -3.56767068186787e-05 0.000204906637728461 -0.000205924681914532 0.000210294995391826 0.0001397474366267 -0.000309992972129358 6.64539982954746e-05 0.00247314787821383 0.000775287436814464 -0.000467644115180529 0.00116551968459603 -0.00364439763403381 -0.00149540098319782
"177" -0.000504788823864435 0.00034108519606793 -9.31489718198698e-05 -4.21548735646305e-05 0.000197538113592016 -0.000214993713990502 0.000196687321231626 0.000125093896053851 -0.000251460737910076 6.49992274702097e-05 0.00219214804453806 0.000692463617402443 -0.000427171554350457 0.00126942543455478 -0.00384060063977489 -0.001347809703287
"178" -0.000506438472662825 0.000330287590233954 -9.92297313833101e-05 -4.96005545571762e-05 0.000189774047061992 -0.000224153560982023 0.000182778484864211 0.000109787599787217 -0.000207811005690736 7.34653682998194e-05 0.00191728534248857 0.00061109399000947 -0.00037636959652362 0.00137383313460909 -0.00402928312847112 -0.00118614814171789
"179" -0.00050778151962238 0.00031900451578043 -0.000105238231789385 -5.79677998919878e-05 0.000181633624933947 -0.000233395661704999 0.000168608844240907 9.38901173445051e-05 -0.000179800662308302 9.28001860081366e-05 0.00165081670929326 0.000531782874936593 -0.000315422334215487 0.00147936905700281 -0.00420895669739621 -0.00101185908494693
"180" -0.000508813244579281 0.000307225021846656 -0.000111241794568704 -6.71962907212944e-05 0.00017314399105539 -0.000242717509933651 0.000154224504995052 7.74637051990719e-05 -0.000167993077350458 0.000123902758294209 0.00139489430499481 0.000455116924323608 -0.000244564713517925 0.00158663871361217 -0.00437809456715388 -0.000826515893121998
"181" -0.000509521851187238 0.000294941210124296 -0.000117308071823559 -7.72219302910591e-05 0.000164333945199658 -0.000252115309236732 0.000139672498235035 6.05742072257757e-05 -0.000172763606519526 0.000167609953930505 0.00115152207795376 0.000381640478245775 -0.00016409366711207 0.00169622360686525 -0.00453514564606339 -0.000631832529289186
"182" -0.000509892405644726 0.000282155294006104 -0.000123497775376326 -8.79667497186841e-05 0.000155235003693982 -0.000261580919170036 0.000124998872643794 4.32911775207337e-05 -0.000194293817370971 0.000224678135350033 0.00092258369799126 0.00031186497078541 -7.43636275995576e-05 0.00180866242359435 -0.00467855557828831 -0.000429635081307659
"183" -0.000509900087061277 0.00026886909407419 -0.000129864821204965 -9.93501410512226e-05 0.000145878459458518 -0.000271112248966701 0.000110254412298666 2.56853123009696e-05 -0.000232536841239223 0.000295769144852392 0.000709795416988142 0.000246265321983462 2.42048163922238e-05 0.00192443347084703 -0.00480679142433985 -0.000221834381924882
"184" -0.000509509803407706 0.00025509439746587 -0.000136464889926642 -0.000111282269078541 0.000136299216073756 -0.000280695158032652 9.54920978842884e-05 7.82559023853267e-06 -0.000287241058380162 0.000381430258560301 0.000514715208271322 0.000185265991760262 0.000131120425830223 0.00204394864100899 -0.00491835053942212 -1.04304210845924e-05
"185" -0.000508686154465488 0.000240843691393441 -0.000143330964675151 -0.000123665937131852 0.000126535446498607 -0.000290326397823401 8.07607522740013e-05 -1.02146330989642e-05 -0.000357931012078753 0.00048208252800513 0.000338711633084317 0.000129244091111049 0.000245827392305958 0.00216754073607213 -0.0050117879024511 0.000202537176962111
"186" -0.000507383699911278 0.000226145759348262 -0.000150497025256956 -0.000136406299641276 0.000116620017915336 -0.000299986616537137 6.61097592015363e-05 -2.83657137780231e-05 -0.000443912689423321 0.000597984077934319 0.000182969541720041 7.85264661689143e-05 0.000367691047885486 0.00229542919527993 -0.00508575060200026 0.000415004921662003
"187" -0.00050555518547827 0.000211027403381554 -0.000157989602936645 -0.000149399705081889 0.000106595014917689 -0.000309670750716206 5.15939373399867e-05 -4.65512464256851e-05 -0.000544271308353061 0.000729231815295982 4.84605764017494e-05 3.33741677624189e-05 0.000496003762320905 0.00242774056469726 -0.00513897272977483 0.00062491130495705
"188" -0.000503145546615551 0.000195520463820879 -0.000165818331555854 -0.000162543237573698 9.64945334983178e-05 -0.000319355463844593 3.72589155720592e-05 -6.47085911937685e-05 -0.000657885391962209 0.000875729695605631 -6.40727015774768e-05 -5.99588597938957e-06 0.000629971430077045 0.00256447007171787 -0.0051703260746396 0.000830249151073785
"189" -0.000500103991476218 0.000179679347801624 -0.000173981301289273 -0.000175733430615171 8.63598796035873e-05 -0.00032902557272544 2.31538245148019e-05 -8.27607188266484e-05 -0.000783436605551796 0.00103716258005384 -0.000154102938288231 -3.94394360816445e-05 0.000768731497124069 0.00270547127067414 -0.00517883732850122 0.00102906551727145
"190" -0.000496370549368304 0.000163538005813194 -0.000182480428874879 -0.000188868292635996 7.62281233143449e-05 -0.000338664303361906 9.32410948120395e-06 -0.000100646323540416 -0.000919405517993421 0.0012130100763087 -0.000221363574921179 -6.68676547446162e-05 0.00091133016294052 0.00285046484153136 -0.00516369352927889 0.00121953277987688
"191" -0.000491888955745057 0.000147160411799543 -0.000191286965111776 -0.000201847970658414 6.61353777668232e-05 -0.000348241612716023 -4.18505999130841e-06 -0.00011829920379357 -0.00106411859426836 0.00140250210675153 -0.000265837524085906 -8.82493036515977e-05 0.00105673570706497 0.00299902637861919 -0.00512428508829453 0.00139994064284121
"192" -0.000486602325376921 0.000130599718726033 -0.000200369698302894 -0.000214575802401537 5.61169748608383e-05 -0.000357738096198268 -1.73351139502756e-05 -0.00013565967573161 -0.001215744160577 0.00160462185571901 -0.00028775350730002 -0.000103622680800358 0.00120385163416738 0.00315056704868367 -0.00506019914761878 0.00156875042955463
"193" -0.000480456858763183 0.000113924568229232 -0.000209689101917775 -0.000226959117015955 4.62113785514933e-05 -0.000367124257499544 -3.0085923464279e-05 -0.000152668358975618 -0.00137232206177634 0.00181810122615432 -0.000287596605869629 -0.000113073295095392 0.00135150273488695 0.00330435831040419 -0.00497124609608961 0.00172461438877716
"194" -0.000473399107958747 9.7198362473717e-05 -0.00021919436195476 -0.000238912953657025 3.64521962879214e-05 -0.00037636907439829 -4.24060674149648e-05 -0.000169269261312134 -0.00153179618469234 0.00204141619685321 -0.000266121035945546 -0.000116753976016508 0.00149846335254391 0.00345953071329192 -0.004857462693811 0.00186639332557286
"195" -0.000465385388937242 8.04965877729767e-05 -0.000228815454863375 -0.000250357086438568 2.68709616880264e-05 -0.000385445592856969 -5.42634023119234e-05 -0.000185416708788539 -0.00169204348170238 0.00227277518186476 -0.000224323767494091 -0.000114866685196312 0.00164346062474655 0.00361505500642577 -0.00471910269869891 0.00199317927421131
"196" -0.000456377535321785 6.39008241938629e-05 -0.000238483802641624 -0.000261217832547901 1.74975317672954e-05 -0.000394320392301835 -6.56319216751416e-05 -0.000201054871959983 -0.00185089731322824 0.00251015718854962 -0.000163434071354892 -0.000107668571265774 0.00178518269729431 0.00376978607368703 -0.00455666005989411 0.00210429842563704
"197" -0.000446339187754249 4.74903157057569e-05 -0.000248116243439771 -0.000271430189731919 8.36444051242047e-06 -0.000402954871500936 -7.64895312999568e-05 -0.000216142385560288 -0.00200620870179173 0.00275130688167166 -8.49222861048304e-05 -9.54562638363444e-05 0.00192230129541903 0.00392245554946424 -0.00437084089711735 0.00219931631572128
"198" -0.000435248529648121 3.13426119301781e-05 -0.000257626115479188 -0.000280936717328095 -5.00997862686148e-07 -0.000411319710385405 -8.68151126482613e-05 -0.000230637971610126 -0.00215584598041932 0.00299375018222962 9.52885799105452e-06 -7.8574187076978e-05 0.00205347857704195 0.00407170355179574 -0.00416256931620639 0.0022780502263964
"199" -0.000423096643383416 1.55498567804664e-05 -0.000266922882642322 -0.000289689166540525 -9.07552353489806e-06 -0.000419377371955385 -9.65987337088589e-05 -0.000244498876798905 -0.00229775858430151 0.00323482989229536 0.000118063477740628 -5.74014353489947e-05 0.00217739085362153 0.00421608348868083 -0.00393296445144842 0.00234054942595762
"200" -0.000409880461961776 1.98633665495764e-07 -0.000275903132747003 -0.000297648086149744 -1.73322529889094e-05 -0.000427090436607477 -0.00010582916606519 -0.000257689050527607 -0.00243000334834543 0.00347171844332896 0.000238656907017639 -3.23473814837649e-05 0.00229275315054422 0.00435409314285599 -0.00368332624367641 0.00238707820706398
"201" -0.000395613098287152 -1.46214324198781e-05 -0.000284473256000087 -0.000304784579101366 -2.52487630016786e-05 -0.000434427542655172 -0.000114505153880614 -0.000270173021644582 -0.00255077759908074 0.00370148475990524 0.000369163814728012 -3.84425032968525e-06 0.0023983304162171 0.00448420621095941 -0.00341511291693324 0.00241810880040279
"202" -0.000380321539257831 -2.88192642279508e-05 -0.000292530908888304 -0.000311076184540438 -3.28027582958596e-05 -0.000441348715209096 -0.000122626282799813 -0.00028191931925451 -0.00265844992242914 0.00392109433307312 0.000507332668071921 2.76553729125508e-05 0.00249295726888177 0.00460488516880628 -0.003129941086162 0.00243429732131442
"203" -0.000364051674424354 -4.23056464767052e-05 -0.00029997906396907 -0.00031651140227474 -3.99793319056515e-05 -0.000447826372798853 -0.000130197309912959 -0.000292891816104671 -0.0027515812482977 0.00412749186962936 0.000650853668414624 6.16877258693248e-05 0.00257555753824042 0.00471463031582604 -0.00282953161073417 0.00243644164076777
"204" -0.000346856900624964 -5.49906329553092e-05 -0.000306722283316795 -0.000321088585748567 -4.67576789441411e-05 -0.000453826164523223 -0.0001372318908449 -0.000303062176269762 -0.0028289582159013 0.00431762222839338 0.000797391539620095 9.77819204498998e-05 0.00264516991768681 0.00481199030047873 -0.00251571884842392 0.00242547443193832
"205" -0.000328814764645953 -6.67851468510765e-05 -0.000312673219129708 -0.000324815035442963 -5.31286181910044e-05 -0.000459318973500897 -0.000143745658405677 -0.000312397415782176 -0.00288959159043267 0.00448850679876674 0.000944605706918091 0.000135473867985971 0.00270093187765748 0.00489559782149205 -0.00219040691676077 0.00240241606606341
"206" -0.000310014726252262 -7.76022429190824e-05 -0.000317747402919861 -0.000327706954604858 -5.90722372181988e-05 -0.000464279697642271 -0.000149757649327552 -0.000320872603714544 -0.00293274179615063 0.0046372647913089 0.00109020782827094 0.000174294501977475 0.00274212401283412 0.00496418119825492 -0.00185556713337629 0.00236836108447754
"207" -0.000290567564715761 -8.7362749021438e-05 -0.00032186805572564 -0.000329789321381823 -6.45845157529832e-05 -0.000468686810478473 -0.000155294719339709 -0.000328459542780302 -0.00295791385890622 0.00476118872828898 0.00123198716088384 0.000213797814952015 0.00276816429910899 0.00501660127558042 -0.0015131995387434 0.00232445779144024
"208" -0.00027059230751781 -9.59862492524738e-05 -0.000324972174155342 -0.00033109392714647 -6.96518914167076e-05 -0.000472516694816354 -0.000160385154099816 -0.000335128884397509 -0.00296487177864696 0.00485778691482775 0.00136783115956595 0.000253551179104086 0.00277860654970222 0.00505188044311422 -0.00116534481573861 0.00227185634036708
"209" -0.000250228450341747 -0.000103397909519001 -0.000326997489273813 -0.000331662157622764 -7.42695832982136e-05 -0.000475757158317959 -0.000165063870736463 -0.000340858599962356 -0.00295360820256598 0.00492482693596771 0.0014957635064683 0.000293143718328557 0.00277316091812203 0.00506919605739104 -0.000814035857409583 0.0022117189910675
"210" -0.000229627426132853 -0.000109536858844401 -0.000327903567784107 -0.00033154316183384 -7.84350473646421e-05 -0.000478396730090226 -0.000169368804835567 -0.000345626318896629 -0.00292435838403372 0.00496039524934294 0.00161395658926874 0.000332186266866705 0.00275167901601841 0.00506792473892957 -0.000461313536745808 0.00214518406128588
"211" -0.000208953966972804 -0.000114333572584353 -0.000327647760197783 -0.000330793837656196 -8.21409496577051e-05 -0.00048042668578444 -0.000173337505062337 -0.000349410578825552 -0.0028775679967512 0.00496291374549352 0.0017207713073807 0.000370325472540323 0.00271414588715688 0.00504763359502179 -0.000109184896815117 0.00207335986765884
"212" -0.000188384069077646 -0.00011775039376073 -0.000326211807422678 -0.000329475300822635 -8.53903024167512e-05 -0.000481848201890479 -0.00017701577083822 -0.000352195130131059 -0.00281388840255272 0.00493120079505613 0.00181474256910641 0.000407234522965508 0.00266070610142192 0.00500809765988279 0.000240362940359238 0.00199730114134441
"213" -0.000168099342659404 -0.000119734986302184 -0.000323579438285213 -0.000327658972239915 -8.81842504386992e-05 -0.000482661551472113 -0.000180449769771309 -0.000353965351398576 -0.00273415380048147 0.00486446432478768 0.00189463419171417 0.000442625894384514 0.00259162932573803 0.00494929221281798 0.000585395928947931 0.00191801837648587
"214" -0.000148292734060307 -0.000120265565405164 -0.000319753348588399 -0.000325418062834768 -9.0528523753878e-05 -0.000482879797222428 -0.000183687214536343 -0.000354717920353582 -0.00263935097310703 0.0047623592248216 0.0019594091692385 0.000476242468058839 0.00250729828432547 0.00487141613810377 0.000924021681567643 0.00183645643334466
"215" -0.000129156461957751 -0.000119315878948422 -0.000314739036539652 -0.000322829649755279 -9.24268492681859e-05 -0.000482514548054668 -0.000186773190466425 -0.000354441770762435 -0.00253061619840057 0.00462494764493473 0.00200826193520483 0.000507871772298227 0.00240823505521928 0.00477485464781874 0.00125441287318925 0.00175349250859938
"216" -0.000110890376677289 -0.00011688458385671 -0.000308563410936087 -0.000319979978301606 -9.38874279906994e-05 -0.000481583934068981 -0.000189762058565053 -0.000353140871470202 -0.00240918878900416 0.0044527404021963 0.00204061335561545 0.000537333152261647 0.00229504791348618 0.00466020939882765 0.0015748090466709 0.00166994699209997
"217" -9.36922476523007e-05 -0.00011297744051074 -0.000301261396655629 -0.000316953155126374 -9.49249379370482e-05 -0.000480115970058346 -0.000192702211776874 -0.000350824575281617 -0.00227642120609608 0.00424666340683551 0.00205610341355144 0.000564488775067802 0.0021684541355695 0.00452827047166899 0.00188353042309147 0.00158656558546402
"218" -7.77514182323727e-05 -0.000107612776676592 -0.000292874177640661 -0.000313841078154072 -9.55494228158656e-05 -0.000478139550942883 -0.000195642936077266 -0.000347506681201346 -0.0021337318603547 0.00400804851731194 0.00205460579656975 0.000589235719736751 0.00202925940717998 0.00438000391213322 0.00217898962147099 0.00150403792202285
"219" -6.32632543179343e-05 -0.000100827273981777 -0.000283462951865675 -0.000310731026799507 -9.57761732366252e-05 -0.000475693075573694 -0.00019863599980492 -0.000343207815733334 -0.00198261706985443 0.0037386060875398 0.0020362091816419 0.000611514304071917 0.0018783582750124 0.0042165418430491 0.00245969508208785 0.00142299013558607
"220" -5.03996426638602e-05 -9.26737789357866e-05 -0.000273093785503787 -0.00030771615025628 -9.56269029865672e-05 -0.000472814829244961 -0.000201730827560791 -0.000337954044537774 -0.00182460023510895 0.00344039909944168 0.00200120132184562 0.000631297930245372 0.00171669647365823 0.00403917940373016 0.00272424570996585 0.00134397934631785
"221" -3.93368319725114e-05 -8.3213743884232e-05 -0.000261843975598101 -0.000304887635522156 -9.51201128557424e-05 -0.000469556716547668 -0.000204973053672918 -0.000331785027883943 -0.00166124188359398 0.00311579446768633 0.00195009196944544 0.000648595310016185 0.0015452945892412 0.0038493329750766 0.00297137495808888 0.00126751674965459
"222" -3.02311789570597e-05 -7.25294773496701e-05 -0.000249805922827355 -0.000302334647952141 -9.42774262329154e-05 -0.000465966603382131 -0.000208409748236545 -0.000324743825249925 -0.00149411523612768 0.00276743430887284 0.00188357078943645 0.000663449543072624 0.00136522415079595 0.00364854869951763 0.0031999215098623 0.00119406224210822
"223" -2.32205821571768e-05 -6.07165926592653e-05 -0.000237076762699196 -0.000300146493304531 -9.31263590331182e-05 -0.000462103248123786 -0.000212081761867314 -0.000316881517917422 -0.00132479070541039 0.00239818477050891 0.00180250418430255 0.000675935426266435 0.00117760268398092 0.00343846401816677 0.00340885818489341 0.00112401904037657
"224" -1.8432376862e-05 -4.78894211021302e-05 -0.000223764676091857 -0.00029840785280977 -9.169542106357e-05 -0.000458026009716692 -0.000216031332797137 -0.000308255047876189 -0.00115481868852173 0.00201110288727434 0.00170793710756001 0.000686154014282168 0.000983586326399274 0.00322081087966533 0.0035972887532134 0.00105775283505424
"225" -1.59706183199567e-05 -3.41719238936981e-05 -0.000209989126039405 -0.000297197708185461 -9.00112820283872e-05 -0.000453799956836425 -0.000220298739722038 -0.00029893226465529 -0.000985729838182802 0.00160939217484738 0.00160105363506446 0.000694232848107898 0.000784368036564633 0.00299737864616811 0.00376447204483502 0.000995589247891954
"226" -1.59169824788107e-05 -1.97037329351923e-05 -0.000195871553635502 -0.000296596406377203 -8.81073726330345e-05 -0.000449491530882333 -0.000224914553883808 -0.000288987351025201 -0.000819022979199939 0.00119635695221449 0.00148319166451679 0.000700319174076778 0.000581167779583412 0.00276999703495738 0.00390981650342864 0.000937806298641357
"227" -1.83352697722927e-05 -4.64093435636766e-06 -0.000181548988435423 -0.000296673986932655 -8.60180084936665e-05 -0.000445170302277095 -0.00022990912009632 -0.000278497446365103 -0.000656138630768865 0.00077538547986413 0.00135579154967233 0.000704577924844216 0.000375225529940076 0.0025405279444067 0.00403288212266689 0.000884655715037295
"228" -2.32622450226818e-05 1.08562107216477e-05 -0.000167158354605771 -0.000297493190550642 -8.3774754313024e-05 -0.000440906663334869 -0.000235312354679737 -0.000267547645596643 -0.00049847185735202 0.000349875789326082 0.0012204211407669 0.000707184489435551 0.000167804856823903 0.00231083865383129 0.00413340143361194 0.000836350270083293
"229" -3.07139178642754e-05 2.66026355868974e-05 -0.000152850561269726 -0.000299117848122703 -8.14176204999063e-05 -0.000436776542517914 -0.000241147143141145 -0.000256231771119523 -0.000347338653547398 -7.67524426883515e-05 0.00107871886073348 0.000708334553937212 -3.98304264348039e-05 0.00208279393982646 0.00421126860135814 0.000793089090511122
"230" -4.06770614872883e-05 4.24157899857178e-05 -0.000138767918923221 -0.000301591542996236 -7.8980685532756e-05 -0.000432847892762295 -0.0002474287711719 -0.000244644713852046 -0.000203995030751539 -0.000501122466325876 0.000932400502179703 0.000708212415312246 -0.000246411949873953 0.00185823582609941 0.00426654462657751 0.00075503603855415
"231" -5.31152147765012e-05 5.80974507284342e-05 -0.000125068344314266 -0.000304962510472005 -7.65037527400368e-05 -0.000429195264877618 -0.000254169199915891 -0.000232885585433097 -6.95989813131926e-05 -0.000919907044604077 0.000783238743014133 0.000707018747724625 -0.000450669841743308 0.00163897460649815 0.00429946871645783 0.000722333383353989
"232" -6.7969099232316e-05 7.34476156308276e-05 -0.000111906536676487 -0.000309260709258955 -7.4026712980882e-05 -0.000425885605226725 -0.00026138149230739 -0.00022105418063075 5.47829260106846e-05 -0.00132986128388504 0.00063305001015087 0.000704938844767807 -0.00065133881522138 0.00142675341322716 0.00431044708344444 0.000695111732712921
"233" -8.51538442736564e-05 8.82564736178259e-05 -9.94353740526343e-05 -0.000314512903056374 -7.15863442317274e-05 -0.000422990790962791 -0.000269067060369057 -0.000209260870116177 0.000168190740292157 -0.00172782448753863 0.000483665412173414 0.000702163180146806 -0.000847177385545721 0.00122326353535575 0.00430005491096861 0.000673468827564034
"234" -0.000104554452604546 0.000102309441368052 -8.78163610279238e-05 -0.000320734656183725 -6.92191839395638e-05 -0.000420570748642582 -0.000277218374831795 -0.000197605491789121 0.000269785053332452 -0.0021107594121832 0.000336919913103528 0.000698863083286802 -0.00103696849103087 0.00103011581218695 0.00426902397604166 0.000657489930123841
"235" -0.000126045294011971 0.0001153966001607 -7.71944734229963e-05 -0.000327931266452276 -6.69680631846639e-05 -0.000418686326956819 -0.000285833563655314 -0.000186199366700421 0.000358840955905897 -0.00247576839545513 0.000194646167634779 0.000695198952516673 -0.00121951244278757 0.000848816693345198 0.00421826144211478 0.00064724076060998
"236" -0.000149468201723526 0.000127307996214929 -6.77178810303739e-05 -0.000336099574109456 -6.48643515748246e-05 -0.000417395736118808 -0.000294899565682328 -0.000175147524552383 0.000434756072556077 -0.00282008966609286 5.86271398179182e-05 0.000691318198933784 -0.00139365628479188 0.000680777567790741 0.00414882212603329 0.000642761776372937
"237" -0.000174650768386365 0.000137833485682675 -5.95284837522827e-05 -0.000345225167334931 -6.29437388401252e-05 -0.000416744037490597 -0.000304392295672896 -0.000164551123491146 0.000497077542924007 -0.0031411257016533 -6.93997603162461e-05 0.000687340959624217 -0.00155829668777068 0.000527299333926908 0.0040618893263366 0.000644070060653497
"238" -0.000201397211911655 0.000146770581300249 -5.27614663836519e-05 -0.0003552826410257 -6.1240288064594e-05 -0.000416774376690039 -0.000314291076084573 -0.000154512485953476 0.000545489372170257 -0.00343644998528723 -0.000187768761544006 0.000683373106402335 -0.00171238152902519 0.000389546683725673 0.00395878020693614 0.000651162500580668
"239" -0.000229496503927288 0.00015392652015129 -4.75341738470984e-05 -0.000366240893701066 -5.97813346607876e-05 -0.000417521319092756 -0.00032456313801032 -0.00014512929042901 0.00057982948345833 -0.00370382377381716 -0.000294919757019917 0.000679492165235018 -0.00185492347403851 0.000268558617535324 0.00384092232773511 0.000663997560045366
"240" -0.000258726543544116 0.000159112005307498 -4.39611001605274e-05 -0.00037805557733621 -5.85984919627894e-05 -0.000419011885867725 -0.000335169591315603 -0.000136495754056141 0.000600083896480454 -0.00394120827935658 -0.000389389720546212 0.000675749236823312 -0.0019850072969209 0.000165215419408638 0.00370983949225942 0.000682515413760107
"241" -0.000288849082382392 0.000162162151901558 -4.21313639896767e-05 -0.000390671556489236 -5.77115854130813e-05 -0.000421265994097609 -0.000346071941135939 -0.000128697694615593 0.000606404550475063 -0.00414677911025286 -0.000469849442478623 0.000672180145190488 -0.00210179338001556 8.02450993624052e-05 0.00356714084660657 0.000706614338796191
"242" -0.000319615929256263 0.000162916735984463 -4.21273000221494e-05 -0.000404027873162167 -5.7141749377651e-05 -0.000424293173114227 -0.000357219515451142 -0.000121814777636353 0.000599101330425751 -0.00431892593671411 -0.000535121971485281 0.00066878234237041 -0.00220455416633374 1.42188813336997e-05 0.00341449448353332 0.000736155504896776
"243" -0.000350768103324618 0.00016123844710884 -4.40080548748086e-05 -0.000418051201441648 -5.69053053530368e-05 -0.000428089834284451 -0.000368560662878614 -0.000115924470104514 0.000578633809211328 -0.00445627785701472 -0.000584213995522608 0.00066553416857971 -0.00229264784799422 -3.24773214951482e-05 0.00325362144324135 0.000770972795271204
"244" -0.000382043530268169 0.000157004657844124 -4.78175112319443e-05 -0.000432662565591097 -5.70122579577384e-05 -0.00043264960964065 -0.000380035597104566 -0.000111087858201077 0.000545626549634672 -0.00455769577568775 -0.000616313224600416 0.000662389221147753 -0.00236554923319942 -5.9630091671728e-05 0.00308625578901721 0.000810852794484765
"245" -0.000413177014128799 0.00015012108227497 -5.35712100600824e-05 -0.000447772191280526 -5.7469223645621e-05 -0.000437950518976634 -0.000391579125242999 -0.000107366228594938 0.000500839130167601 -0.00462229441950074 -0.000630810028787621 0.000659269529674575 -0.00242284469428406 -6.72187830985651e-05 0.00291414987503156 0.000855537651457676
"246" -0.000443900092312459 0.000140512884798607 -6.12717880538972e-05 -0.000463287827239531 -5.82809474761492e-05 -0.000443965182379722 -0.000403122102618363 -0.000104801136383946 0.00044518821006764 -0.00464944221022472 -0.00062733370950849 0.000656086275491992 -0.0024642502454548 -5.54147040948314e-05 0.00273904049588252 0.000904733357878989
"247" -0.000473942192997294 0.000128130254924674 -7.08922809196962e-05 -0.000479104999203284 -5.94416006570424e-05 -0.000450649820599477 -0.000414593544186741 -0.000103434840781332 0.000379719609295987 -0.00463877280456832 -0.000605748200097453 0.000652716887992295 -0.00248960627441343 -2.45774716079125e-05 0.00256262732688373 0.000958098162396321
"248" -0.000503045299365774 0.000112951332692007 -8.23816658159011e-05 -0.000495115139298374 -6.09409005376325e-05 -0.000457955924419825 -0.000425918797377902 -0.000103288182591597 0.000305594998023498 -0.00459019206900567 -0.00056615877623504 0.000649023871344404 -0.00249887707043614 2.47249208667458e-05 0.00238657615943414 0.0010152509015413
"249" -0.000530950424736195 9.49751051071978e-05 -9.56732246244431e-05 -0.000511206446636817 -6.27683637805472e-05 -0.000465827868313562 -0.000437014485848299 -0.000104380230164225 0.00022409261876645 -0.00450386865848029 -0.000508928321720479 0.000644857425744313 -0.00249216744544824 9.17329726917728e-05 0.00221247539037638 0.0010757633683892
"250" -0.000557406437087047 7.42326948149339e-05 -0.000110673228589425 -0.000527263832134323 -6.49021499042109e-05 -0.000474195873757496 -0.000447802060740879 -0.000106715525917027 0.000136571734681131 -0.00438024908173388 -0.000434679886779384 0.000640047905835917 -0.00246970522988604 0.000175494049036686 0.00204184514991911 0.00113917531279899
"251" -0.000582177709120398 5.07834788567259e-05 -0.000127261540548982 -0.000543167540108511 -6.73187662471242e-05 -0.000482983881133476 -0.000458198900882646 -0.000110285551171062 4.44618646386583e-05 -0.00422005189814316 -0.000344292737387165 0.000634415553514086 -0.00243184674948813 0.000274858501097233 0.00187610116970038 0.00120499054709567
"252" -0.000605034032698747 2.47136157228999e-05 -0.000145304670879014 -0.000558795418866371 -6.99905777548851e-05 -0.000492103000221121 -0.00046812178872824 -0.0001150671252385 -5.0755242419695e-05 -0.00402427616460369 -0.000238907891054075 0.000627770394494696 -0.00237907946638853 0.000388491580646951 0.00171656530864095 0.0012726963667305
"253" -0.00062577012617986 -3.86450048902904e-06 -0.000164641688462119 -0.000574028403204025 -7.28855645524938e-05 -0.000501465419870991 -0.000477486579710447 -0.000121034288019389 -0.000147571998020324 -0.00379419308477202 -0.000119897078093747 0.000619922066194031 -0.00231199504902406 0.00051487612142227 0.00156444614006678 0.00134175197243082
"254" -0.000644187597316335 -3.4807150887874e-05 -0.000185096987233563 -0.000588745314346284 -7.59660467440835e-05 -0.000510971532624699 -0.000486215205604092 -0.000128140153526072 -0.000244465629349138 -0.00353133584006678 1.11377022223962e-05 0.000610671650069349 -0.00223129976570537 0.000652332071334237 0.00142081544231748 0.00141161901163331
"255" -0.000660117066128296 -6.7954193800464e-05 -0.000206483530964237 -0.000602826696710768 -7.91904551416318e-05 -0.000520515276774713 -0.000494227244863681 -0.000136331419598227 -0.000339930232770152 -0.00323750042052031 0.000152362898926704 0.000599822255553441 -0.0021378067136493 0.000799028143715548 0.00128661178743025 0.0014817451142435
"256" -0.000673398743506238 -0.000103115091049112 -0.000228595888723376 -0.000616158556925646 -8.25184061833449e-05 -0.000529990044951977 -0.000501449542460813 -0.000145542431869794 -0.000432499384390488 -0.0029147439850139 0.000301777930530836 0.000587184493322359 -0.00203239652942855 0.000952984761828772 0.00116265094412236 0.00155158982647588
"257" -0.000683904537492177 -0.000140075796586735 -0.000251219347758913 -0.000628632337181087 -8.59013039990573e-05 -0.000539283674010586 -0.000507810040701754 -0.000155697406342262 -0.000520754658320931 -0.00256536321031628 0.000457212448592781 0.000572572881411847 -0.00191603735041559 0.00111210855651454 0.00104958829742322 0.00162063286269588
"258" -0.000691525698486087 -0.00017860449073476 -0.000274134321977357 -0.00064013931196554 -8.92957297561926e-05 -0.000548280811235487 -0.000513246847906275 -0.000166706816273817 -0.000603360365887246 -0.00219190000620376 0.000616369841553304 0.000555812034880828 -0.0017897466655561 0.00127419866283247 0.00094794330400611 0.00168837239145451
"259" -0.00069618193058062 -0.000218454424363457 -0.000297109702187142 -0.000650582213939842 -9.26470356763993e-05 -0.000556864484391561 -0.000517697486934421 -0.00017847454476515 -0.000679060604530537 -0.00179711901046246 0.000776848929439403 0.000536741769492639 -0.00165460191978006 0.00143698704528701 0.000858076998192673 0.00175434274271527
"260" -0.000697819714276163 -0.00025935735128264 -0.000319917498659697 -0.00065987415893648 -9.59118063434348e-05 -0.000564922199081085 -0.000521115080585898 -0.000190896121404654 -0.000746715503618043 -0.00138401129205246 0.000936199759206753 0.00051522059590565 -0.00151169579101394 0.00159813703606108 0.000780221973137439 0.00181812265112001
"261" -0.000696404931121574 -0.000301038553185163 -0.000342327488044344 -0.00066792740458843 -9.90359157167182e-05 -0.000572336309444437 -0.000523455304008468 -0.000203855366723898 -0.000805304234570585 -0.000955756489790711 0.00109194508757308 0.000491124622098471 -0.00136215590852645 0.00175530241046153 0.000714463645247261 0.00187933349565869
"262" -0.000691942546494713 -0.000343200164621991 -0.000364120194892651 -0.000674673870710083 -0.000101971073302609 -0.000578991365682727 -0.000524682933240568 -0.000217232637665117 -0.000853936143402698 -0.000515736262479469 0.00124162894326516 0.000464353860881136 -0.00120710581635367 0.00190612902646903 0.000660743242017047 0.00193764667130876
"263" -0.000684462752762197 -0.000385556424295416 -0.000385073448121181 -0.000680049471253446 -0.000104670097729735 -0.000584786047908884 -0.000524775584120968 -0.000230899317619524 -0.000891863609853192 -6.74991753735943e-05 0.0013828383468475 0.000434830981138071 -0.00104766052707712 0.00204830915859508 0.000618884935703771 0.00199280084525952
"264" -0.00067401680618365 -0.000427796183823269 -0.000404978707866273 -0.000684001233106257 -0.000107086530947733 -0.000589609211863077 -0.000523717376944831 -0.000244723209776824 -0.000918481518350468 0.000385240499542231 0.00151325362035979 0.00040250959566448 -0.000884920524250211 0.00217959380514382 0.000588578089086326 0.00204458389581132
"265" -0.000660696657263821 -0.000469620537704052 -0.00042363479645612 -0.00068649177376997 -0.000109175316944514 -0.000593365630503704 -0.000521505856664028 -0.000258565235561401 -0.000933339371884436 0.00083862440017261 0.00163067421309315 0.000367362123088083 -0.000719947741615174 0.00229783430986503 0.000569412342875707 0.00209285479005302
"266" -0.000644612752504111 -0.000510732552873033 -0.00044086274775529 -0.00068749098692394 -0.000110894244161675 -0.000595963829492079 -0.000518140686899543 -0.000272290349122964 -0.000936134585887333 0.0012886958899525 0.00173304645419997 0.000329401049233714 -0.000553781072029651 0.00240101089413585 0.000560866041935904 0.00213753490747303
"267" -0.000625902587917408 -0.000550829854584349 -0.000456490996396161 -0.000686984172868633 -0.000112205063418149 -0.000597321788762001 -0.000513643013695537 -0.000285759222072818 -0.000926702703416716 0.00173138385944593 0.00181850483592185 0.000288661151992413 -0.000387400838528079 0.00248726187067878 0.000562333304584941 0.00217860680730236
"268" -0.000604737800986107 -0.000589625083582801 -0.000470365680022349 -0.000684965297829125 -0.000113073067453252 -0.000597360449242962 -0.000508035976897588 -0.000298829897068918 -0.000905031886910045 0.00216256299091318 0.0018853753407643 0.000245205128859349 -0.00022174475956074 0.00255492116201446 0.000573105006647453 0.00221612528470532
"269" -0.00058130389411883 -0.000626837161576534 -0.000482350716713668 -0.000681443042764357 -0.000113464630784127 -0.000596020592173213 -0.000501356405778931 -0.000311363844132684 -0.000871241065462427 0.00257807326122475 0.00193222424512124 0.000199137019138834 -5.76822570860373e-05 0.00260252998903078 0.000592431065153309 0.0022502133797154
"270" -0.000555814664506964 -0.000662199856050071 -0.000492336437789996 -0.000676438598846369 -0.000113357953300856 -0.000593245884757758 -0.000493648056053296 -0.00032323130936366 -0.000825592269954991 0.00297377482777458 0.00195782840437787 0.000150573760135743 0.000103968859561987 0.00262888219142229 0.000619484153277535 0.00228105766892086
"271" -0.000528507593439817 -0.000695465844969036 -0.000500225541232191 -0.000669984118140715 -0.000112726819946464 -0.00058899556132799 -0.000484967211193874 -0.000334305101580316 -0.00076845397284855 0.0033456014286194 0.001961230576711 9.96763931222934e-05 0.000262453576449673 0.00263304641045043 0.000653395701532615 0.00230891310771928
"272" -0.000499626894532712 -0.000726401590829155 -0.000505945606956337 -0.000662122621400111 -0.000111557920206535 -0.000583237980590935 -0.000475377695122387 -0.000344462556273383 -0.000700313911356461 0.00368960227824266 0.00194171853873411 4.66159224514934e-05 0.000417090357222893 0.00261436337142092 0.000693267875634518 0.00233408889797705
"273" -0.000469442252561651 -0.00075479557232258 -0.000509440145005759 -0.000652910925584473 -0.000109839710798475 -0.000575955306227146 -0.000464947659912402 -0.000353590014409221 -0.000621742603676206 0.00400202183959088 0.00189882930247573 -8.39748106612765e-06 0.000567253646522497 0.00257248664393904 0.00073817145785961 0.00235696453909559
"274" -0.000438231462877881 -0.000780457419255287 -0.00051068210249194 -0.000642415388585793 -0.000107564160812894 -0.000567143641580894 -0.0004537574126899 -0.000361586373484049 -0.000533417308994532 0.00427935801322162 0.00183235659183356 -6.51455483098295e-05 0.000712391304041596 0.00250737032199761 0.000787175016772403 0.00237796916323286
"275" -0.00040628743331231 -0.000803223723503694 -0.00050966007059433 -0.000630712122696876 -0.000104734660597899 -0.000556811915198318 -0.000441895248836786 -0.000368360408911106 -0.000436070898461455 0.00451842585426657 0.00174235220536048 -0.00012338018200633 0.000852018625573552 0.00241928380915346 0.000839350175290284 0.0023975874167639
"276" -0.000373904284363704 -0.000822954082573372 -0.000506386948777451 -0.000617884859613732 -0.000101357073605883 -0.000544980386497318 -0.000429445238223476 -0.000373828590838019 -0.000330506497981266 0.0047164490261158 0.00162908194729197 -0.000182840518681049 0.000985718965677382 0.00230880726255922 0.00089376629901868 0.00241634976272083
"277" -0.00034138021614142 -0.000839538754111239 -0.000500894190229263 -0.000604033332032892 -9.7442750857101e-05 -0.000531685092003844 -0.000416508790662386 -0.000377929272537496 -0.000217583041852035 0.00487112158725983 0.00149305707168324 -0.000243249427510053 0.00111313918211293 0.00217683023254895 0.000949527020734977 0.00243482765318112
"278" -0.000309015054028967 -0.000852887972055583 -0.000493233097208036 -0.000589253976242837 -9.30151463414396e-05 -0.000516973552545933 -0.000403183254158415 -0.000380605565994469 -9.82082300581474e-05 0.00498066812560429 0.00133500694196726 -0.000304322985124729 0.0012340042051487 0.0020245261354823 0.00100576181652034 0.00245362559845771
"279" -0.000277104281689322 -0.000862951656050765 -0.000483475378876569 -0.0005736593187861 -8.80977436459821e-05 -0.00050090610411901 -0.000389572200219047 -0.000381824816021323 2.66760100332113e-05 0.00504390978656334 0.0011558504747271 -0.000365762301752403 0.00134810919701738 0.00185335498845664 0.00106164208070603 0.00247337359743204
"280" -0.000245941889306138 -0.000869696030465581 -0.000471712482222058 -0.0005573627762908 -8.27233036986585e-05 -0.000483556233819962 -0.000375777146180999 -0.000381558302504401 0.000156097545895642 0.00506030911552771 0.000956713469772364 -0.000427265211212664 0.00145531407202661 0.0016650299070605 0.00111637535596837 0.00249472310359527
"281" -0.000215805530755389 -0.000873128462414115 -0.000458056173775963 -0.000540482581493428 -7.69287502484007e-05 -0.00046501251832826 -0.000361907239608613 -0.00037980373670805 0.000289054784118727 0.00503000035238485 0.000738883851690146 -0.000488523505450646 0.00155555432290941 0.00146149476993783 0.00116922321071545 0.0025183340839108
"282" -0.000186960629696884 -0.000873272215100571 -0.000442627727490041 -0.000523142121670099 -7.07567329805855e-05 -0.000445365262379542 -0.000348065547883419 -0.000376561853154051 0.000424533327142454 0.00495378932696665 0.000503813850929033 -0.000549233950791519 0.00164883825136286 0.00124489267107342 0.00121950081951066 0.00254486631621668
"283" -0.000159665510266002 -0.000870189762765157 -0.00042557101019088 -0.000505463104654079 -6.4260902069669e-05 -0.000424724350631956 -0.00033435789500735 -0.000371858501581776 0.000561504245075634 0.00483316333948891 0.000253108635517939 -0.000609091814455782 0.00173524951449578 0.0010175442425725 0.00126658506165777 0.00257496185804948
"284" -0.000134151661306235 -0.000863961974440129 -0.000407041938562218 -0.000487572148330668 -5.74923010501981e-05 -0.000403205716650639 -0.000320889033203677 -0.000365725824768543 0.000698931269860767 0.00467025331765765 -1.14880652197847e-05 -0.000667792936023435 0.0018149496357542 0.000781911689534058 0.0013099242326244 0.00260925469652044
"285" -0.000110632970426879 -0.000854700487031229 -0.000387212781841874 -0.00046959267729987 -5.05134047100652e-05 -0.00038093245099466 -0.000307757315491204 -0.000358218444251945 0.000835758323840536 0.00446778560240921 -0.000288124278468655 -0.000725045284381936 0.00188817128378728 0.000540562975208935 0.001349039765011 0.00264833295647679
"286" -8.93025248310058e-05 -0.000842539386506074 -0.000366260555621531 -0.000451647894671082 -4.33870198488094e-05 -0.000358038838717398 -0.000295058948364424 -0.000349394918977622 0.000970936327846775 0.00422904791380688 -0.000574836262485263 -0.000780561965787913 0.00195521450058289 0.000296144279029096 0.00138350974849506 0.00269274924115501
"287" -7.03264422248156e-05 -0.000827635133825911 -0.000344379733532341 -0.000433855870395586 -3.61811331649477e-05 -0.000334660228159803 -0.000282888284130047 -0.000339333855147854 0.00110341072049082 0.00395778583487304 -0.000869551850671775 -0.000834063745599444 0.00201645780346616 5.13449471883861e-05 0.00141300122068496 0.00274300211599182
"288" -5.38465169360472e-05 -0.000810169405137665 -0.000321772768650558 -0.000416333546924662 -2.89664969233001e-05 -0.000310943081201564 -0.000271332715463154 -0.000328114168663378 0.00123212139037932 0.00365813941341756 -0.00117012945687121 -0.00088529033054096 0.00207233086011129 -0.000191127265769388 0.00143725353372784 0.00279951975477102
"289" -3.99758162687957e-05 -0.000790335100015178 -0.000298643926393115 -0.000399189282878441 -2.18197009485759e-05 -0.000287029996744971 -0.000260475976880012 -0.000315838698791811 0.00135602041826699 0.00333452773486613 -0.00147435109107838 -0.000933990673054942 0.00212334789842184 -0.000428592858881006 0.00145609010182446 0.00286267423642527
"290" -2.88047231626732e-05 -0.000768354626262678 -0.000275211802527832 -0.000382529870703021 -1.48150939858256e-05 -0.000263071656172693 -0.000250391396793487 -0.000302606147072416 0.00147406802487771 0.0029915911563784 -0.00177995331697509 -0.000979928339491148 0.00217005287887772 -0.00065839734713201 0.00146939941658034 0.00293274824415815
"291" -2.03877894565322e-05 -0.00074445163650647 -0.000251688821106059 -0.000366450118402577 -8.0290485422262e-06 -0.000239216626472879 -0.00024114647978415 -0.000288528620114421 0.00158523992280864 0.00263407983049785 -0.00208461752143736 -0.00102288699125156 0.00221304910147712 -0.000877967570507346 0.00147715234224361 0.00300993878940927
"292" -1.47590034797125e-05 -0.000718872836983835 -0.000228295148982207 -0.000351041352337199 -1.53964904931716e-06 -0.00021561456521899 -0.000232810367647283 -0.00027372536389838 0.00168853087807018 0.0022667636921033 -0.00238599872429017 -0.00106267091912911 0.00225297624596584 -0.00108482024591454 0.00147940302741866 0.00309434367751092
"293" -1.19177064059913e-05 -0.000691871011197433 -0.000205249470791293 -0.000336382959852583 4.57292171075169e-06 -0.000192409565414584 -0.000225428686182848 -0.000258318959695773 0.00178296953909843 0.0018943607164922 -0.00268175054368651 -0.0010991030524077 0.00229049457930503 -0.00127657690288823 0.00147626326695347 0.00318596645706253
"294" -1.18426469151957e-05 -0.000663713893486606 -0.000182769984463926 -0.000322549110515714 1.02326703103079e-05 -0.000169748816480322 -0.000219055222690256 -0.000242431980549568 0.00186761935519783 0.00152146458246751 -0.00296951244253775 -0.00113202405691331 0.00232627043737761 -0.00145098447103427 0.00146793320964751 0.00328470381777104
"295" -1.44755684014924e-05 -0.000634664716148873 -0.000161062606818887 -0.00030960214987671 1.53644285622338e-05 -0.000147769238904538 -0.000213722884266047 -0.000226195814513815 0.00194157329190509 0.00115246688272126 -0.00324695900472542 -0.00116130445906615 0.00236097653992184 -0.00160594339353799 0.00145466859193995 0.00339034247846342
"296" -1.9742669068526e-05 -0.000604999489055358 -0.000140334228012432 -0.00029759425342997 1.98943848854217e-05 -0.000126602032451122 -0.000209464262485669 -0.000209737853739275 0.00200399269694767 0.000791525508571947 -0.00351179003890664 -0.00118683510091936 0.00239526994388042 -0.00173951176790576 0.00143678900412351 0.00350256404998978
"297" -2.75424315065273e-05 -0.000574991045765808 -0.000120782399379727 -0.000286568864401525 2.37557101601164e-05 -0.000106376983408894 -0.000206301943141365 -0.000193190173876001 0.00205409505639103 0.000442500935418483 -0.00376177783328048 -0.00120853343752999 0.0024297729391052 -0.00184992030396621 0.00141468324188887 0.00362093804244511
"298" -3.7752935598356e-05 -0.00054491255510046 -0.000102590880205496 -0.000276558615865528 2.68769592802827e-05 -8.72094781858328e-05 -0.000204249019889693 -0.000176681052497422 0.00209118275275634 0.000108923692603496 -0.00399476744815935 -0.00122634174600543 0.00246506579726517 -0.00193559081175048 0.00138878293912275 0.0037449399474806
"299" -5.02263348443399e-05 -0.000515034755615475 -8.59289282122877e-05 -0.000267588413339918 2.92004457207207e-05 -6.92082696131516e-05 -0.000203309444415434 -0.00016033609816245 0.00211464169529119 -0.000206033835875683 -0.00420870388972041 -0.00124023430573896 0.00250166368016961 -0.00199514227303584 0.00135958714147595 0.00387393322504773
"300" -6.47964219501006e-05 -0.000485621699286303 -7.09582295706688e-05 -0.000259671881580337 3.06643866198127e-05 -5.24759852124355e-05 -0.000203482820536905 -0.000144280531652747 0.00212397246898274 -0.000499574643178308 -0.00440166511743151 -0.00125020825812582 0.00254000287848019 -0.00202740107011723 0.00132762857835265 0.00400719868299623
"301" -8.12851353865143e-05 -0.000456928281439321 -5.78208249512205e-05 -0.000252812071167844 3.12230762923794e-05 -3.70949732742397e-05 -0.000204757659239614 -0.000128636146728817 0.00211879666819416 -0.000769286836777455 -0.00457187856318517 -0.00125629184206648 0.00258041661754704 -0.0020314106071005 0.00129348741464678 0.00414392222180342
"302" -9.94957653166582e-05 -0.000429202018170195 -4.66349392700498e-05 -0.000247006950476017 3.08236330120553e-05 -2.31456597725989e-05 -0.000207119556136806 -0.000113519002026643 0.00209886011074973 -0.0010131563231774 -0.00471773855202443 -0.00125854245739948 0.00262313911034386 -0.00200644244708097 0.00125778032324715 0.0042832141443495
"303" -0.000119217523361327 -0.000402679806820841 -3.75086032999819e-05 -0.000242242570533132 2.94314167097876e-05 -1.06942807398022e-05 -0.000210542590958978 -9.90415382533366e-05 0.00206405193802111 -0.00122956871678382 -0.00483783559847141 -0.00125704245503654 0.00266828171180609 -0.00195200615491962 0.00122115683424431 0.00442410337268531
"304" -0.00014022834897071 -0.000377580636813664 -3.05215389251681e-05 -0.000238498349967961 2.70104026906537e-05 2.05915400601268e-07 -0.000214996402409853 -8.53112119741331e-05 0.00201440870687181 -0.00141729886239952 -0.00493099515990469 -0.00125190848997501 0.00271581967754707 -0.00186783231450485 0.0011842788502261 0.00456556034945366
"305" -0.00016230140411444 -0.000354111212637148 -2.57353869066618e-05 -0.000235746982623453 2.35366933069979e-05 9.51659161144648e-06 -0.000220448293481329 -7.24280079212605e-05 0.00195012546654371 -0.00157551548971108 -0.00499626117886344 -0.00124327748649512 0.00276560148176497 -0.00175390093368137 0.00114783969785167 0.00470650182598576
"306" -0.000185199041289952 -0.000332453987292679 -2.31905735878433e-05 -0.000233954006525854 1.89898571857471e-05 1.72081112548983e-05 -0.000226850511732818 -6.04874753061591e-05 0.00187155508869929 -0.00170375893442437 -0.00503294912836138 -0.00123131311918028 0.00281733327593397 -0.00161043232477495 0.00111253704761411 0.0048458017112239
"307" -0.000208682198002437 -0.000312783442394238 -2.29022595515196e-05 -0.000233076063215825 1.33612697172712e-05 2.32635340164406e-05 -0.000234158908539564 -4.95752494887601e-05 0.00177922275140769 -0.00180193882267661 -0.00504065923002059 -0.00121620684657374 0.00287057339135792 -0.0014378874987844 0.00107907815157046 0.00498229987809136
"308" -0.000232510437159962 -0.000295243634205732 -2.48634394008036e-05 -0.000233069920611079 6.64207628081647e-06 2.76754782863526e-05 -0.000242327014432281 -3.97694288151685e-05 0.00167380381112205 -0.00187031551231117 -0.00501925727266279 -0.00119816690799156 0.00292474638208272 -0.00123697489453435 0.00104817772871617 0.00511481203010454
"309" -0.000256435066938792 -0.000279962446026236 -2.90442025030423e-05 -0.000233884298820948 -1.16124497826578e-06 3.04555939499831e-05 -0.000251300469303189 -3.11473491158646e-05 0.0015561471228752 -0.00190947096738351 -0.00496894677357074 -0.00117741857767017 0.00297912913943295 -0.00100862772795407 0.0010205343862248 0.00524214294329832
"310" -0.000280222378620401 -0.000267041117621416 -3.5400649103007e-05 -0.000235463406167953 -1.00385185081155e-05 3.16191777391984e-05 -0.000261020049128994 -2.37684694680051e-05 0.0014272426182093 -0.00192030357542149 -0.00489020990406894 -0.00115420755249131 0.00303288793682421 -0.000754022337768495 0.000996842014335292 0.00536309321692151
"311" -0.000303630922248538 -0.000256556676504699 -4.38522948791623e-05 -0.000237745706951276 -1.9972523756705e-05 3.11954979824442e-05 -0.000271432104364577 -1.76859169976343e-05 0.00128821399858185 -0.00190398939873254 -0.00478386507273004 -0.00112879023186193 0.00308506908887153 -0.000474558114826086 0.000977781426493517 0.00547646616992541
"312" -0.00032643522398417 -0.000248564458135758 -5.43166376923261e-05 -0.000240675370204066 -3.09392218714463e-05 2.9225048895323e-05 -0.000282475524102545 -1.29438237290863e-05 0.00114032281202653 -0.00186197081526386 -0.00465101799651926 -0.00110142922917537 0.00313461953807519 -0.000171851113075174 0.000964006911155789 0.00558108082585964
"313" -0.00034840845202955 -0.000243092120652783 -6.66838079623403e-05 -0.00024418693678275 -4.29085559616421e-05 2.57519719651996e-05 -0.000294093385712364 -9.58312503437494e-06 0.000984930779640653 -0.0017959214606167 -0.00449310521239027 -0.0010723949545311 0.00318040707863096 0.000152260890691322 0.000956157772243952 0.00567578252607396
"314" -0.000369345739622751 -0.000240140193037622 -8.08251464265039e-05 -0.000248212381921659 -5.58412833414445e-05 2.08346165306556e-05 -0.000306228134339147 -7.62489687137839e-06 0.000823487980575528 -0.00170773853682482 -0.00431182742257876 -0.00104195926745226 0.00322124509758766 0.000495738567821973 0.000954841716052549 0.00575945727466621
"315" -0.000389041635859005 -0.000239691425220501 -9.66064742730329e-05 -0.000252689108651251 -6.96955577086686e-05 1.45362994825541e-05 -0.000318819202023009 -7.08173344697039e-06 0.000657531707030851 -0.00159949991245322 -0.0041091863065289 -0.00101038844368306 0.00325591213306265 0.000856335684682942 0.000960620872787899 0.00583104841681435
"316" -0.000407306828383409 -0.000241691999057989 -0.000113869002977828 -0.000257547510220134 -8.4422557411676e-05 6.92580317613879e-06 -0.000331813840599317 -7.95952553495636e-06 0.000488650976622524 -0.00147345236367223 -0.00388742961814769 -0.000977951717102965 0.0032831765920245 0.00123163054452815 0.000974027026540043 0.00588956043798608
"317" -0.000423975971632397 -0.000246072998478125 -0.000132452604751621 -0.000262722686403494 -9.99692729708272e-05 -1.91987451205262e-06 -0.000345155362536439 -1.02515201367719e-05 0.000318471545573199 -0.00133198352066665 -0.00364902545857526 -0.0009448999348018 0.00330183017825522 0.00161900408438976 0.000995545085826185 0.00593409140146272
"318" -0.000438890037298185 -0.000252741364912657 -0.000152189489981471 -0.000268147417981929 -0.000116275495205733 -1.19236792893574e-05 -0.000358789674089478 -1.39406933071538e-05 0.000148626669266907 -0.00117758788294731 -0.00339664697216761 -0.000911472600575462 0.00331069976130661 0.00201568285628338 0.00102560810545048 0.00596382945021561
"319" -0.000451910550751179 -0.000261573096128815 -0.000172898361284934 -0.000273753592345921 -0.000133281272407758 -2.29991236913582e-05 -0.000372673742150986 -1.89986326459105e-05 -1.92545809763166e-05 -0.00101286201936415 -0.00313312917128516 -0.000877898521119459 0.00330868533671447 0.00241873410693525 0.0010646006482208 0.00597807168345096
"320" -0.000462914821880972 -0.00027243269139459 -0.000194391148990204 -0.0002794796487984 -0.000150916608249334 -3.50608050602435e-05 -0.000386759198616146 -2.53827243742568e-05 -0.0001835597103628 -0.000840473870924591 -0.00286141973381248 -0.0008443882198107 0.00329477184725478 0.00282508274922419 0.00111284088532198 0.00597625018055129
"321" -0.000471801667055203 -0.000285160192956089 -0.000216488993421564 -0.000285261178981939 -0.000169117369512119 -4.80164722280471e-05 -0.000401001721961049 -3.3046146787611e-05 -0.00034272282448602 -0.000663123818125237 -0.00258456158806464 -0.0008111246179541 0.00326806196929935 0.00323153306175457 0.00117058614748673 0.00595792662606602
"322" -0.000478490016037044 -0.000299582124189325 -0.000239002819963137 -0.000291038032896146 -0.000187811184185637 -6.17807722189398e-05 -0.000415364209135581 -4.19290462598864e-05 -0.000495237541031765 -0.00048353952614824 -0.00230563277273063 -0.000778277368995983 0.00322778959065027 0.00363478313416646 0.00123801920627789 0.00592281789990179
"323" -0.000482920225190161 -0.000315503750315548 -0.000261748042219593 -0.000296750524796639 -0.00020692315328977 -7.62606200911947e-05 -0.000429810193172191 -5.19641095874579e-05 -0.000639669080240735 -0.000304448671872307 -0.00202770930053842 -0.000745988595321031 0.00317333638184858 0.00403144762958571 0.00131525395331309 0.00587079780716033
"324" -0.000485047014648321 -0.000332725366890087 -0.000284541461660331 -0.000302342233714391 -0.00022638066350832 -9.13663843640421e-05 -0.000444307973850835 -6.30697759016249e-05 -0.000774662330141592 -0.000128541283034157 -0.00175381782294924 -0.000714378088222213 0.00310423697083571 0.00441807470680913 0.0014023134333075 0.00580191952939717
"325" -0.00048484453568309 -0.000351031666139067 -0.000307203076551181 -0.000307760277475994 -0.000246108070002863 -0.000107007680392662 -0.000458827975825981 -7.51650091205594e-05 -0.000898971167009519 4.1525637079142e-05 -0.00148690751937657 -0.000683545084020556 0.00302020955436096 0.00479119050290687 0.00149915088160577 0.00571640179399809
"326" -0.000482317881441027 -0.000370192621135386 -0.000329558490865305 -0.000312953563607574 -0.000266026268497487 -0.000123094931950815 -0.000473341334143999 -8.81516968695127e-05 -0.00101144682705527 0.000203182247599125 -0.00122978372983428 -0.000653563778681595 0.00292113221127087 0.00514731969117209 0.00160562856555724 0.00561464853600011
"327" -0.000477479402400999 -0.000389988554636982 -0.000351446741637279 -0.00031787719803386 -0.00028606329723649 -0.000139544179494601 -0.000487828253614827 -0.000101934017995734 -0.00111105752351449 0.000353967742337814 -0.000985096088032435 -0.000624483236882427 0.00280706959822839 0.00548304644873739 0.00172150989029151 0.00549723287838016
"328" -0.000470366937860085 -0.000410187034568698 -0.000372704876354726 -0.000322486892783763 -0.000306143599268407 -0.000156270203679802 -0.0005022642498896 -0.000116406159400096 -0.00119689757533054 0.000491552860678435 -0.000755292993688441 -0.000596341360211929 0.00267826088540958 0.00579503915048965 0.00184648315182795 0.00536490584492317
"329" -0.00046103262513044 -0.000430554060918083 -0.000393187620620271 -0.000326741773014436 -0.00032619055646258 -0.000173190660863413 -0.00051663002548593 -0.000131459257251108 -0.00126818213539503 0.000613759760070637 -0.000542571610560172 -0.000569145208989126 0.00253512438408772 0.00608010695353166 0.00198014124445947 0.00521857531465877
"330" -0.000449548620276526 -0.000450857201093214 -0.000412747886687099 -0.000330609168491341 -0.000346133936043552 -0.000190230751511378 -0.00053091170432877 -0.000146982531306494 -0.00132424802453182 0.000718599808708845 -0.000348883344941156 -0.00054289389868567 0.00237824548339107 0.00633523984243131 0.00212198609790016 0.00505931516536406
"331" -0.000436003641653947 -0.000470877985946574 -0.000431267091322474 -0.00033405537019068 -0.000365903819510323 -0.000207314113518521 -0.000545090733945791 -0.000162864697874602 -0.00136457031041186 0.000804313271038825 -0.000175894997536291 -0.000517570745424148 0.00220835361966168 0.00655771260177292 0.00227142445830458 0.00488833155512423
"332" -0.000420498249030645 -0.000490395465008631 -0.000448621987684093 -0.000337051908340061 -0.000385427978385 -0.000224370321242273 -0.000559153876502523 -0.00017898539325727 -0.00138874549819228 0.000869359520107876 -2.49745491357828e-05 -0.000493139331007578 0.0020263199125353 0.00674507378188341 0.00242779183903504 0.00470696431184912
"333" -0.000403146116507218 -0.000509204589595457 -0.000464707683272382 -0.000339578677454693 -0.000404643666647869 -0.000241333475180397 -0.00057308715848212 -0.000195236865625876 -0.00139650388917801 0.000912487226581158 0.000102814146558118 -0.000469556481199566 0.00183313478665697 0.00689526589404233 0.00259033561075199 0.00451666354795509
"334" -0.000384078757223991 -0.000527106938630281 -0.000479432689510791 -0.000341615638246957 -0.000423489494086227 -0.000258137088656956 -0.000586875167147448 -0.000211505747873765 -0.00138770604645205 0.000932722521990189 0.000206718946795323 -0.000446778800005516 0.00162989240861472 0.00700663318810713 0.00275822964198296 0.00431896633291731
"335" -0.000363436596076925 -0.000543919212604157 -0.000492713845340729 -0.000343147035084935 -0.000441903085777371 -0.000274726969127255 -0.000600502934493095 -0.000227683364824262 -0.0013623283091594 0.000929408042670178 0.000286301593151636 -0.00042474658995473 0.00141777817839261 0.00707799831221137 0.0029305699351905 0.0041154937449202
"336" -0.000341364120087404 -0.000559470746099663 -0.000504481111184017 -0.000344161116052685 -0.000459828751298084 -0.000291044710026229 -0.000613959493342992 -0.000243663052020278 -0.0013204839407302 0.000902206857797417 0.000341429230814001 -0.000403407081735705 0.00119805134323199 0.00710868029088198 0.00310640653492453 0.00390792447818419
"337" -0.000318023413208748 -0.000573610007599157 -0.000514679821706948 -0.000344652967808249 -0.000477213750554496 -0.000307040759922706 -0.000627226624965967 -0.000259345548435611 -0.00126240621047147 0.000851131833638544 0.000372254559837379 -0.000382701492745776 0.000972016110747251 0.00709854020406182 0.00328472879330102 0.0036979725903905
"338" -0.00029357264472475 -0.000586203912772154 -0.000523269443454004 -0.000344619718599824 -0.000494012688067413 -0.000322671638751237 -0.00064029137150986 -0.000274635176997301 -0.00118844416176137 0.000776525499503093 0.000379227365133388 -0.0003625757712854 0.000741018755252554 0.00704798889004945 0.00346448544319352 0.0034873791629969
"339" -0.000268183378021836 -0.000597131762691765 -0.000530213725268518 -0.000344060393056236 -0.000510175412587009 -0.000337888649493372 -0.00065313319196263 -0.000289442238452516 -0.00109907284635358 0.000679073209757618 0.000363051316839578 -0.000342981552604312 0.000506435064314805 0.00695799281128497 0.00364459456505697 0.00327789087325152
"340" -0.000242025855968621 -0.00060630077304473 -0.000535498836820182 -0.000342979699529122 -0.000525664456809079 -0.000352654503784264 -0.000665734170502553 -0.000303684120149326 -0.000994868376259232 0.000559800487566038 0.000324664208932989 -0.000323874845673545 0.000269639217771293 0.00683007508229631 0.00382393848081344 0.00307124443021269
"341" -0.000215271373725082 -0.000613628008123651 -0.00053911241209836 -0.000341384277037287 -0.000540443444381398 -0.000366933977265329 -0.000678073024351413 -0.00031728539381125 -0.000876531554048822 0.00042001844799142 0.000265254772966983 -0.000305217792022583 3.20164226670324e-05 0.0066662534115767 0.00400140224669528 0.00286915945155711
"342" -0.000188097322045269 -0.000619058092073669 -0.000541064480204332 -0.000339287003017233 -0.000554478615438031 -0.000380694526517631 -0.000690126683151426 -0.00033018239191474 -0.000744871890836534 0.000261360789015286 0.000186196547381624 -0.000286983078266144 -0.00020507068950411 0.00646903908951221 0.00417586344742683 0.00267330793088789
"343" -0.000160677384100355 -0.000622548201789535 -0.000541363751997914 -0.000336698498172154 -0.000567739099465411 -0.000393904062630512 -0.000701872247994849 -0.000342309724437278 -0.00060080559604721 8.57034378065102e-05 8.90478076479892e-05 -0.000269157793140259 -0.000440272105714539 0.00624136022240955 0.00434620892959901 0.00248532275772057
"344" -0.000133178707740075 -0.000624083875165086 -0.000540046914059959 -0.000333635810583124 -0.000580202558489215 -0.000406537020548187 -0.000713281674903064 -0.000353616693695248 -0.000445352478845068 -0.000104830426552297 -2.44956686335835e-05 -0.000251730321482897 -0.000672293628553843 0.00598649955468803 0.00451133462751217 0.00230676257191645
"345" -0.000105774770036309 -0.000623663446251106 -0.000537143186228758 -0.000330117288982478 -0.000591844835783005 -0.000418566814230737 -0.000724327409110398 -0.000364061980993241 -0.000279634452021352 -0.000307944151395046 -0.000152582281039087 -0.000234712953491709 -0.000899857012550095 0.00570801109989137 0.0046701839863681 0.00213913811757975
"346" -7.86300286153136e-05 -0.000621303860029664 -0.000532703174867039 -0.000326163754192079 -0.000602651588852419 -0.000429967838583849 -0.000734977405699629 -0.000373605068193923 -0.000104870118945452 -0.000521175116348343 -0.00029326929540702 -0.000218120505955369 -0.00112174761196821 0.005409672579801 0.00482172142705721 0.0019838526944396
"347" -5.19000270169443e-05 -0.00061704671064909 -0.000526784261719777 -0.000321796847650638 -0.000612603208718197 -0.000440724680275835 -0.000745204463841985 -0.000382220391685609 7.7638656236606e-05 -0.000741950534720247 -0.000444513939329055 -0.000201977515093814 -0.00133678336503328 0.00509536890059697 0.0049649716848379 0.00184223939355688
"348" -2.57449090509017e-05 -0.000610940022753416 -0.00051945252118806 -0.000317039192506859 -0.000621695380023303 -0.000450815266513822 -0.000754972613251805 -0.00038988682415111 0.000266496834161397 -0.000967641915431374 -0.000604203302193273 -0.000186329406040645 -0.00154382973964656 0.00476902853113498 0.0050990079942349 0.00171551458109258
"349" -3.10122181853515e-07 -0.000603057878295039 -0.000510779229318583 -0.000311915708011105 -0.000629913907168644 -0.000460216894375484 -0.000764249580295499 -0.000396591204624849 0.000460246328707953 -0.00119558816582216 -0.000770185320805907 -0.000171222750901916 -0.00174182155114165 0.00443457056660982 0.00522296259010964 0.00160479188062183
