"V1" "V2" "V4" "V5" "V7" "V8" "V10" "V11" "V13" "V14" "V15" "V17" "V18" "V20" "V21" "V23"
"1" -0.00055425883691865 0.000114794280672329 0.000202377428278549 -0.000466430899921824 0.000148512500883498 0.000113373952351191 7.31141682961911e-07 0.000203635844138641 0.00373973212939337 -0.00314531230569662 -0.000599065258380212 -0.000686783599327453 -0.00139190370045679 -0.00378364664484709 0.00119760792711854 0.000333934163392413
"2" -0.000544303302766563 0.000106796174494971 0.000208456854463433 -0.000461606721989562 0.000157023014672794 0.000109397652815837 -1.14806327601575e-05 0.000193810778852879 0.00382669512604037 -0.00300410088014271 -0.000479000015918172 -0.000671983608791599 -0.00146333712082372 -0.00373484763356508 0.00132364928182636 0.000304622555041064
"3" -0.000534984922415364 9.85180622372052e-05 0.000213609991212075 -0.000456433391073254 0.000165627357142589 0.000105155184036877 -2.37852838837202e-05 0.000184211403863452 0.00390520377075806 -0.00284550038969252 -0.000360090182778037 -0.000656833914845812 -0.00150944446007175 -0.00366275499989405 0.00144885629300421 0.000274690165767344
"4" -0.000526369446203959 8.9972144251257e-05 0.000217843884009325 -0.000450969632941821 0.000174271748986963 0.000100665393961762 -3.60557625269156e-05 0.000174855587498407 0.00397451197166518 -0.0026704228910548 -0.00024423616137214 -0.000641358472433819 -0.00152974771372651 -0.00356760894560935 0.00157177902036642 0.00024448473558776
"5" -0.000518525929671851 8.11802312313588e-05 0.000221176756782572 -0.000445274694017728 0.000182902400771229 9.59463327717819e-05 -4.81699516568966e-05 0.000165757807571129 0.00403392729530717 -0.00247996046616659 -0.000133264440207933 -0.000625582426023853 -0.00152401155462359 -0.00344997876396566 0.00169093138610117 0.000214390469740129
"6" -0.000511511120153646 7.21650140654838e-05 0.000223638157867798 -0.000439411530133303 0.000191462832086106 9.10173751115586e-05 -6.00057550598785e-05 0.000156932593024686 0.00408279780740061 -0.00227537504244922 -2.8926006908025e-05 -0.000609557481083619 -0.00149225723147887 -0.00331069417447073 0.00180479605203183 0.000184800568405023
"7" -0.000505383827621956 6.29611248163127e-05 0.000225261652402845 -0.000433443843354579 0.000199901816832992 8.58973087854997e-05 -7.14501328606511e-05 0.0001483976478991 0.00412052111154168 -0.00205807351863027 6.71577621507267e-05 -0.000593341296334345 -0.00143474338455721 -0.00315087802411018 0.00191185107852941 0.000156115838022428
"8" -0.000500184093295306 5.36051654735584e-05 0.000226096733652656 -0.000427436981961995 0.000208169305296807 8.06075572532179e-05 -8.23925181831358e-05 0.000140170213401032 0.00414653920417335 -0.0018296151908914 0.000153497269524885 -0.000577009763570613 -0.00135194161164881 -0.00297192467356031 0.00201057928725805 0.000128747658287381
"9" -0.000495957085849484 4.41391920177935e-05 0.000226197687326541 -0.000421452218572296 0.000216214821390366 7.51695255958444e-05 -9.27295966858763e-05 0.000132258350792132 0.00416034364380055 -0.00159166915829442 0.000228782622450852 -0.000560642023494508 -0.00124454020558759 -0.00277547777793145 0.00209947228838552 0.000103099253820051
"10" -0.000492733029522453 3.46064695617857e-05 0.000225625086367907 -0.000415556522538011 0.000223989714655514 6.9599331810318e-05 -0.000102369925206387 0.000124683136785069 0.0041614707960261 -0.00134601690320423 0.00029189741286322 -0.000544328507689489 -0.00111339251853464 -0.00256342541166247 0.00217707737064728 7.95744149772606e-05
"11" -0.000490537317711841 2.50608066218448e-05 0.000224444920395768 -0.000409809933042111 0.000231454949841984 6.39215141695986e-05 -0.000111222990397545 0.000117450223931998 0.00414949512030089 -0.00109452622792037 0.000341943537194153 -0.000528172221904918 -0.000959525771438539 -0.0023378514934693 0.00224199052270189 5.85484192324363e-05
"12" -0.000489380088132621 1.5557332302229e-05 0.000222725843142982 -0.000404271793515354 0.000238563714918319 5.81490014609852e-05 -0.000119221045234946 0.00011057703490018 0.00412404286552372 -0.000839137363239971 0.000378247469846934 -0.000512273070322031 -0.000784119385986583 -0.00210103446798811 0.0022928952103962 4.03840132025114e-05
"13" -0.000489276547263709 6.15094394101907e-06 0.000220540754491742 -0.000399000571876426 0.000245278262714206 5.23002864327654e-05 -0.000126295762333127 0.000104067409975136 0.00408479445298317 -0.000581838664271373 0.000400399950961896 -0.000496738822397432 -0.000588475084885156 -0.0018553955319755 0.00232857218020111 2.54093229024294e-05
"14" -0.00049021942612694 -3.09633680202689e-06 0.000217966849977621 -0.000394048384876517 0.000251561653447652 4.63911034870302e-05 -0.000132395825304614 9.7934384284632e-05 0.00403147960866648 -0.000324644438680231 0.000408219111384891 -0.000481680597240756 -0.000374021570396551 -0.0016034724264585 0.00234791858074386 1.3908498293757e-05
"15" -0.000492204096187107 -1.21256579101535e-05 0.000215071425246576 -0.000389466457069304 0.000257381801776393 4.04342277165129e-05 -0.000137480912943825 9.21822074192754e-05 0.00396388756362655 -6.957669897219e-05 0.000401773032250378 -0.000467204546509842 -0.000142287249804645 -0.00134788170132332 0.00234997375666396 6.13420668678119e-06
"16" -0.000495212255064758 -2.08804717059682e-05 0.000211934363043574 -0.000385300058561855 0.000262711019192163 3.44449698548193e-05 -0.000141522338795345 8.68156686872094e-05 0.00388189471185811 0.000181359528596998 0.000381365256938596 -0.000453419386748841 0.000105105614413848 -0.00109126799395019 0.00233392434363418 2.28536089594104e-06
"17" -0.000499215124428049 -2.92999927677506e-05 0.000208616660976655 -0.000381589860780086 0.00026751993311003 2.84312259047833e-05 -0.000144507366608047 8.18379149206071e-05 0.00378543664848033 0.000426190420242196 0.000347535471003584 -0.000440430731594425 0.000366456411687043 -0.000836275992304861 0.00229914112241567 2.50843853150892e-06
"18" -0.000504180688197086 -3.73293799031198e-05 0.000205185675500359 -0.000378371910178603 0.000271786047847947 2.24030214819541e-05 -0.000146428421765988 7.72482965476864e-05 0.00367455797803518 0.000663003010263646 0.00030103555676446 -0.000428344892740031 0.00064000419716174 -0.000585513425148825 0.00224517165524803 6.88916715557084e-06
"19" -0.000510062455560437 -4.49177865149441e-05 0.000201704057355183 -0.000375675941225263 0.000275489773039141 1.63708373314425e-05 -0.000147297584733039 7.30404151872885e-05 0.00354940001621962 0.000889969405455682 0.000242800456135521 -0.000417255472651087 0.000923910871404897 -0.000341493417599024 0.00217175589679137 1.54653027975683e-05
"20" -0.000516807888826524 -5.20201990389844e-05 0.000198224869219741 -0.000373528242559459 0.000278617868126976 1.03412747917666e-05 -0.00014713506302754 6.92131998332704e-05 0.00341021430488475 0.00110534647068333 0.000173952857956407 -0.000407257758169501 0.00121630115911817 -0.000106620782587455 0.00207884367166137 2.8205706890363e-05
"21" -0.00052435476424579 -5.85968292983166e-05 0.000194791890361928 -0.000371950209501759 0.000281155621426029 4.32068370796801e-06 -0.0001459707179837 6.57563285236772e-05 0.00325738639618671 0.00130751601869209 9.57517875592132e-05 -0.000398439054004343 0.00151525252242271 0.000116865679364939 0.00196659282665921 4.50279030585718e-05
"22" -0.000532636219017334 -6.46153193481905e-05 0.000191448357815918 -0.00037095231059246 0.000283094783020457 -1.68271808400231e-06 -0.000143845757309415 6.26579501566191e-05 0.00309143914048216 0.00149497254333779 9.58227675296086e-06 -0.000390881763142099 0.00181880477479276 0.000326900419424643 0.00183537206421062 6.57823170095705e-05
"23" -0.000541571021347299 -7.00514045830466e-05 0.000188224586546932 -0.000370546507320369 0.000284432056058628 -7.66407750754735e-06 -0.000140813536649217 5.99032491549242e-05 0.0029130271295262 0.0016663753142572 -8.30530230364171e-05 -0.000384662471549261 0.00212495898436172 0.000521647471676218 0.00168575041161716 9.02668382093545e-05
"24" -0.00055107790564346 -7.48876121651015e-05 0.000185148043478101 -0.00037073150956268 0.00028516474860882 -1.36117101296758e-05 -0.000136934336443621 5.7474774621898e-05 0.0027229553357692 0.00182053815542475 -0.000180594488189465 -0.000379848771735109 0.00243168774102555 0.000699499172878147 0.00151850708497808 0.00011822532168462
"25" -0.000561056505623894 -7.91222468347519e-05 0.000182231221086988 -0.000371506437854081 0.000285295848904375 -1.95212503134286e-05 -0.000132275792122531 5.53562762742475e-05 0.00252216274714641 0.00195644760949548 -0.000281428629304928 -0.000376500818295794 0.00273693863452761 0.000859094665492595 0.00133461249775037 0.000149357159265982
"26" -0.000571412700398962 -8.27566719128994e-05 0.000179488060959062 -0.00037286069625096 0.000284836750824974 -2.53831782621929e-05 -0.000126912517307433 5.35208684868642e-05 0.0023117386049154 0.00207326467612782 -0.000383911741556735 -0.00037467540790453 0.00303865534782299 0.000999336453451402 0.00113522138681954 0.00018330998176532
"27" -0.000582035855575657 -8.58015839857263e-05 0.000176923312945292 -0.000374780075106272 0.000283793597066014 -3.11846341545481e-05 -0.00012092336918361 5.19491531149732e-05 0.00209289653435112 0.00217035081718117 -0.000486401210405357 -0.000374418501364827 0.00333475590024939 0.00111939703218483 0.000921640092832108 0.000219696541518825
"28" -0.000592814626808939 -8.82820185805393e-05 0.000174527621417977 -0.000377244729934564 0.00028218337355283 -3.69186754008811e-05 -0.000114393521120412 5.060995605435e-05 0.0018669726070928 0.00224726313126541 -0.000587267483456362 -0.000375768056049907 0.00362317199542369 0.00121872331354745 0.00069533162838027 0.000258093911192443
"29" -0.000603634792571002 -9.02288048237989e-05 0.000172298536622301 -0.000380228340597458 0.000280026183376398 -4.25700219079063e-05 -0.000107407025886345 4.94777467005432e-05 0.00163540380483901 0.00230375699682632 -0.000684921329164475 -0.000378747904394578 0.00390183252912384 0.00129703364154519 0.000457881113651492 0.000298053176630245
"30" -0.000614366908226127 -9.16821645850666e-05 0.000170219608400727 -0.000383698247774959 0.000277346611263658 -4.81239348302034e-05 -0.000100053274974137 4.85240834849264e-05 0.00139971527423514 0.00233978562344543 -0.000777836749022996 -0.000383377282466816 0.00416868549883646 0.00135430107360082 0.000210978196676408 0.000339103792053675
"31" -0.000624886866994726 -9.26892003161271e-05 0.000168274774147732 -0.000387615905681472 0.000274171747229003 -5.35641597899834e-05 -9.24202391157517e-05 4.77155097695648e-05 0.00116148193961175 0.00235551241640981 -0.000864542255740826 -0.000389666385049527 0.00442171794660929 0.00139075016480768 -4.36046933084519e-05 0.000380765507866639
"32" -0.000635071107217056 -9.3304121233755e-05 0.000166442311648756 -0.000391940923609616 0.000270534477313967 -5.88730811900019e-05 -8.45918403869967e-05 4.7026392609025e-05 0.000922306550295865 0.00235129306668436 -0.000943670335340802 -0.000397606248046813 0.00465896738220459 0.0014068419522299 -0.00030402703535324 0.00042254741933033
"33" -0.000644790986302498 -9.35851754504441e-05 0.000164703287245294 -0.000396625319838664 0.000266469518868311 -6.4032448909545e-05 -7.66550947293385e-05 4.64208664238745e-05 0.000683815514666323 0.002327692753114 -0.00101393264960147 -0.000407181775928233 0.00487853969673438 0.0014032550815091 -0.000568413888791336 0.000463969109958978
"34" -0.000653912852499042 -9.36017974707172e-05 0.000163035756376223 -0.000401615917946734 0.000262017253752099 -6.90213324839442e-05 -6.86892110144508e-05 4.58697102729083e-05 0.000447611636440998 0.00228546045287226 -0.00107417594093587 -0.000418358399399392 0.00507863248454354 0.00138086777382759 -0.000834876267877494 0.000504562168163372
"35" -0.000662309896237056 -9.34171235793491e-05 0.000161412315910064 -0.000406857188315638 0.000257220265938337 -7.38196584428531e-05 -6.07701725953559e-05 4.53469747551026e-05 0.000215265076546666 0.00222553052900399 -0.00112335348437833 -0.000431093686187204 0.00525755186184178 0.00134073811205432 -0.00110152023764241 0.000543878315911787
"36" -0.00066986058787373 -9.30988461485043e-05 0.000159818101340275 -0.000412288074817354 0.000252127336324569 -7.84052549564843e-05 -5.29733516947761e-05 4.48184754209758e-05 -1.1726103962515e-05 0.00214900842351574 -0.00116056236476048 -0.000445326857759045 0.00541374925960392 0.00128407105522934 -0.00136648243313239 0.000581498346833188
"37" -0.000676440840472845 -9.2716543670863e-05 0.00015822677840716 -0.00041784274868763 0.000246783865518766 -8.2757320825536e-05 -4.53570632116758e-05 4.42595644301243e-05 -0.000231939078672561 0.00205715355389933 -0.00118502595953004 -0.000460979538586086 0.00554582647542441 0.00121220683668017 -0.00162793772354899 0.00061704518711544
"38" -0.000681936868037828 -9.2341310942098e-05 0.000156626411899133 -0.000423456670133822 0.000241242519913156 -8.68538219273951e-05 -3.79842439066942e-05 4.36434632984838e-05 -0.000444042908563562 0.00195138473159538 -0.00119613647122495 -0.000477964190571412 0.00565257455978387 0.00112660574779306 -0.00188412400298328 0.000650182839964358
"39" -0.000686240842365425 -9.20368609314008e-05 0.000154999494981313 -0.000429058157446001 0.000235556968194878 -9.06742349182712e-05 -3.09078685405509e-05 4.29443298055045e-05 -0.000646825902160402 0.00183324483750089 -0.00119342872131393 -0.000496171749619957 0.00573299618510573 0.00102880705622917 -0.00213334826381311 0.000680631921674901
"40" -0.000689255159046623 -9.18699596281535e-05 0.000153331220522491 -0.000434579825493374 0.000229776595494043 -9.420180554129e-05 -2.41701026269663e-05 4.21407863967046e-05 -0.000839194416155728 0.00170440264979809 -0.00117659620531861 -0.000515479841011302 0.00578632787336149 0.000920424283980844 -0.00237400599826204 0.00070816453423399
"41" -0.000690883504840847 -9.18925418006644e-05 0.000151612780336784 -0.000439948852990084 0.000223959632597134 -9.74199745270795e-05 -1.78103023564267e-05 4.12104363916617e-05 -0.0010201945267562 0.00156662165840545 -0.00114550640663521 -0.000535755639134559 0.00581206547647366 0.000803105640865696 -0.00260457794216277 0.000732613062533702
"42" -0.000691053351198932 -9.21606867858219e-05 0.000149840652688069 -0.000445092912725083 0.000218157293538577 -0.000100309131753786 -1.18602056513727e-05 4.01343666128951e-05 -0.00118899174120254 0.00142175374774008 -0.00110018131530518 -0.000556847137338871 0.00580996290341188 0.000678532315247088 -0.00282365311339117 0.000753867372263398
"43" -0.000689697154685784 -9.27240248623763e-05 0.000148005511366073 -0.000449942787861934 0.000212423644745797 -0.000102866428068486 -6.3418826785947e-06 3.88894143254868e-05 -0.0013448964712541 0.00127171816216266 -0.00104082078291488 -0.000578595351965052 0.00578005591591549 0.000548399005129385 -0.00302992255781891 0.000771882414388946
"44" -0.000686761300715986 -9.36187545019653e-05 0.000146110649488718 -0.000454430945718331 0.00020680817776997 -0.000105075201807139 -1.27522632826893e-06 3.74663365712291e-05 -0.00148735492014667 0.00111848459509242 -0.000967792000087335 -0.00060082399668429 0.005722662440213 0.000414391504917956 -0.0032221923968784 0.000786663243644989
"45" -0.00068221145224533 -9.48833549728828e-05 0.000144149189728878 -0.000458493063463617 0.000201359158875088 -0.000106938998348617 3.33056160913846e-06 3.58430784928841e-05 -0.00161595538170205 0.000964064712632801 -0.00088162921547066 -0.000623347376481197 0.0056383856849499 0.000278170403224026 -0.00339937959989183 0.000798271574841976
"46" -0.000676023658106132 -9.65345772539653e-05 0.000142131207913549 -0.000462064373762706 0.000196120113686713 -0.000108454406278167 7.46519150565665e-06 3.40075347174061e-05 -0.00173042648869334 0.000810464654322592 -0.000783017730828193 -0.000645976635426664 0.00552812156510813 0.000141357990677618 -0.00356050847914645 0.00080681558426259
"47" -0.000668189777178811 -9.86019301443575e-05 0.000140051672292854 -0.000465090240189564 0.000191128422096401 -0.000109628792328588 1.11355807683573e-05 3.19408943825456e-05 -0.00183061081889701 0.000659709244100859 -0.000672830183637236 -0.00066850919893106 0.00539301820734717 5.54067811995243e-06 -0.00370473062101477 0.000812439330192499
"48" -0.000658727964174828 -0.000101085757953279 0.000137917337631241 -0.000467517987042226 0.000186426857331652 -0.00011047277334343 1.43353030876313e-05 2.96348029423134e-05 -0.00191648903983644 0.000513776180164533 -0.000552063323907852 -0.000690737315798806 0.00523450056939541 -0.0001277689601272 -0.00383128861261259 0.000815313172063775
"49" -0.000647663335259488 -0.000103991475167356 0.000135734609647625 -0.000469300736788371 0.000182040942491296 -0.000111003665855658 1.70805274633052e-05 2.70735606475934e-05 -0.00198814768151441 0.000374612365510856 -0.00042187970215609 -0.000712454578368571 0.00505419890985487 -0.000257118031382287 -0.00393955701984436 0.000815628515903792
"50" -0.0006350456443036 -0.00010731388510581 0.000133502900912099 -0.000470401927498734 0.000177996040182666 -0.000111244283091113 1.93766377515665e-05 2.42417416381841e-05 -0.00204578202574475 0.000244094742065417 -0.00028357033204582 -0.000733445577174404 0.00485395659676161 -0.000381143751074172 -0.00402900342631094 0.000813590729640785
"51" -0.000620935299457103 -0.000111037401827044 0.000131223666802734 -0.000470788955274931 0.000174313010014698 -0.000111217135640885 2.12347478736503e-05 2.11226910032382e-05 -0.0020896902864532 0.00012401387576529 -0.000138552679720077 -0.000753500564855088 0.00463578338146198 -0.000498568786804171 -0.00409920839300504 0.000809406525408185
"52" -0.000605419613335444 -0.000115145535731284 0.000128895269014125 -0.000470437534377581 0.000170999420514954 -0.000110960918063035 2.26732085380345e-05 1.77015415088647e-05 -0.00212026271087216 1.60452088688759e-05 1.16497942444306e-05 -0.000772407342676397 0.00440182245602521 -0.000608217894650246 -0.0041498511391914 0.000803270955643046
"53" -0.000588591097586616 -0.000119606992084361 0.0001265240470757 -0.00046933241665577 0.000168063440322299 -0.000110514532856989 2.3707634719881e-05 1.39628327006438e-05 -0.00213797360809657 -7.82607736639987e-05 0.000165397640024565 -0.000789961978536007 0.00415431953896523 -0.000709028731252815 -0.00418071469494815 0.00079537223871416
"54" -0.000570569692239115 -0.000124390068268587 0.000124101385995224 -0.000467467330753014 0.000165500621226591 -0.000109919793078904 2.43476245063172e-05 9.88759987648733e-06 -0.00214336537309876 -0.00015750563042863 0.000320984196477236 -0.000805964356554839 0.00389557727682154 -0.000800047182937309 -0.00419167600634426 0.000785867792547525
"55" -0.000551484189004279 -0.000129453626521873 0.000121621862000075 -0.000464843351100207 0.000163305281154677 -0.000109225442528063 2.46146852991044e-05 5.45756985069238e-06 -0.00213705327705293 -0.000220463882947246 0.000476639356840241 -0.000820220821016078 0.00362792184975007 -0.000880454503307132 -0.00418271091351379 0.000774889705726005
"56" -0.000531475621305101 -0.000134754340632018 0.00011907457741734 -0.000461473182539174 0.000161454908190532 -0.000108491145115487 2.45190416324486e-05 6.45652457202875e-07 -0.00211969071135709 -0.000266101038260935 0.000630533990320274 -0.000832547906258125 0.00335367410699833 -0.000949564757754681 -0.00415388248082484 0.00076254352595405
"57" -0.000510703295908128 -0.00014024115305783 0.000116456630024973 -0.000457371812888265 0.000159929180394505 -0.000107771476776181 2.40774635131271e-05 -4.56392140345995e-06 -0.00209199093674503 -0.000293607416609567 0.00078082490056476 -0.000842778486161757 0.00307512065967246 -0.00100683063078134 -0.00410535418514517 0.0007489007526288
"58" -0.000489335180204086 -0.000145864760213989 0.000113753858081855 -0.00045256992789602 0.000158697165731734 -0.000107127338486426 2.33029352887204e-05 -1.01999869160958e-05 -0.0020546815379916 -0.000302394717260298 0.000925654054339197 -0.000850752019548727 0.00279445895401814 -0.00105185179326741 -0.00403736463832095 0.000733992215454845
"59" -0.000467547707314565 -0.000151566996845338 0.000110946848453751 -0.000447104215851565 0.000157721682931816 -0.000106629356819357 2.21990608652153e-05 -1.62885028278027e-05 -0.00200851381049602 -0.000292136053442888 0.00106318851456416 -0.000856324159892016 0.00251380160566155 -0.00108439562648902 -0.00395024860165928 0.000717826677640353
"60" -0.000445523448660889 -0.000157285508498216 0.000108023660981718 -0.000441017919508493 0.000156957448241717 -0.000106343215338245 2.07807948078234e-05 -2.28552876887757e-05 -0.00195424928525413 -0.000262764963202939 0.00119162702787374 -0.000859370381137439 0.00223513109083146 -0.00110438413833895 -0.00384442913099076 0.000700368399532586
"61" -0.000423457113150168 -0.000162960624892176 0.000104969593321519 -0.000434362030080763 0.000156356565492354 -0.000106335993373217 1.90494818825887e-05 -2.99338131498123e-05 -0.00189264362439929 -0.000214495000303627 0.00130924008033761 -0.000859779408355301 0.00196028512644024 -0.0011119131602272 -0.00372041280561619 0.000681572526806065
"62" -0.000401536082281248 -0.000168534267989255 0.000101763108911042 -0.000427196023695393 0.000155863447952971 -0.000106682329740171 1.70115355213766e-05 -3.75497963903959e-05 -0.00182443963074208 -0.000147828870652637 0.0014143763338985 -0.000857466114430174 0.0016909408173115 -0.00110724202477114 -0.00357879690751025 0.000661359819401828
"63" -0.000379956276961187 -0.00017394081920676 9.83897759446125e-05 -0.000419584006849333 0.000155419879839585 -0.000107453769823148 1.46641245189679e-05 -4.57442105249473e-05 -0.00175035902992195 -6.35684193671446e-05 0.00150549988469612 -0.000852357027066392 0.00142861464848785 -0.00109081136906457 -0.00342025921518429 0.000639645748646094
"64" -0.000358914411097018 -0.000179120766510383 9.48270021123476e-05 -0.000411596284547708 0.00015496303257502 -0.000108717736778769 1.2006213297174e-05 -5.45402276144993e-05 -0.00167109012303392 3.71951710906686e-05 0.00158121540757691 -0.000844409294927851 0.00117463791190955 -0.00106322126921164 -0.00324556865924492 0.000616328517603232
"65" -0.000338594595986368 -0.000184012509494431 9.10596828314057e-05 -0.000403306250718302 0.000154423044126611 -0.000110542261779665 9.03241820315822e-06 -6.39768667474877e-05 -0.00158728208444543 0.000153063398748499 0.00164025726367448 -0.000833600775459548 0.000930140684495258 -0.00102525224618771 -0.00305559572787885 0.000591313535881441
"66" -0.000319184591748303 -0.00018855876938144 8.70717997496768e-05 -0.00039479288636793 0.000153733642551622 -0.000112997873482213 5.73723685661373e-06 -7.40856677765589e-05 -0.00149953520829555 0.000282352139295239 0.00168155306578193 -0.000819926561519723 0.000696079739612411 -0.000977844816123993 -0.00285127093088503 0.00056451055101366
"67" -0.000300858732097827 -0.000192700931281372 8.28520401879556e-05 -0.000386137060632046 0.000152824813651995 -0.000116139338757972 2.11374409009502e-06 -8.48965520509405e-05 -0.0014084002736482 0.000423122971500021 0.00170419868809397 -0.000803411965707818 0.000473213221091579 -0.000922094767731535 -0.00263363852891617 0.000535836456802486
"68" -0.000283780917758261 -0.000196386823424256 7.8386670774388e-05 -0.000377420534739053 0.000151623473869133 -0.000120029852668356 -1.85129918761696e-06 -9.64423146138438e-05 -0.00131437021349036 0.000573165173284571 0.00170749758197475 -0.000784099374732812 0.000262126604063011 -0.00085923903849908 -0.00240381136589722 0.000505227906405878
"69" -0.000268106473882866 -0.000199564537643812 7.36656632616365e-05 -0.000368726481292376 0.000150061396401274 -0.00012471921292499 -6.16951018349873e-06 -0.000108751282581212 -0.00121786382399752 0.000730054968426693 0.00169096847752786 -0.000762058893296478 6.32134681789351e-05 -0.000790642473985523 -0.00216299303716969 0.000472647481966179
"70" -0.000253978523372107 -0.000202185292192728 6.86912547437255e-05 -0.00036013647504018 0.000148067650419787 -0.000130253980355867 -1.08483175752574e-05 -0.000121844589592666 -0.00111924798664628 0.000891167426506517 0.00165434074087597 -0.000737381942550431 -0.00012329284617245 -0.000717773179087864 -0.00191246269792476 0.000438074434742557
"71" -0.000241513289483075 -0.000204211648948633 6.34532799269968e-05 -0.000351729990525453 0.00014557739362242 -0.000136670150993551 -1.59063434141207e-05 -0.000135748278437645 -0.00101881499570418 0.0010537326674155 0.00159756399738871 -0.000710178169682413 -0.000297330317753273 -0.000642184132733153 -0.0016535875257864 0.00040153655438274
"72" -0.000230824288981525 -0.000205599168377688 5.79606573619889e-05 -0.000343585749144038 0.000142522094674794 -0.00014400150071272 -2.13537194773158e-05 -0.000150473728490769 -0.000916803358375395 0.00121485237023599 0.00152082506593905 -0.000680580600653267 -0.000458971400432041 -0.000565496592614625 -0.00138780369999273 0.000363073908623258
"73" -0.000221996303928782 -0.00020631778556603 5.22197582496985e-05 -0.000335778524022633 0.000138845977835106 -0.000152266103120834 -2.72029162838139e-05 -0.000166034718185554 -0.000813371588695252 0.00137157821375468 0.00142452212169511 -0.000648742095708685 -0.000608441452664687 -0.000489353979851513 -0.001116612268895 0.000322769840062561
"74" -0.000215101644612159 -0.000206338381208678 4.624105233615e-05 -0.000328371921366769 0.000134493739829006 -0.00016147717968752 -3.34652199676989e-05 -0.00018243645686628 -0.000708632468609428 0.00152093787959088 0.00130927031742794 -0.000614827460106676 -0.000746081649842244 -0.000415399434616267 -0.000841581005810671 0.000280732436725074
"75" -0.000210188657934807 -0.00020563486272058 4.0042315118568e-05 -0.000321433202900663 0.000129416700444436 -0.000171638690247429 -4.01521590594279e-05 -0.000199673019025098 -0.000602638697476765 0.00165999390256823 0.00117589106613731 -0.000579022258914472 -0.000872344941426488 -0.000345245687250511 -0.000564318725809966 0.000237103945561211
"76" -0.000207281089447367 -0.000204192674745202 3.36440259480011e-05 -0.000315016277284619 0.000123569492406735 -0.000182740377060825 -4.72709197802602e-05 -0.000217736681297749 -0.000495403434931972 0.00178589702172092 0.00102538500854767 -0.000541524598586059 -0.000987787007429984 -0.000280445212992134 -0.000286482594960871 0.000192058709384377
"77" -0.000206391011976847 -0.000201998139918549 2.70680224433977e-05 -0.000309167787193651 0.000116921653945686 -0.000194764776834057 -5.48249049051898e-05 -0.000236611292859783 -0.000386885057989607 0.00189594841973731 0.000858942809325067 -0.000502539734092679 -0.00109304055098747 -0.00022244870804201 -9.75051222928217e-06 0.000145788609568204
"78" -0.000207499136772926 -0.000199039529683994 2.03473674381253e-05 -0.000303928319815315 0.000109444417498455 -0.000207680716907949 -6.28190746340302e-05 -0.000256262489748801 -0.000277028258011288 0.00198763888422124 0.000677924247606569 -0.000462292442844443 -0.00118881601802336 -0.000172582571844873 0.000264169929667775 9.85143461751413e-05
"79" -0.000210572612037045 -0.000195318589139198 1.35128441701465e-05 -0.000299327638199975 0.000101117433606812 -0.000221448710542359 -7.12524484092864e-05 -0.000276660042452387 -0.00016574555177444 0.00205870898192354 0.000483818022983965 -0.000421003587067869 -0.00127586414211048 -0.000132011299388975 0.000533583303068803 5.04709402932903e-05
"80" -0.000215549499371728 -0.000190838824816012 6.60546062169044e-06 -0.000295386769682697 9.19348710940075e-05 -0.000236015652881754 -8.0118209356153e-05 -0.000297754477235837 -5.29463908538896e-05 0.0021071766985284 0.000278262913998192 -0.000378907233811566 -0.00135497844401652 -0.000101734547355245 0.000796803560588196 1.90631090497275e-06
"81" -0.000222356030313104 -0.000185610648817894 -3.40057187241161e-07 -0.000292116815319289 8.18983688031425e-05 -0.000251318016389987 -8.94094361417352e-05 -0.000319491982168974 6.14552882328339e-05 0.00213139185546822 6.30010225133181e-05 -0.000336236197299352 -0.0014269832588778 -8.25316197483251e-05 0.00105218285947208 -4.69219838032427e-05
"82" -0.000230895725567469 -0.000179643092334319 -7.2742338816741e-06 -0.000289517829153587 7.10157996763881e-05 -0.000267285618611595 -9.9106389269248e-05 -0.00034180681230886 0.000177524356121513 0.00213004486607433 -0.000160118583245088 -0.000293227237092046 -0.00149269807339666 -7.49686025339501e-05 0.00129812173797485 -9.57605223778797e-05
"83" -0.000241054782489982 -0.000172963854810518 -1.41554436706113e-05 -0.000287583805551428 5.93094531843344e-05 -0.000283831497304083 -0.000109195693716698 -0.000364622551544189 0.000295300285638818 0.00210219972725874 -0.000389185173499873 -0.000250117546095663 -0.00155295690541836 -7.93866691883502e-05 0.00153308136910902 -0.000144348664123068
"84" -0.000252697701208937 -0.000165589136531915 -2.09291939381793e-05 -0.000286292496116356 4.68093766621735e-05 -0.000300859464348996 -0.000119649159434037 -0.00038785678932066 0.000414768785691339 0.00204728566452752 -0.000622209905479819 -0.000207139271915675 -0.00160855360803406 -9.59115562325999e-05 0.0017556261853993 -0.000192436956917494
"85" -0.000265681656896959 -0.000157553670854564 -2.75506181344234e-05 -0.000285618597635755 3.35555676133252e-05 -0.000318270205251524 -0.000130438676344353 -0.000411417016041448 0.000535852340599516 0.00196512318484275 -0.000857172948816273 -0.000164519915404706 -0.00166027135446952 -0.000124431398614277 0.0019644136233655 -0.000239788610176908
"86" -0.000279845519886816 -0.000148890646486355 -3.3963262701221e-05 -0.000285523569815727 1.96030870275798e-05 -0.000335951735731318 -0.00014152838440615 -0.000435202175962716 0.000658397994550033 0.00185590456838622 -0.00109201737846072 -0.000122482165323013 -0.00170884007157425 -0.000164605446275848 0.00215822644734729 -0.000286174061437461
"87" -0.000295018761865 -0.000139640501039349 -4.01138678246901e-05 -0.000285960577788834 5.00781317631897e-06 -0.000353783613221865 -0.000152877166632102 -0.00045910668400374 0.000782153737327815 0.00172016871392157 -0.00132468726766581 -8.12396918303031e-05 -0.00175493223357439 -0.000215899587983824 0.00233599694236658 -0.000331393707519118
"88" -0.000311011869420401 -0.00012984391579298 -4.59448243451164e-05 -0.000286876383255262 -1.01573673032011e-05 -0.000371641525643995 -0.000164437070000172 -0.000483018146598576 0.000906751194455706 0.00155877362625197 -0.0015531190426703 -4.10040475158684e-05 -0.00179915380588211 -0.000277590326135102 0.00249681109989485 -0.000375262198632737
"89" -0.000327637446099752 -0.000119548090937975 -5.14069548508355e-05 -0.000288206916240143 -2.58180428429398e-05 -0.000389396381356533 -0.000176158368010829 -0.000506814672366251 0.00103170590802379 0.00137289652649515 -0.00177527768886543 -1.97354993405507e-06 -0.0018420476666399 -0.000348777501502472 0.0026399174098419 -0.00041762185524868
"90" -0.000344697923788558 -0.000108803938964515 -5.64385900214079e-05 -0.000289888386825305 -4.18820807854511e-05 -0.000406908128995182 -0.00018798351575276 -0.000530374067120285 0.00115641851858001 0.00116399317145357 -0.001989169824263 3.56641929380503e-05 -0.00188405546229886 -0.000428416927037726 0.00276474121338275 -0.000458342795657638
"91" -0.000361994077802212 -9.76594535230783e-05 -6.09900682900155e-05 -0.000291845026143642 -5.82585892767806e-05 -0.000424040914751487 -0.000199853257157078 -0.000553575891054906 0.00128015192822718 0.000933745777367723 -0.00219285910506371 7.17310734634287e-05 -0.00192553157564044 -0.000515349268215578 0.0028708900398657 -0.000497317581350288
"92" -0.000379317299788795 -8.61742258276936e-05 -6.50061947309438e-05 -0.000294000976493723 -7.4848666357241e-05 -0.000440654989540481 -0.000211697547628655 -0.000576288619352446 0.00140205641419385 0.00068405150126082 -0.00238447828842419 0.000106056300702099 -0.00196673462119503 -0.000608309252256398 0.00295816339761289 -0.000534474524452739
"93" -0.000396468771660026 -7.4404575313075e-05 -6.84306378814802e-05 -0.000296272615716766 -9.15418444340447e-05 -0.000456607827546208 -0.000223449201083097 -0.000598384937833306 0.00152118201619449 0.000416969626363112 -0.0025622637078696 0.000138485451690154 -0.00200781492070543 -0.00070597134883169 0.00302653525898193 -0.000569767773012411
"94" -0.000413246121137899 -6.24021989877505e-05 -7.1212882232041e-05 -0.000298575992395883 -0.000108229975539688 -0.000471761076105021 -0.000235037004702696 -0.000619740759115819 0.00163648205491781 0.000134680090009457 -0.00272454571206273 0.00016887317183215 -0.00204880195425811 -0.000806972087336788 0.00307618412347597 -0.00060319128064449
"95" -0.000429450172168383 -5.02330877837126e-05 -7.3307434797052e-05 -0.00030082558675143 -0.00012479769709127 -0.000485973939452893 -0.000246381233027316 -0.000640229634070241 0.00174685239511471 -0.00016052349461299 -0.0028698033661712 0.000197092811640458 -0.00208962660830574 -0.000909920147988283 0.0031074412652781 -0.000634762058823691
"96" -0.000444890346039187 -3.79479965023225e-05 -7.46603707662731e-05 -0.000302937161387673 -0.000141126210659281 -0.000499111229135431 -0.000257405826617993 -0.000659728419227685 0.00185116081127722 -0.000466285904836738 -0.002996663701911 0.000223019059097396 -0.00213009358334624 -0.00101342233025673 0.00312082323659494 -0.000664539683037196
"97" -0.000459380199368456 -2.56080589165705e-05 -7.52341502750675e-05 -0.000304821962767971 -0.000157095901175623 -0.000511044913785887 -0.000268032474722827 -0.000678124450073249 0.00194828211969929 -0.000780207445900697 -0.00310391683855486 0.000246554223251518 -0.00216989786581969 -0.00111611911137822 0.00311699964807796 -0.000692594666000896
"98" -0.000472746503177787 -1.32711739814993e-05 -7.49834643179871e-05 -0.000306400795453354 -0.000172588763762917 -0.000521648810948529 -0.000278176214698311 -0.000695301050534583 0.00203713865975079 -0.00109986885598919 -0.00319056375119169 0.000267601729083616 -0.00220862678067754 -0.00121667172392349 0.00309677814329886 -0.000719037550451342
"99" -0.00048482816088957 -9.8417067408998e-07 -7.38729887789157e-05 -0.000307585680567989 -0.000187486060634497 -0.00053080407509008 -0.00028776218408362 -0.000711154457114898 0.00211672813703313 -0.00142285926509712 -0.00325578832182667 0.000286082500437676 -0.00224575511662057 -0.00131380934133654 0.00306109631936401 -0.000743998211002978
"100" -0.000495469210370775 1.11975227883178e-05 -7.18663242669755e-05 -0.000308302330280153 -0.000201667871347372 -0.00053840273413878 -0.00029670709553234 -0.00072558510158983 0.00218615643538855 -0.00174678187429697 -0.00329903797772533 0.000301933982022384 -0.00228066643098753 -0.0014063042583556 0.00301099802112877 -0.000767636353746897
"101" -0.00050453701810644 2.32252826710849e-05 -6.89360825117217e-05 -0.00030847653351744 -0.000215021793126384 -0.000544344459984424 -0.000304931230654129 -0.000738500970568023 0.00224468879468207 -0.00206928371487222 -0.00331996990264372 0.000315104012052203 -0.00231265864386887 -0.00149301246353217 0.00294762648934691 -0.000790124737374354
"102" -0.000511905271527368 3.50600141408261e-05 -6.50576536553475e-05 -0.00030803721317156 -0.000227434669242253 -0.000548539833092673 -0.000312361651928854 -0.000749822941759254 0.00229173888720673 -0.00238805141937551 -0.00331850189080526 0.000325556111741468 -0.00234095447769308 -0.00157285846301665 0.00287219339871157 -0.00081165655940996
"103" -0.000517468805874751 4.66589919381261e-05 -6.02056200221114e-05 -0.000306920312747848 -0.000238803462662102 -0.000550907782699736 -0.000318921767996413 -0.000759472417355902 0.00232690838642229 -0.00270083560258813 -0.00329482300587542 0.00033326355831516 -0.0023647360914788 -0.0016448512332698 0.00278595598164519 -0.000832431085885154
"104" -0.000521137352052885 5.79840550638561e-05 -5.43722983646291e-05 -0.000305071159140384 -0.000249024970727622 -0.000551381523649272 -0.000324543097837273 -0.000767393258283526 0.00234998068300634 -0.00300545339885308 -0.00324935906349848 0.00033821729857789 -0.00238314414079533 -0.00170808374956108 0.00269021742711929 -0.000852658239047598
"105" -0.000522841268604739 6.90057048137166e-05 -4.75454389747957e-05 -0.000302438077348513 -0.000258009072458858 -0.000549906708605473 -0.000329156257516601 -0.000773527899764995 0.00236092820107665 -0.00329979830314458 -0.00318279801997098 0.000340419561940379 -0.00239530621036164 -0.00176172667589217 0.00258629506960385 -0.000872549156788247
"106" -0.000522525343306167 7.97013208917379e-05 -3.97254672392119e-05 -0.000298978479963174 -0.000265670681897778 -0.000546444673352463 -0.000332704648374573 -0.00077783392234976 0.0023598964679363 -0.00358185079869144 -0.00309607379842918 0.000339886240771531 -0.00240035565587408 -0.0018050429919385 0.00247551568475691 -0.000892318821644826
"107" -0.000520156657829746 9.00465573754987e-05 -3.09139912610877e-05 -0.000294660077069183 -0.000271932344529877 -0.000540964116618822 -0.000335128466358926 -0.000780281720403436 0.00234720128078002 -0.00384967889980407 -0.00299034816501955 0.000336651299205198 -0.00239746908909921 -0.00183736806175866 0.00235918324228009 -0.000912171233145091
"108" -0.000515717803476148 0.000100021212772332 -2.11256674246356e-05 -0.000289454409895123 -0.000276732201736954 -0.000533456241305416 -0.00033638259126295 -0.00078085406483014 0.00232329489581371 -0.00410143227703458 -0.002867016726242 0.0003307571003549 -0.00238588443621403 -0.00185811795851675 0.00223857967320172 -0.000932297980987768
"109" -0.000509209805721305 0.000109623824124792 -1.03764062413039e-05 -0.000283345512747031 -0.00028001273651376 -0.000523921919973549 -0.00033642454498082 -0.000779536832326334 0.00228874778814347 -0.00433537445380751 -0.00272763599398408 0.000322261419061443 -0.00236491338750384 -0.00186679045904244 0.00211494235829839 -0.000952893957122972
"110" -0.000500656861783057 0.00011884027247997 1.30713047130943e-06 -0.000276325842686624 -0.00028173252388368 -0.000512380980244729 -0.00033522022429024 -0.000776337834147367 0.00224423206203507 -0.00454986572733402 -0.00257395788379233 0.000311234361886223 -0.00233398323852531 -0.00186295467315458 0.00198946399382701 -0.000974110408472596
"111" -0.000490093722926916 0.000127671339989364 1.3891326198807e-05 -0.000268396550254461 -0.000281855497812354 -0.000498864193126235 -0.00033274271885401 -0.000771272425235231 0.00219049410028135 -0.0047433856292603 -0.00240786259207819 0.000297762631798927 -0.00229264242721814 -0.00184625260884564 0.00186326516026906 -0.000996091972858529
"112" -0.000477579996924605 0.000136114485316683 2.73312052758209e-05 -0.000259567907439247 -0.000280365672840433 -0.000483422163228228 -0.000328974073532266 -0.000764365187988057 0.00212831990073754 -0.00491453181339288 -0.00223134254536126 0.000281947085878699 -0.00224057991317599 -0.0018163916243838 0.00173740739139389 -0.00101895919955995
"113" -0.000463187572085038 0.000144182185080291 4.15759987181749e-05 -0.000249861008575377 -0.000277256223762158 -0.000466116320043771 -0.000323911809628083 -0.000755655267200428 0.00205852433449002 -0.00506202550027486 -0.00204647430144805 0.000263898606319792 -0.00217764930455878 -0.00177313232484196 0.00161286623768943 -0.0010428046922545
"114" -0.000447005803308712 0.00015187814953714 5.65663516654461e-05 -0.00023930165686321 -0.000272534370845941 -0.000447032731394611 -0.000317551766187249 -0.000745195946250385 0.00198191563709902 -0.00518472780943421 -0.00185538531106982 0.000243743353739713 -0.00210385336144269 -0.00171631523156519 0.00149054987009252 -0.00106769938773837
"115" -0.000429141565833625 0.000159215548816624 7.22417971303247e-05 -0.000227932602291572 -0.000266219453253255 -0.000426262821706925 -0.000309911874496863 -0.000733046546359921 0.00189929255181234 -0.00528163354133988 -0.00166023946460698 0.00022162140163557 -0.0020193857640092 -0.00164581885099766 0.00137127236624604 -0.00109368777006271
"116" -0.000409713167713423 0.000166206756009009 8.85212548511768e-05 -0.000215797203229402 -0.000258345981850149 -0.000403920430920321 -0.000301013688842319 -0.000719281719956662 0.00181141564499617 -0.00535190280572201 -0.00146318295687068 0.000197679768989675 -0.00192460120108184 -0.00156160008681813 0.00125576642161222 -0.00112077675985328
"117" -0.000388852985422368 0.000172872979902719 0.000105324205012428 -0.000202953261636333 -0.000248963708760316 -0.000380129782445355 -0.000290889084876847 -0.000703985176426893 0.00171900725824824 -0.00539485144234287 -0.00126634697880579 0.000172083460898542 -0.00182003833283307 -0.00146366155777878 0.00114467161511113 -0.0011489643537613
"118" -0.000366699792671855 0.000179224785521223 0.000122557536656448 -0.000189460918425063 -0.000238132128092089 -0.000355032965579107 -0.000279586194545948 -0.000687255145807557 0.00162272903010681 -0.0054099786010012 -0.00107181518792996 0.00014500484856443 -0.00170639005997829 -0.00135206736573964 0.00103854377806195 -0.00117820591481758
"119" -0.00034340465307418 0.000185286159228449 0.000140126754142967 -0.000175393442824152 -0.000225929155226662 -0.000328779608104426 -0.000267160629015275 -0.000669193321811376 0.00152317609360343 -0.00539697141949234 -0.000881581451114945 0.000116624847906632 -0.00158449889736688 -0.00122693839313271 0.000937850455107407 -0.0012084407903055
"120" -0.000319133438889293 0.000191069733630278 0.000157927143316855 -0.00016082913365368 -0.000212443032373965 -0.000301539597015036 -0.000253680708167464 -0.000649918525392959 0.00142089070057059 -0.00535571808663831 -0.000697566839896603 8.71417157586741e-05 -0.00145535677799577 -0.0010884460220905 0.000842968654175619 -0.00123956960505184
"121" -0.000294050130437694 0.000196596764651504 0.000175849476511351 -0.000145849119989363 -0.000197773082814569 -0.000273486526565326 -0.000239225257859051 -0.000629553682671244 0.00131633125872007 -0.00528631452988181 -0.000521557431498657 5.67561868512525e-05 -0.00132006620437296 -0.000936820879606117 0.000754196206168386 -0.00127148008800613
"122" -0.000268330043495191 0.00020188598610391 0.000193773010442374 -0.000130545980720263 -0.000182034166945124 -0.00024481240104004 -0.000223887377406851 -0.000608234067210074 0.00120990629829631 -0.00518907964106469 -0.000355216910327671 2.56778459674566e-05 -0.00117982986359674 -0.000772348127305434 0.000671755759849342 -0.00130403182922955
"123" -0.000242144750203124 0.000206952187050879 0.000211579482908612 -0.000115012956244999 -0.000165352274131045 -0.000215714204908427 -0.000207767383710149 -0.00058609635451898 0.00110195200265927 -0.00506455210741 -0.00020005802217759 -5.87372873696102e-06 -0.00103594038247487 -0.000595361634239306 0.000595778802824036 -0.00133705844475637
"124" -0.000215674534631773 0.000211808497797975 0.000229141015487139 -9.93500287659089e-05 -0.000147865234492998 -0.000186394617210602 -0.000190977063684211 -0.000563290974749306 0.000992753846203667 -0.00491350259970573 -5.74470843291781e-05 -3.76812541984588e-05 -0.00088974924259108 -0.000406254055302545 0.000526329049488536 -0.00137037160851543
"125" -0.000189095374708357 0.000216469291867928 0.000246332056702123 -8.36559487889441e-05 -0.000129715541360819 -0.000157067037196716 -0.000173644385135014 -0.000539969161202921 0.000882541091875759 -0.00473694402492059 7.14227692942473e-05 -6.95115229131629e-05 -0.000742654408401679 -0.000205469634790051 0.000463407392319562 -0.00140376598203181
"126" -0.000162581459360558 0.00022094961197598 0.000263018642060821 -6.80355866712168e-05 -0.000111062052325113 -0.000127946431806383 -0.000155898979149119 -0.000516283538733003 0.000771488577465982 -0.00453612679385925 0.00018554895659144 -0.000101143428553076 -0.000596068593337872 6.49408182887271e-06 0.000406946107113328 -0.00143701647305473
"127" -0.000136308137238558 0.000225256169685223 0.000279069937714173 -5.25923237993305e-05 -9.20663437059427e-05 -9.92543356190903e-05 -0.000137885845661282 -0.000492399721329337 0.000659742960043248 -0.00431252705740195 0.000284089950056272 -0.000132340963992585 -0.000451413825478904 0.00022908275693907 0.00035683134670497 -0.00146986946375779
"128" -0.00011043851550684 0.000229393934836419 0.000294355780595523 -3.74320039497667e-05 -7.28996262145482e-05 -7.12058652858225e-05 -0.000119758888028467 -0.000468468969282512 0.000547413876639592 -0.00406784006406973 0.000366397406439193 -0.00016287727546099 -0.000310115372923716 0.00046171392388055 0.000312876755026818 -0.00150207425558088
"129" -8.51388681321566e-05 0.00023336969481889 0.000308738089301338 -2.2655910341981e-05 -5.37349330214002e-05 -4.40233029140013e-05 -0.000101675340055338 -0.000444660611609564 0.000434582298071198 -0.00380398814058268 0.000432010913256168 -0.000192527686382284 -0.000173553389175501 0.000703733700091053 0.000274862099448522 -0.00153334722414907
"130" -6.05601372774113e-05 0.000237187930514789 0.000322092026622656 -8.36641261518904e-06 -3.47516449133087e-05 -1.79178926502076e-05 -8.3801971168251e-05 -0.000421125450374852 0.000321323255943495 -0.00352308595304677 0.00048065442055784 -0.000221065292782827 -4.30757547525266e-05 0.000954449072337265 0.000242520257463001 -0.00156340761324174
"131" -3.68433852316917e-05 0.000240842773391314 0.00033428637241785 5.33791101726905e-06 -1.6131320753978e-05 6.89639230805768e-06 -6.63092597517305e-05 -0.000398020133950151 0.000207710465103568 -0.00322743210380591 0.000512230013913211 -0.000248275523010931 8.00132807690284e-05 0.00121312734602958 0.000215542249772653 -0.00159195453294615
"132" -1.41260045992941e-05 0.000244337863733458 0.000345201355648545 1.83666771712609e-05 1.94559085560289e-06 3.0219843963346e-05 -4.9378035381194e-05 -0.000375495461368668 9.38307811303984e-05 -0.00291947027450964 0.000526816171580215 -0.000273950861750182 0.000194487082402733 0.0014789844075708 0.000193586804240942 -0.00161868910323696
"133" 7.46838857181078e-06 0.00024766610549554 0.000354716731652079 3.06281461776031e-05 1.9297276669107e-05 5.18567587203292e-05 -3.31819096511078e-05 -0.000353694413622531 -2.01974772741507e-05 -0.0026017798174901 0.00052467151047205 -0.000297889229003924 0.000299185931134225 0.00175120300273891 0.000176294115209594 -0.00164330417475996
"134" 2.78310006202134e-05 0.000250819867332052 0.000362724540836895 4.20422018570296e-05 3.57457096055074e-05 7.1627850628096e-05 -1.79058503875698e-05 -0.000332747702253575 -0.000134222267381804 -0.00227702413769811 0.000506197748810304 -0.000319904850067983 0.000393034195934454 0.00202893394416994 0.000163275139039688 -0.00166548699971771
"135" 4.68699980323617e-05 0.000253791034482966 0.00036912088819231 5.25353347096891e-05 5.11167555519069e-05 8.93689299259206e-05 -3.72908550227874e-06 -0.000312781899044708 -0.000248022800810524 -0.0019479356840304 0.000471955817683108 -0.000339821869390935 0.000475052310106439 0.00231129107318551 0.000154129987371938 -0.00168493985808096
"136" 6.44950135107335e-05 0.000256573220557972 0.000373810128239651 6.2038577848103e-05 6.52458590615252e-05 0.000104922936305938 9.17182920470531e-06 -0.000293910273494712 -0.000361320660087543 -0.00161726930331528 0.000422639622889954 -0.000357482381968458 0.000544361973020945 0.00259735352237345 0.000148446053595003 -0.00170136126696546
"137" 8.0644308283312e-05 0.000259145155663425 0.000376706049664786 7.04955284789532e-05 7.79705755638533e-05 0.00011815623906366 2.06228769148662e-05 -0.000276234546902134 -0.000473740413954907 -0.00128776587738848 0.000359062541359561 -0.000372739738016815 0.000600195165414064 0.00288618072205944 0.000145799813527621 -0.00171446056489597
"138" 9.52610681573856e-05 0.00026150095402929 0.000377735158095666 7.78588380256979e-05 8.91446410439358e-05 0.000128952328021179 3.04535615197281e-05 -0.000259838320238075 -0.000584812486243023 -0.000962102142851181 0.000282152188467591 -0.000385472514364293 0.000641893093719584 0.00317680709516767 0.000145777285642459 -0.00172396112738922
"139" 0.000108308650901684 0.000263619429434962 0.000376840668264243 8.4088973019911e-05 9.86264528113725e-05 0.000137214752255891 3.85038843437388e-05 -0.000244799008773332 -0.000693945563789049 -0.000642865924250991 0.00019293329917838 -0.000395569726720361 0.000668930549952343 0.00346824679502063 0.000147969462053237 -0.00172960221184944
"140" 0.00011976749020522 0.000265485049155486 0.000373967349156542 8.9159736481928e-05 0.000106290014598861 0.000142867231470092 4.46216594772072e-05 -0.000231173655052215 -0.000800428170881066 -0.000332501823611038 9.25063393353068e-05 -0.000402950341056952 0.000680897028139707 0.0037594864695652 0.000151964756136415 -0.00173114599812573
"141" 0.000129628139589092 0.000267077748578367 0.000369080960528825 9.30536555188213e-05 0.000112022425582977 0.000145855452484302 4.86666350772556e-05 -0.000219002065558919 -0.00090342578784169 -3.32895044105721e-05 -1.79751351033544e-05 -0.000407550888833007 0.000677511018180892 0.00404950302771508 0.000157369527375289 -0.00172838175548785
"142" 0.000137903375790893 0.000268380937403836 0.000362157917599886 9.57650502270201e-05 0.000115727788466991 0.000146150111464718 5.05132999732577e-05 -0.00020831083634414 -0.00100197658605993 0.00025268797903211 -0.000137293226893532 -0.000409329089675314 0.000658630165692845 0.00433724764671238 0.00016380387890465 -0.00172112646960043
"143" 0.000144614940695426 0.000269370062902456 0.000353191614463305 9.73001237821601e-05 0.000117325289673603 0.000143741567136459 5.00453592227302e-05 -0.000199110852117263 -0.00109501822391686 0.000523581641323111 -0.000264205597998921 -0.000408270339597031 0.000624230217845717 0.00462166117580869 0.000170904075780826 -0.00170923649710654
"144" 0.000149802716008254 0.000270024348789201 0.00034218686176833 9.76768372959514e-05 0.000116752586379242 0.000138641517062002 4.71712648005339e-05 -0.000191397487833154 -0.00118139562573404 0.000777797704640775 -0.000397455843443722 -0.000404377194811923 0.000574433710984364 0.00490167379394502 0.000178328753689214 -0.00169260565066465
"145" 0.00015352061348679 0.00027032308375271 0.000329170021521727 9.69221280352945e-05 0.000113963288296227 0.000130887096224352 4.18121055065115e-05 -0.000185147263484936 -0.00125989982719956 0.00101400905484514 -0.000535771414145529 -0.00039768519249941 0.000509487046838264 0.0051761902510028 0.000185755558107807 -0.00167116952795243
"146" 0.000155835215598895 0.000270243510821331 0.000314174859476238 9.50787420558265e-05 0.000108932310698149 0.000120539071784746 3.39077852219032e-05 -0.000180325115282242 -0.00132932313898278 0.00123117139601697 -0.000677910464111461 -0.000388241843429521 0.000429779645747545 0.00544412323829524 0.000192880577725532 -0.0016449213813823
"147" 0.000156832260500603 0.000269762559388638 0.00029725016761234 9.21936258027909e-05 0.000101650626692114 0.000107672563459185 2.34209589808865e-05 -0.000176880551409614 -0.00138849245596392 0.00142852543996916 -0.000822626465370029 -0.000376124831182241 0.000335819509074007 0.00570436892698678 0.00019942625432049 -0.00161390433766238
"148" 0.000156597335387315 0.00026885967292125 0.000278469847375059 8.83314802020552e-05 9.21337943209871e-05 9.23883117312766e-05 1.03348664449772e-05 -0.000174753049967304 -0.00143634635157765 0.0016055987349378 -0.000968715498073215 -0.000361428265716626 0.000228259671522138 0.00595581619299264 0.000205143519198809 -0.00157822325146035
"149" 0.000155237151603752 0.000267514619461396 0.000257909076525839 8.35602745398077e-05 8.04091227545061e-05 7.48058150855109e-05 -5.34522719015885e-06 -0.000173859155080743 -0.00147198770464317 0.00176220134371846 -0.00111500373679363 -0.00034427286116115 0.000107870530501728 0.00619736585047158 0.000209801639407828 -0.00153805116499887
"150" 0.000152861137808983 0.000265703279069758 0.000235669129159178 7.79618548893458e-05 6.65309843768665e-05 5.50571291421688e-05 -2.35932435392204e-05 -0.000174118976256983 -0.00149475374890057 0.00189840564777388 -0.00126036909744233 -0.00032479109248753 -2.44468211600295e-05 0.00642791100591118 0.000213207509329106 -0.00149362309262026
"151" 0.000149597422581235 0.00026341695841547 0.000211853608733423 7.16256818624208e-05 5.05711697310453e-05 3.32967648619817e-05 -4.43578833308959e-05 -0.000175428932587074 -0.00150426576021055 0.00201453222401666 -0.00140373972348254 -0.000303143245329741 -0.000167671052765528 0.00664635736644362 0.00021519922352589 -0.00144525082262911
"152" 0.000145571857249744 0.000260632961209953 0.000186588475962907 6.46511451511782e-05 3.26114868304467e-05 9.68680531957528e-06 -6.75658292371487e-05 -0.000177688481524117 -0.00150046451275876 0.00211114330952729 -0.00154409116105736 -0.000279497256799312 -0.000320665938297749 0.00685161121938188 0.000215637290272275 -0.0013933166136767
"153" 0.000140918001360055 0.00025734368961748 0.000160002386425301 5.71402782352206e-05 1.27635701401426e-05 -1.55922672013194e-05 -9.3122958696247e-05 -0.000180778511268566 -0.00148363498211088 0.00218898743115229 -0.00168045849498715 -0.000254037830563568 -0.000482170587321073 0.00704259048872601 0.000214425183040084 -0.00133827253372321
"154" 0.000135778728819187 0.000253538292777348 0.000132245163971936 4.92041167013231e-05 -8.85413827421368e-06 -4.23546197732716e-05 -0.000120914693235094 -0.000184585691191461 -0.0014544033042625 0.00224901545463131 -0.00181194096849565 -0.000226962785432427 -0.000650828584973387 0.00721825665071625 0.00021148077198937 -0.00128064879683719
"155" 0.000130293984894321 0.000249219511413547 0.000103464869250257 4.09646382918506e-05 -3.21017769263974e-05 -7.04032725877456e-05 -0.000150799090089609 -0.000188980812271624 -0.00141373091330535 0.00229231896378405 -0.0019377027693798 -0.000198476944849891 -0.000825170678640883 0.00737758994087515 0.000206758228628001 -0.00122103782285966
"156" 0.000124610623880739 0.000244378186863796 7.38310886944443e-05 3.25387894907486e-05 -5.68292579061186e-05 -9.95379122459083e-05 -0.000182626417424255 -0.000193841346301716 -0.00136287299028278 0.00232011047823613 -0.00205696897568202 -0.000168797996280135 -0.00100362874319398 0.00751961899677236 0.000200245285163994 -0.00116010576715476
"157" 0.000118874269935722 0.000239028662348434 4.35068858049267e-05 2.40537959179502e-05 -8.28707628854547e-05 -0.000129547529221027 -0.000216218279263883 -0.000199034779793454 -0.00130331673314314 0.00233370160983161 -0.00216903048731609 -0.000138141043573348 -0.00118455724398043 0.00764341824447492 0.000191953622850333 -0.00109858004252757
"158" 0.000113224201456927 0.000233181244354224 1.2671881540258e-05 1.56375560170326e-05 -0.000110055221675454 -0.00016022597381243 -0.000251384683371157 -0.000204432117498548 -0.00123673672833287 0.00233447265937804 -0.00227323209490182 -0.000106735786569385 -0.00136621559929539 0.00774811377248621 0.000181933106695545 -0.00103723754956044
"159" 0.000107803770512914 0.000226850921802396 -1.84970277623763e-05 7.4172200241785e-06 -0.000138194964382484 -0.000191359102693441 -0.000287917335729938 -0.000209905801157164 -0.00116491505368376 0.00232384526884499 -0.00236901310046037 -7.48047436682072e-05 -0.00154679998605495 0.00783292026392171 0.000170249507775277 -0.000976905393015328
"160" 0.000102747990186067 0.00022006545614724 -4.98186961676211e-05 -4.7521060779353e-07 -0.00016709921589564 -0.000222741679705736 -0.000325600081367177 -0.000215326468445682 -0.00108967218401697 0.00230326207825036 -0.00245583751444564 -4.25726686395071e-05 -0.00172442308642139 0.00789713023616712 0.000157014581488585 -0.000918443594135985
"161" 9.81888008888941e-05 0.000212855999952945 -8.11084375541723e-05 -7.91194645683677e-06 -0.000196570332507892 -0.000254162312784779 -0.000364199943040085 -0.000220570265165667 -0.00101282217807139 0.00227416649207542 -0.002533256525767 -1.02666944347582e-05 -0.00189717401313762 0.00794012633565857 0.000142345578227106 -0.000862734573509755
"162" 9.42465765165748e-05 0.000205258814913412 -0.000112185808545161 -1.4768414263348e-05 -0.000226404398601453 -0.000285421695639901 -0.000403483026144418 -0.000225518869300629 -0.000936103759530376 0.00223797964706096 -0.00260086132616567 2.18986263940581e-05 -0.00206307460731043 0.00796139234385239 0.000126395978353781 -0.000810672228881146
"163" 9.10383927291305e-05 0.000197317354826778 -0.000142869791966398 -2.0920473697391e-05 -0.000256401106988309 -0.00031631938795883 -0.000443198609017948 -0.000230057146035385 -0.000861157101351059 0.00219608336848745 -0.00265830689927851 5.37076265565686e-05 -0.00222012861274685 0.00796054452666374 0.000109344328603402 -0.000763141015636955
"164" 8.866874351252e-05 0.000189082440295201 -0.000172986136920683 -2.62495866284384e-05 -0.000286354132491988 -0.000346666654705854 -0.000483097438957393 -0.000234077121427477 -0.000789472648372788 0.00214980290090458 -0.00270531036494502 8.49535888270703e-05 -0.00236633537897754 0.00793731920962637 9.1389111733716e-05 -0.00072100105614923
"165" 8.72329283945822e-05 0.000180610934722016 -0.000202364064122062 -3.0645727503707e-05 -0.000316063528603666 -0.000376283933323382 -0.000522931328621389 -0.000237477838556224 -0.000722391814922796 0.00210038245023779 -0.00274160402973548 0.000115446972394126 -0.00249968520148815 0.00789158906305665 7.27512316025488e-05 -0.000685076121777401
"166" 8.68127780660889e-05 0.000171960263179543 -0.000230842738235621 -3.40028978063699e-05 -0.000345327800893002 -0.000404998278009838 -0.000562441852776288 -0.000240167591528716 -0.000661079557811471 0.00204899540432302 -0.00276700985341645 0.000144993441570458 -0.00261821472744176 0.00782338719860018 5.36579554914332e-05 -0.000656130671913667
"167" 8.74819332027838e-05 0.000163197500831306 -0.000258265730782051 -3.62243989983718e-05 -0.000373954142579692 -0.000432646160023354 -0.000601381386552517 -0.000242060111458225 -0.000606537124156806 0.00199671629125286 -0.00278136600256171 0.000173422509595709 -0.00272000077513101 0.00773288712999875 3.43664764469956e-05 -0.000634863904492934
"168" 8.92970737811525e-05 0.000154390905894617 -0.000284485611490929 -3.72231729252668e-05 -0.000401756388467018 -0.000459076336402955 -0.00063949922946856 -0.000243083256531228 -0.000559593980505421 0.00194451267660214 -0.00278457025441119 0.000200568425316153 -0.00280319963657167 0.0076204251075196 1.51354206158625e-05 -0.000621885904221612
"169" 9.23078212177889e-05 0.000145607050171812 -0.000309370804669213 -3.69206132995873e-05 -0.000428557564889741 -0.000484155533430524 -0.000676558086189425 -0.000243172847966017 -0.000520930489116861 0.00189325241944532 -0.0027765704587891 0.000226279382596772 -0.00286607143659603 0.00748649875961603 -3.76200745710447e-06 -0.000617695613631884
"170" 9.65437842367816e-05 0.000136927806408067 -0.000332800233683452 -3.52553622575908e-05 -0.000454188377990328 -0.000507752824918064 -0.000712320703092859 -0.000242279249950581 -0.00049106868139121 0.00184366236004352 -0.00275733703361575 0.000250414388964502 -0.00290699853249814 0.00733175099041756 -2.20436386949616e-05 -0.000622680141896161
"171" 0.000102023195788125 0.000128416468928623 -0.000354661181563601 -3.21693257106834e-05 -0.000478489443565044 -0.000529761455740616 -0.000746566785716003 -0.000240362157552086 -0.000470406307038664 0.00179635409424704 -0.00272692202581407 0.000272848392382904 -0.00292452664476714 0.00715698853776801 -3.94393282753963e-05 -0.000637103596639961
"172" 0.000108751318819447 0.000120151817170619 -0.000374855733491778 -2.76245857000028e-05 -0.000501320098843392 -0.000550076626592093 -0.000779076642214337 -0.000237390486653532 -0.000459193589799454 0.00175180094002769 -0.00268540610341839 0.000293464334137867 -0.00291739186226657 0.00696315528119364 -5.56624675272212e-05 -0.000661082782349176
"173" 0.000116726577574384 0.000112197297133297 -0.000393302771880071 -2.15957889540216e-05 -0.000522547566070976 -0.000568619466777712 -0.0008096502447718 -0.000233351973650858 -0.000457567790614287 0.00171034493757936 -0.00263292158548396 0.000312166962238382 -0.00288455908989513 0.00675132539154956 -7.0450846590845e-05 -0.000694585450486351
"174" 0.000125926691986101 0.000104615889845334 -0.000409932365338899 -1.407189990759e-05 -0.000542053197525541 -0.000585317810559936 -0.000838104141124895 -0.000228244304392233 -0.000465544883074292 0.00167217937966658 -0.00256968060975858 0.00032886405681836 -0.0028252214034987 0.00652269795473412 -8.35410354764662e-05 -0.000737431189315764
"175" 0.000136318090605734 9.74772632134456e-05 -0.000424689676932348 -5.05210298504834e-06 -0.000559739692025823 -0.000600116829198478 -0.000864256722036356 -0.000222080662642626 -0.000483028959293704 0.00163735531802396 -0.00249593194608817 0.000343481434656583 -0.00273886161250833 0.00627856900669427 -9.46952785653828e-05 -0.00078928152997546
"176" 0.000147860803855308 9.0829270477977e-05 -0.000437530647562672 5.44328683229518e-06 -0.00057551864837239 -0.000612974658400433 -0.000887955009016555 -0.000214887437929008 -0.000509810119700934 0.0016057918739973 -0.00241200750343535 0.000355958314359118 -0.00262525001225497 0.00602032575847619 -0.000103687602833547 -0.000849636194118024
"177" 0.000160502108080809 8.47245374494617e-05 -0.000448431079518542 1.73820100477452e-05 -0.000589320713378403 -0.000623863807078821 -0.000909055748721175 -0.000206702438028417 -0.000545580193201712 0.00157727104411159 -0.00231830162245942 0.000366242655958502 -0.00248448159322948 0.00574942208775314 -0.000110321349991311 -0.000917848378321106
"178" 0.000174181381955277 7.91969876292318e-05 -0.000457372238832121 3.07155668936088e-05 -0.000601094367301665 -0.000632770802943488 -0.000927432735819402 -0.000197577624947193 -0.000589913457446656 0.00155144314119382 -0.00221528244089893 0.000374295270554735 -0.00231698595373738 0.00546736287977663 -0.00011442616872296 -0.000993108214852274
"179" 0.000188820967041185 7.42879394817549e-05 -0.000464355900583898 4.53831606260828e-05 -0.000610803810849816 -0.000639697708789294 -0.000942981992657158 -0.00018757783503581 -0.00064229312840987 0.00152783697893393 -0.00210349129747259 0.000380091049742576 -0.00212353370206309 0.00517568906951829 -0.000115862568354201 -0.00107446583303175
"180" 0.000204347495523581 7.00106902384215e-05 -0.000469392846504152 6.13061931906153e-05 -0.000618428935382293 -0.000644661182428405 -0.000955613518160601 -0.000176778248980576 -0.000702094358912416 0.00150587931645354 -0.00198353573172583 0.000383623567623737 -0.00190524767625625 0.00487595626748244 -0.000114510922011662 -0.0011608335097974
"181" 0.000220672768889476 6.63850960682899e-05 -0.000472508597877375 7.83976785829286e-05 -0.000623967595005492 -0.000647684147868331 -0.000965256130233936 -0.000165266311016259 -0.000768604472335646 0.00148490831726567 -0.00185609739902045 0.000384885826513806 -0.0016636019992053 0.00456972413906608 -0.000110302236711396 -0.00125100552424622
"182" 0.000237701197362848 6.34054377670628e-05 -0.000473743549326246 9.65535373947044e-05 -0.000627433739826106 -0.000648812721545972 -0.000971863231283683 -0.000153142638440148 -0.000841016251859107 0.00146418397423039 -0.00172192899896521 0.000383896799433281 -0.00140040010517285 0.00425853633949018 -0.00010320176517051 -0.00134366311640404
"183" 0.000255340852365965 6.10759627814573e-05 -0.00047314186416103 0.00011565992457996 -0.000628860195722683 -0.000648100224860583 -0.000975404057939171 -0.000140511342481475 -0.000918447392735059 0.00144291724615978 -0.00158182016446433 0.000380682448592974 -0.00111777165318882 0.00394390467569843 -9.31998635447628e-05 -0.00143739597136867
"184" 0.000273480852989662 5.93710240216722e-05 -0.00047076910057021 0.000135593161223328 -0.000628289398966381 -0.00064560998015896 -0.000975867072971349 -0.000127488856352313 -0.000999944188397944 0.00142029853072349 -0.00143663465685938 0.000375285836423149 -0.000818159975223882 0.00362731262656216 -8.03476490682114e-05 -0.00153072704854889
"185" 0.000292018789754906 5.82695929654548e-05 -0.000466698930877248 0.000156218156509668 -0.000625781838253629 -0.000641418394834995 -0.000973264540007684 -0.000114190685453104 -0.00108450608406997 0.00139551048737967 -0.00128726576735315 0.000367767455850982 -0.000504263562520613 0.00331019873184531 -6.47145326461044e-05 -0.00162212728647798
"186" 0.000310843159011524 5.77374424232625e-05 -0.000461016498683692 0.000177394675385524 -0.000621414109112072 -0.000635615546505756 -0.000967625519914301 -0.000100744563871587 -0.00117108823399739 0.00136775587164603 -0.00113464024238905 0.000358200265510838 -0.000179025807241432 0.00299393848084545 -4.6410976445401e-05 -0.00171003934629318
"187" 0.000329839333696704 5.77342598961139e-05 -0.000453811341466262 0.000198976468840275 -0.000615275107700048 -0.000628301659707665 -0.000959007358655976 -8.72795167977077e-05 -0.00125862653525303 0.00133628983786768 -0.000979697995559933 0.000346672518475909 0.000154420801092348 0.00267985467585791 -2.55828588834317e-05 -0.00179289700137102
"188" 0.00034889258357401 5.82082348743633e-05 -0.000445195712415699 0.000220807884200941 -0.000607462405213265 -0.000619580324273036 -0.000947474774625908 -7.39175291007515e-05 -0.00134603862296589 0.00130045307171437 -0.000823413570126356 0.000333293619536994 0.000492769744094042 0.002369228216405 -2.41862975427729e-06 -0.00186916781186523
"189" 0.000367887583029787 5.91111174603154e-05 -0.000435281800024827 0.000242737445648973 -0.000598090667276569 -0.000609570225456789 -0.000933128616280057 -6.07888909012342e-05 -0.0014322517975834 0.00125967043056766 -0.000666715360793846 0.000318192372681556 0.000832630923776487 0.00206325812221385 2.2876555294584e-05 -0.00193735048618797
"190" 0.000386707567979137 6.03781719977677e-05 -0.000424193333560625 0.000264609346583845 -0.000587279393177466 -0.000598395546916465 -0.000916075123123475 -4.80198186153748e-05 -0.00151621878328228 0.00121349402506776 -0.000510558642328648 0.000301506168906296 0.00117054351509848 0.00176309668853427 5.00639510153002e-05 -0.00199600880881109
"191" 0.000405229964373876 6.19495504495199e-05 -0.000412065936265961 0.000286265246824931 -0.000575162073975589 -0.000586186313329217 -0.000896449660216569 -3.57258650589366e-05 -0.00159692380792583 0.00116162041267307 -0.0003558333056215 0.000283396402626437 0.00150303339108162 0.00146982186357655 7.88759842201792e-05 -0.00204379155623113
"192" 0.000423338740675505 6.37612561660346e-05 -0.000399035036628606 0.000307554802874834 -0.000561873939951966 -0.00057307846848933 -0.000874406449752617 -2.40249472517149e-05 -0.00167340579916708 0.00110388525597813 -0.000203408926454883 0.000264037150950805 0.00182668108317684 0.00118444585085676 0.000109028926432163 -0.00207944719984
"193" 0.000440920749591363 6.57497643071361e-05 -0.000385248378823091 0.000328327205817884 -0.000547563275034893 -0.000559212051699655 -0.00085011304419583 -1.30188122529923e-05 -0.00174475574100816 0.0010403057077134 -5.41036926362148e-05 0.000243618274837995 0.00213813758163415 0.000907924310672147 0.000140222350874806 -0.00210185034994887
"194" 0.000457860377933814 6.78454225282208e-05 -0.000370856901148522 0.000348436343646768 -0.000532379246489768 -0.000544736430148878 -0.000823757671661299 -2.81006747619588e-06 -0.00181013837313324 0.000971054815097266 9.13187497825559e-05 0.00022234093058433 0.00243420127993472 0.000641142054631371 0.000172142156605853 -0.00211000435917359
"195" 0.000474040544604424 6.99864771214217e-05 -0.000356008299652253 0.000367747177885052 -0.000516474234515412 -0.000529793335260029 -0.000795542307883172 6.5166537273351e-06 -0.00186878384087863 0.000896471922499069 0.000232149931545745 0.000200419583197177 0.00271184673202438 0.000384915778592284 0.000204459949878963 -0.00210306521242029
"196" 0.000489356158190755 7.21097463128783e-05 -0.000340863692635811 0.000386128419659179 -0.000500007645020339 -0.000514531633615771 -0.000765686838365332 1.4881282414348e-05 -0.00191999689784112 0.000817049775803055 0.00036775599511976 0.000178078296697646 0.00296826840340961 0.000139992584499357 0.000236855751181188 -0.00208035062536613
"197" 0.000503702363788553 7.41553682119741e-05 -0.00032557606816582 0.000403456505551885 -0.000483137507302659 -0.000499098053189427 -0.000734423625750373 2.22168736981383e-05 -0.00196315202051944 0.000733434421170637 0.00049755396414407 0.000155543245250071 0.00320091799341732 -9.29585806521768e-05 0.000269000904627901 -0.00204133325578916
"198" 0.000516979721172745 7.6062460466012e-05 -0.000310297185890349 0.000419621113024495 -0.000466016091823262 -0.000483637826843975 -0.000701991945634833 2.84748254068375e-05 -0.00199769975940694 0.000646414355615737 0.000621036597157993 0.000133041932594934 0.00340753165393274 -0.000313341683956388 0.0003005634584471 -0.00198567713919965
"199" 0.000529088929556418 7.77794271760613e-05 -0.000295175713894787 0.00043452116437905 -0.000448804518375966 -0.000468294733588796 -0.000668649590699992 3.36010175812999e-05 -0.00202315573121051 0.000556884226750365 0.000737753330146033 0.000110812999378831 0.00358616707812375 -0.000520665289590964 0.000331224531485662 -0.00191320389628381
"200" 0.00053994807453174 7.92656495291975e-05 -0.000280358043506955 0.000448069053729783 -0.000431650364723659 -0.000453205277553456 -0.00063465112049343 3.75739790011787e-05 -0.00203909709223589 0.000465839564300107 0.000847334442893078 8.90832866110843e-05 0.00373521837184662 -0.00071450884748557 0.000360655059716732 -0.0018239403848116
"201" 0.000549472706473242 8.04701030151753e-05 -0.000265977657226797 0.000460184161479786 -0.000414703812516719 -0.000438503821620364 -0.000600263793126522 4.03731189562532e-05 -0.0020451544109205 0.000374355159968155 0.000949447837254598 6.80870149914265e-05 0.00385342214457738 -0.000894552201618433 0.000388548466568537 -0.0017180889454734
"202" 0.000557590669883704 8.13523193014566e-05 -0.00025216909491899 0.000470803582562391 -0.000398107352601385 -0.000424314788211635 -0.000565752647678439 4.19878102459239e-05 -0.00204101602137827 0.000283555802959873 0.00104382766910894 4.80409112123375e-05 0.00393988761201052 -0.0010605707187316 0.000414608862795348 -0.0015960482187735
"203" 0.000564236775151855 8.18874093990558e-05 -0.000239041586426723 0.000479873022095445 -0.000381994892043577 -0.000410758152874225 -0.000531389583268676 4.24231814673027e-05 -0.00202641464394811 0.00019458817018137 0.00113027361448646 2.91617627879311e-05 0.00399409191674994 -0.00121243655802607 0.000438563844490909 -0.00145839953180473
"204" 0.00056935977852515 8.20447078178306e-05 -0.000226713099204908 0.000487354325873806 -0.000366495078772501 -0.000397945283370556 -0.00049743596980398 4.16913500761907e-05 -0.00200112323496565 0.000108615769635627 0.00120860930512595 1.16492243002353e-05 0.00401586345042662 -0.00135012613070181 0.000460145350567045 -0.00130591001399066
"205" 0.000572910548870448 8.17992608524651e-05 -0.000215271767235504 0.000493218905261454 -0.000351724488801479 -0.000385978575558508 -0.000464153505321787 3.98145599041825e-05 -0.00196495304327151 2.67864980234713e-05 0.00127872089375108 -4.30196874788274e-06 0.00400540573073104 -0.00147371554811046 0.000479117635327696 -0.00113954128080977
"206" 0.000574859589056973 8.11357456764464e-05 -0.000204799842893246 0.000497453193340951 -0.000337794882541037 -0.000374945071579903 -0.0004317969706456 3.682985622852e-05 -0.00191774929386449 -4.97759049398652e-05 0.00134052990199736 -1.85161111540423e-05 0.00396325138414085 -0.00158338288582913 0.000495256455290071 -0.000960436638420999
"207" 0.000575181995557095 8.00391577555441e-05 -0.000195364623984288 0.000500055438286049 -0.00032480545135272 -0.000364927795025671 -0.000400608873482541 3.27706411865728e-05 -0.00185940304485668 -0.000120005714108427 0.00139397969710771 -3.08292797409646e-05 0.00389028429261692 -0.00167940929794848 0.000508370411572092 -0.000769910505292773
"208" 0.000573865006855604 7.85051750292209e-05 -0.000187015949439255 0.000501037188590799 -0.000312836601400229 -0.000355996547623923 -0.000370815010827177 2.76861518780299e-05 -0.00178983670775167 -0.000182894894271538 0.00143906571698975 -4.10934888182206e-05 0.00378769370132909 -0.001762175158638 0.00051830193419066 -0.000569464283963277
"209" 0.000570907443408373 7.65297675730884e-05 -0.000179791911992675 0.000500417361138345 -0.000301969488213134 -0.000348210019246501 -0.000342635405970832 2.16307787465632e-05 -0.00170903186811259 -0.000237499052535996 0.00147579040414062 -4.91793466838947e-05 0.00365695572561171 -0.00183214142252753 0.000524905104636112 -0.000360762550352846
"210" 0.000566323796426681 7.41080121858432e-05 -0.000173716602201097 0.000498231534143621 -0.000292263261705192 -0.000341613094504544 -0.000316263898574885 1.46605831379677e-05 -0.00161699962137808 -0.000282962482368378 0.00150419282514718 -5.4961538279543e-05 0.00349981778105307 -0.00188986851450577 0.000528075395603618 -0.000145618271935381
"211" 0.000560138128865443 7.12511019118298e-05 -0.000168792600733379 0.000494524632914502 -0.000283769013447469 -0.000336242044944219 -0.000291881213914822 6.84098786967331e-06 -0.00151383210988931 -0.000318515878610696 0.00152432943291358 -5.83492929327153e-05 0.00331826958446059 -0.00193597965233227 0.000527734275842162 7.40014672502616e-05
"212" 0.000552385235545183 6.79605627647043e-05 -0.000165010973661924 0.000489348952835351 -0.00027652413534156 -0.000332116793884801 -0.00026964205401112 -1.76935299995123e-06 -0.00139966667769279 -0.000343474428925058 0.00153629405748126 -5.92502292569197e-05 0.00311451134969439 -0.00197118334783959 0.000523847186324488 0.000296011544348763
"213" 0.000543111416791678 6.42555952184292e-05 -0.000162349055952828 0.000482767581047974 -0.00027054989554018 -0.000329252250758219 -0.000249678976536331 -1.10965835573578e-05 -0.00127471179065847 -0.000357258011832188 0.0015401855689239 -5.76008240577771e-05 0.00289093181023993 -0.001996251422836 0.00051641798552317 0.000518215456219262
"214" 0.000532378893202427 6.01432715565469e-05 -0.000160771117323047 0.000474853497552226 -0.000265859142357342 -0.000327646408382493 -0.000232105992995487 -2.10723749463391e-05 -0.00113924971838381 -0.000359369002674096 0.00153614121977802 -5.3343589754568e-05 0.00265006748765978 -0.0020119978745323 0.00050547620454933 0.000738341724662383
"215" 0.000520253559928105 5.56423234645686e-05 -0.000160224853257829 0.000465689420628587 -0.00026244946845553 -0.000327288072636355 -0.000216998292311604 -3.16274668124577e-05 -0.000993635997450846 -0.000349417865152763 0.00152432396809306 -4.64366719216413e-05 0.00239458111355641 -0.00201926799701462 0.000491099376951481 0.000954061218864776
"216" 0.000506820113973902 5.0775653604901e-05 -0.000160651068422009 0.000455361771337789 -0.000260306105710493 -0.00032815228105217 -0.000204420315489446 -4.26854227999464e-05 -0.000838309393307123 -0.000327102927091596 0.0015049102498314 -3.68543726808061e-05 0.00212723626245819 -0.00201894769222245 0.000473399191114373 0.00116301788130476
"217" 0.000492171173048085 4.55587785182952e-05 -0.000161978684911613 0.000443963508206115 -0.000259404588009491 -0.000330210467806412 -0.00019439650246113 -5.41787242637407e-05 -0.000673788703781751 -0.000292214741258464 0.00147811729378617 -2.45772638910554e-05 0.0018508514240879 -0.00201190923148292 0.000452523515874426 0.00136287210738978
"218" 0.000476401230206581 4.00187513926352e-05 -0.000164124786457877 0.000431597520512736 -0.000259702541241712 -0.000333416285770153 -0.000186929974751531 -6.60316175498053e-05 -0.000500672173630783 -0.000244640799736532 0.00144419721860048 -9.60414063379222e-06 0.00156830553079308 -0.00199902910576355 0.000428668351209484 0.00155132585144945
"219" 0.000459624744467236 3.41818843635098e-05 -0.000167001377272542 0.000418368399341721 -0.000261156679653365 -0.000337721304041379 -0.000182001643601995 -7.81743561910499e-05 -0.000319635645464408 -0.000184343436638667 0.0014034220824515 8.06328181320067e-06 0.00128248371079154 -0.00198115395113877 0.000402045484197939 0.00172616953771983
"220" 0.000441958079617307 2.80703115078886e-05 -0.000170519178212334 0.000404383881108504 -0.000263703254755671 -0.000343065230005556 -0.000179557856763812 -9.05409301779044e-05 -0.000131444797541439 -0.000111380339626176 0.00135612186719412 2.84094491742378e-05 0.000996265368058831 -0.00195908643262803 0.000372911751158071 0.00188532107417061
"221" 0.000423524564568218 2.17170084123616e-05 -0.00017457475438687 0.000389759488368387 -0.000267275279672593 -0.000349380097030295 -0.000179523351306445 -0.000103056270219882 6.30648835828319e-05 -2.5892501064517e-05 0.00130266244134282 5.14146917797901e-05 0.000712487979524944 -0.00193357257125688 0.000341550975370541 0.00202685826031473
"222" 0.000404452075637336 1.51467359287867e-05 -0.000179069133462461 0.000374609925502189 -0.000271796828764369 -0.000356591155116095 -0.000181794733034359 -0.000115658224517884 0.000262987415826422 7.18867137903896e-05 0.00124345095033053 7.70477185154095e-05 0.000433937353248562 -0.00190527245240976 0.00030826171845815 0.00214906225065669
"223" 0.00038487272938504 8.39341681493894e-06 -0.00018390755227689 0.00035904976638899 -0.000277185249815019 -0.000364624235652083 -0.00018625583670334 -0.000128276682303013 0.000467351112292881 0.000181652650316017 0.00117894932017087 0.000105278991924693 0.000163315132581905 -0.00187475800822061 0.000273365893229541 0.0022504464330966
"224" 0.000364932298982274 1.48153538749367e-06 -0.000188985662496549 0.000343201196499128 -0.000283347042962112 -0.000373387917200794 -0.000192759510483623 -0.000140852266138227 0.000675117237861006 0.000303002400450885 0.00110966898365921 0.000136067539565391 -9.67855353047794e-05 -0.00184248676505022 0.00023718852086237 0.00232978888925141
"225" 0.000344760063380647 -5.5491943121397e-06 -0.000194205681693767 0.000327182890718277 -0.000290187869481886 -0.000382795320055714 -0.000201142564613595 -0.000153316044697607 0.000885179931105785 0.000435455733538556 0.00103618181107509 0.000169371138027022 -0.000343892008490404 -0.00180879022961348 0.000200079586447404 0.00238615426051921
"226" 0.000324505400457807 -1.26784391982896e-05 -0.000199483113264774 0.000311110956959754 -0.00029760687927309 -0.000392756779301554 -0.000211224906905317 -0.000165613415250789 0.00109637476910786 0.000578456557171745 0.000959110572925713 0.000205148040975109 -0.000575686415929309 -0.00177386302977953 0.000162369437240582 0.00241890918767766
"227" 0.000304306391978097 -1.98643143244088e-05 -0.000204724034936964 0.000295105162513385 -0.000305503017356989 -0.000403175380937511 -0.000222808441712093 -0.000177681960078307 0.00130747503998372 0.000731357892969201 0.000879135171928827 0.00024334698816224 -0.000790014353411446 -0.00173774210294462 0.000124393319238841 0.0024277301611272
"228" 0.000284301786036665 -2.70811815542648e-05 -0.000209853054074306 0.000279280572096563 -0.000313766077450879 -0.000413954901022074 -0.000235686949247266 -0.000189461919460498 0.00151719374770027 0.000893428078345152 0.000796997476865976 0.000283923506352002 -0.000984917711521584 -0.00170030987342844 8.64789536639467e-05 0.00241260097354331
"229" 0.000264630179270188 -3.42974264761223e-05 -0.00021480424209828 0.000263748396100426 -0.000322293782352574 -0.000424997996975873 -0.000249640832762269 -0.000200902664708685 0.00172418513597498 0.00106386449786012 0.000713477073813469 0.000326824198312452 -0.0011586481968202 -0.0016612651734931 4.89267190350904e-05 0.00237380315312761
"230" 0.000245424100276746 -4.14804422402569e-05 -0.000219507535113181 0.000248622218552101 -0.000330975037411351 -0.000436207707424624 -0.000264440954844833 -0.000211944571101063 0.00192705151965539 0.00124175815707233 0.000629415771809133 0.000371993839129481 -0.00130967958586901 -0.00162015556952372 1.20289079495137e-05 0.00231191836114267
"231" 0.000226814786239399 -4.86025868157464e-05 -0.000223913215576128 0.000234008159319337 -0.000339706565567328 -0.000447484690252892 -0.000279855675640844 -0.000222538380971937 0.00212434388070834 0.00142613589369408 0.000545689156147127 0.000419378791879342 -0.00143673429225742 -0.00157633995288583 -2.39481743299224e-05 0.002227773190901
"232" 0.000208925925280583 -5.56345198313985e-05 -0.000227981232400313 0.000220009197472999 -0.000348382915817103 -0.000458731195506151 -0.000295645393988578 -0.000232630506286328 0.00231457870164243 0.00161594214140798 0.000463205769728248 0.000468916787479463 -0.001538791600075 -0.00152902332441819 -5.87687773455744e-05 0.00212245123693426
"233" 0.000191878683120123 -6.25462425769904e-05 -0.00023167348126178 0.000206719229278913 -0.000356901606610781 -0.000469854548600885 -0.000311577153263989 -0.000242177167403461 0.00249624738026581 0.0018100355897049 0.000382897503541303 0.000520539412845366 -0.00161509495741396 -0.00147726520054919 -9.2217401036942e-05 0.0019972374458859
"234" 0.000175782386559438 -6.93122378792925e-05 -0.000234969546392601 0.000194234330236185 -0.000365162559766379 -0.000480760182332085 -0.000327410759402316 -0.000251129119814574 0.00266781386821017 0.00200721233834921 0.000305698122121282 0.000574176821754095 -0.00166518213846246 -0.00141996826244112 -0.000124110783808247 0.00185360806690519
"235" 0.000160745653353742 -7.59065975763138e-05 -0.000237852005791392 0.000182635339736689 -0.000373074115293871 -0.000491355477498112 -0.00034291237822375 -0.000259440884807448 0.00282776040910734 0.00220618450170996 0.000232532780791669 0.00062974475541599 -0.00168888204815322 -0.00135593265500043 -0.000154292931970672 0.001693187005486
"236" 0.000146863784768859 -8.2303599567688e-05 -0.000240308420759514 0.000172006266867829 -0.000380543598477512 -0.000501548977961877 -0.000357853086735382 -0.000267072290099928 0.00297458546067492 0.00240560574578817 0.000164299649265581 0.000687146942902649 -0.00168632292390694 -0.00128385971806984 -0.000182633038025943 0.00151773905482821
"237" 0.000134231781948392 -8.84827362488953e-05 -0.000242336233988757 0.000162416846060959 -0.000387483967644042 -0.000511255024342818 -0.000372010312467289 -0.000273986923732722 0.00310684980737434 0.00260408274893473 0.000101849068823916 0.000746277711995133 -0.00165794892687317 -0.00120237920493101 -0.000209017456592673 0.00132910667948694
"238" 0.000122935054202608 -9.44188514399248e-05 -0.000243937906582611 0.000153930346200302 -0.000393819568333618 -0.000520387512031731 -0.000385171723918374 -0.000280149795597194 0.00322318931128158 0.00280017251548935 4.59608260579022e-05 0.000807013937679365 -0.00160451496396573 -0.00111010251986152 -0.000233357873614713 0.00112924311208745
"239" 0.000113044548850004 -0.00010009485437882 -0.000245112223785903 0.000146602173114339 -0.00039947347699296 -0.000528860232168089 -0.000397131762278837 -0.000285525653177354 0.00332236093118559 0.00299241166661662 -2.66828491608974e-06 0.000869206778628889 -0.00152708462007409 -0.00100563622477484 -0.000255584985977701 0.000920154506499487
"240" 0.000104634923744641 -0.000105497922912932 -0.000245866670262674 0.000140477866349022 -0.000404378536576524 -0.000536598240452065 -0.000407697836546866 -0.000290095861707021 0.00340324398078233 0.00317932054205318 -4.34551160679521e-05 0.000932690870285627 -0.0014270400281998 -0.000887615931790935 -0.0002756323647507 0.000703900781498447
"241" 9.77680014837195e-05 -0.000110607885390745 -0.000246201473616913 0.000135597643043611 -0.000408476239938139 -0.000543515388007461 -0.000416689350876076 -0.000293831026849904 0.00346488435192357 0.00335941567841661 -7.59468747501435e-05 0.000997280057112488 -0.00130606121412343 -0.000754758138067063 -0.000293448325648924 0.000482596231880012
"242" 9.24928819947258e-05 -0.000115413578054751 -0.000246117564265545 0.000131988221302346 -0.000411707540454215 -0.000549536354744349 -0.000423939737104977 -0.000296716706114286 0.00350651931817929 0.00353124637187042 -9.98247081643395e-05 0.00106275168534915 -0.00116613176019133 -0.000605871589878902 -0.000308986741055473 0.000258389866843849
"243" 8.88681581499601e-05 -0.000119905505538592 -0.000245611383031028 0.000129668901432882 -0.000414028606091249 -0.000554588261738848 -0.000429297979060581 -0.000298743759992489 0.00352759569075074 0.00369340138407924 -0.000114936376759395 0.00112886560472599 -0.00100950164756245 -0.00043991093180327 -0.00032219682940103 3.34672456002581e-05
"244" 8.69240895618389e-05 -0.000124075303873236 -0.000244673393342291 0.000128645200238944 -0.000415397482873148 -0.000558598426206416 -0.00043262320978584 -0.000299901573299371 0.00352778833529154 0.00384453768404493 -0.000121294784309882 0.00119534475410607 -0.000838683281133315 -0.00025598691073764 -0.000333026478033754 -0.000189951659803835
"245" 8.66998397482197e-05 -0.000127915895664306 -0.000243292314523398 0.000128919937038464 -0.000415780528027671 -0.000561497415019062 -0.000433802211655657 -0.000300188540696285 0.00350701340199657 0.00398340313126921 -0.000119081828966044 0.00126189372470049 -0.00065642858513326 -5.33953443702908e-05 -0.000341434814353198 -0.000409624331023894
"246" 8.82205917149284e-05 -0.000131426989836317 -0.000241447118439448 0.000130478452583158 -0.000415149429450762 -0.000563217273959931 -0.000432725893351501 -0.000299607133015816 0.00346542577937303 0.00410886215166134 -0.000108641403309494 0.00132818266468958 -0.000465687048593437 0.000168363501645948 -0.000347363706158538 -0.000623296511201013
"247" 9.15013842188099e-05 -0.000134608084235662 -0.000239115364592497 0.000133301899250668 -0.000413484606791729 -0.000563695689710694 -0.000429316146890449 -0.00029817253631042 0.00340342478769199 0.00421990282191684 -9.04815090656776e-05 0.00139386514020892 -0.000269578292668905 0.000409564107351878 -0.000350757682204542 -0.000828700899090186
"248" 9.65564905980956e-05 -0.000137461808784282 -0.000236267419555788 0.000137359802202418 -0.000410774854343552 -0.000562872046253272 -0.000423506093665686 -0.000295891268297222 0.00332163960314502 0.00431566242917651 -6.52504910245043e-05 0.00145856880203257 -7.13575898946715e-05 0.000670252410689844 -0.000351547686035841 -0.00102357775717005
"249" 0.000103378110564513 -0.000139994508072878 -0.000232870940111441 0.000142612447089428 -0.00040701327863973 -0.000560691071540355 -0.000415252250915616 -0.000292783320771114 0.00322092829341358 0.00439544538066731 -3.373402097008e-05 0.00152190886993362 0.000125635605174298 0.000950256032622614 -0.000349663805425945 -0.00120570792452039
"250" 0.000111959801360599 -0.000142211092582576 -0.000228890453584521 0.000149014522599277 -0.000402201354052831 -0.000557106418357425 -0.000404526137012311 -0.000288871011323057 0.0031023357658095 0.00445872445471393 3.17523941441935e-06 0.00158348120121772 0.000318026165737515 0.00124916663274106 -0.000345022158364182 -0.00137291163399069
"251" 0.000122278119111183 -0.000144116676938147 -0.000224289453819219 0.000156511230189602 -0.000396345442017255 -0.000552070627265393 -0.000391328317499176 -0.000284178488600906 0.00296708652833762 0.00450515655200234 4.45001784344577e-05 0.00164288106560076 0.000502454526248467 0.00156634108875924 -0.000337537649192957 -0.00152308493426178
"252" 0.000134303638043605 -0.000145729919371822 -0.000219032466852788 0.00016503841195928 -0.00038946123549112 -0.000545551158278094 -0.000375675504444569 -0.000278734875765017 0.00281655876930035 0.0045345897346301 8.91895427368231e-05 0.00169969878694288 0.000675613524304483 0.00190093277964888 -0.000327124563340366 -0.00165422419919992
"253" 0.000147992316874186 -0.000147055933698669 -0.000213088989168041 0.000174532825812977 -0.000381566856575243 -0.000537516915276034 -0.00035760546707004 -0.000272565799238035 0.00265225509256682 0.00454704462342985 0.000136168912324322 0.00175352506371852 0.000834322643700763 0.00225188227210923 -0.000313686082905455 -0.0017644599553939
"254" 0.000163284546070375 -0.000148109888587286 -0.00020642303481013 0.000184919633207872 -0.000372686580438498 -0.000527943200100439 -0.000337176344853412 -0.000265703442255655 0.00247577303480912 0.00454272409886151 0.000184338997914549 0.00180396590601179 0.000975551615861062 0.00261793619949956 -0.000297125746779955 -0.00185207493982693
"255" 0.000180113417816982 -0.000148905836750162 -0.000199016698020406 0.000196121719432016 -0.000362855499410584 -0.000516821369037197 -0.000314473330578088 -0.000258183817811269 0.00228878397398866 0.00452197467014759 0.000232630328245176 0.00185063418615185 0.00109649481875023 0.00299763550631623 -0.000277348607987002 -0.00191553078423991
"256" 0.000198397896462282 -0.000149457733129222 -0.000190845261409229 0.000208057382091655 -0.00035211121090519 -0.000504146307115448 -0.000289591073697692 -0.000250037216835604 0.00209299553098758 0.00448531309144675 0.000280002484599375 0.00189316535256469 0.00119457388604638 0.00338937364125126 -0.000254266224995152 -0.00195351470546259
"257" 0.000218041209547435 -0.000149777875173662 -0.000181899176324361 0.000220644955350325 -0.000340492509708789 -0.000489929695689488 -0.000262655511391886 -0.000241294404301834 0.00189013279942631 0.00443337212019446 0.000325476253312275 0.00193122129287995 0.0012675212301736 0.00379136057877082 -0.00022779735741538 -0.00196494206487935
"258" 0.000238941815625428 -0.000149877836204966 -0.000172171867019797 0.000233797090089048 -0.000328047610408379 -0.000474182687518703 -0.000233804385683502 -0.00023198988762468 0.00168191751721323 0.00436690187364424 0.000368143902158708 0.00196449138853716 0.00131337462726493 0.00420165859309937 -0.000197865449239101 -0.0019489981849592
"259" 0.000260976206664504 -0.000149773268357626 -0.00016167075528657 0.000247428623029938 -0.000314825959804058 -0.00045693578525599 -0.000203191771609751 -0.000222159423812878 0.00147005871891757 0.00428674942871288 0.000407187710197038 0.0019926938337862 0.0013305265823147 0.00461818713281925 -0.000164413280770914 -0.00190515753709488
"260" 0.000284015780121921 -0.000149470645191212 -0.000150398907274459 0.000261449061729549 -0.000300878797944952 -0.000438227648392357 -0.000170993986104023 -0.000211827820171455 0.00125621143251101 0.00419382812535759 0.000441896141987973 0.00201558527710177 0.0013177371090839 0.00503872397636538 -0.000127395129801745 -0.00183320663855011
"261" 0.000307923068787538 -0.000148983261382293 -0.000138381197790006 0.000275773797889544 -0.000286263253917948 -0.000418105412109522 -0.000137400510507361 -0.000201032251759191 0.00104198087852454 0.0040891159085818 0.000471652440297289 0.00203295884140705 0.00127413575921466 0.00546091272754416 -8.67920604550067e-05 -0.00173325104857447
"262" 0.000332546644052452 -0.000148314467231042 -0.000125638936184132 0.000290316645828245 -0.000271040689280978 -0.000396628386341098 -0.00010260646385644 -0.000189800741158862 0.000828904652475677 0.00397362123709833 0.000495967398397237 0.00204465094698591 0.00119925302022003 0.00588228295979549 -4.25974075844825e-05 -0.0016057477255434
"263" 0.000357735362073809 -0.000147472135132447 -0.00011220846988131 0.000304990227109294 -0.000255267094421869 -0.000373867213528083 -6.68263140651312e-05 -0.000178162404216325 0.0006184564395668 0.00384837631623516 0.000514455228453433 0.00205052896780028 0.00109298283183373 0.00630023600511007 5.16556121068967e-06 -0.00145148830885474
"264" 0.000383317942205458 -0.000146456316101019 -9.81286436391614e-05 0.000319710901436401 -0.000239006792935173 -0.000349898228269767 -3.02813414895674e-05 -0.000166150244282113 0.000412020157712618 0.00371441530382344 0.000526856844424873 0.00205051098419653 0.000955615261245594 0.00671206497012058 5.64515411743125e-05 -0.00127164236312458
"265" 0.000409128038564643 -0.000145268013195479 -8.34366916823911e-05 0.000334396734589239 -0.000222320462721548 -0.000324811658353912 6.80188694593838e-06 -0.000153788767069806 0.000210891413688622 0.00357277563884938 0.000533013729034579 0.00204454792936827 0.00078779423092632 0.00711497022614923 0.00011118670444837 -0.00106774126308762
"266" 0.000434996522488745 -0.000143904943113777 -6.81882149622884e-05 0.000348969215310338 -0.000205271706528287 -0.0002987025344975 4.41889493313202e-05 -0.000141110595615166 1.6274445978365e-05 0.00342445987653041 0.000532884342211723 0.00203263869920467 0.000590533176144263 0.00750604639032969 0.000169276752428029 -0.000841666691662734
"267" 0.000460745168390871 -0.00014235927610745 -5.24275505971268e-05 0.000363352614313573 -0.000187919963386986 -0.000271673749229876 8.16505255199018e-05 -0.000128136633584538 -0.000170732381785255 0.00327046216999701 0.000526531831595848 0.00201481689523376 0.000365158525468771 0.00788234512438559 0.000230596693346532 -0.000595675487345435
"268" 0.000486199106444221 -0.000140628873036825 -3.62153474544044e-05 0.000377473255836436 -0.000170328224195765 -0.000243835999074308 0.000118945767867522 -0.000114904048868027 -0.00034912510228216 0.00311172036459042 0.000514114141918783 0.00199115896202034 0.000113332108564576 0.00824084523046851 0.000295005867917565 -0.000332364462434325
"269" 0.000511187940983892 -0.000138696612889102 -1.96034360564082e-05 0.000391258752499644 -0.000152554530941341 -0.000215307803441009 0.000155845965790049 -0.000101432399894827 -0.000518009513602017 0.00294913922994102 0.000495889166235572 0.0019617789044271 -0.000163010966776919 0.00857848514539875 0.000362333448953268 -5.46640702566055e-05
"270" 0.000535537126920434 -0.000136554278894263 -2.65262113236603e-06 0.000404645342907541 -0.000134658925140157 -0.000186205752778324 0.000192119970155715 -8.77539217467514e-05 -0.00067659616240281 0.00278358314143765 0.000472188243054052 0.00192681781256663 -0.000461665088655434 0.00889222254071288 0.000432394715063192 0.00023419099578289
"271" 0.000559080966190188 -0.000134182386729616 1.45856640974846e-05 0.000417568238703262 -0.000116695711289989 -0.000156661866918193 0.00022754747840729 -7.38963940425737e-05 -0.000824217882459266 0.00261585358190753 0.000443436701717179 0.00188646234125139 -0.000780192334894543 0.00917901160515115 0.000504986772498033 0.000530695274436957
"272" 0.00058166023230295 -0.000131570794771078 3.20450785042851e-05 0.000429967508376551 -9.8722335350877e-05 -0.000126796196924273 0.000261917667038581 -5.98815733576754e-05 -0.000960305675235404 0.00244671880138493 0.000410103996939972 0.00184092646537191 -0.00111595154981449 0.00943590952849083 0.000579897819087747 0.000831100126550799
"273" 0.000603116026765811 -0.000128697674181577 4.96717957281145e-05 0.000441787644753985 -8.07870906524893e-05 -9.67450799591573e-05 0.000295025136699471 -4.57444411504636e-05 -0.00108441305182065 0.00227687158187608 0.000372747175119298 0.00179045776444657 -0.00146610379204892 0.00966004560461836 0.000656907799631723 0.00113147991217383
"274" 0.000623311555318389 -0.000125547406233961 6.74083309062061e-05 0.000452974481202735 -6.29408502507037e-05 -6.6634319706594e-05 0.000326681690751984 -3.15077708563517e-05 -0.00119620973561253 0.00210697401144413 0.000331950293256084 0.00173532752280417 -0.0018276744150877 0.00984873039575102 0.000735786849309838 0.00142777535641688
"275" 0.000642108273726298 -0.000122105900879908 8.5194274675989e-05 0.000463480070608744 -4.52309255087586e-05 -3.66018822859969e-05 0.000356712275829965 -1.72037720425775e-05 -0.00129547721546358 0.00193763551184281 0.000288349207471212 0.00167584056607476 -0.00219756207338994 0.00999946977531761 0.00081630402909719 0.00171587471551252
"276" 0.000659381553148635 -0.000118351749572748 0.000102974302680476 0.000473258394030915 -2.77024471356692e-05 -6.77123919247266e-06 0.000384956418627482 -2.85849456056296e-06 -0.00138211655434438 0.00176940566961724 0.000242616362036341 0.00161231909291255 -0.00257256565477652 0.0101100252818333 0.000898227011216327 0.0019916624541734
"277" 0.000675019724979734 -0.00011427105361088 0.000120691480189618 0.000482270125761367 -1.03942695053631e-05 2.27263125330444e-05 0.000411270637181274 1.14967085252895e-05 -0.00145613542520409 0.00160278403280156 0.000195447768609022 0.00154511492571619 -0.00294943568371508 0.0101784594600242 0.000981340052995079 0.00225113290183209
"278" 0.000688926820818647 -0.000109851805058498 0.000138290238907277 0.00049047649934844 6.65243838403679e-06 5.17661864395359e-05 0.000435532771536825 2.58336957868287e-05 -0.00151766299141473 0.00143823191702485 0.000147560722452271 0.00147459301652411 -0.00332488317874277 0.0102031960950486 0.00106541133318145 0.00249044281904704
"279" 0.000701017759878386 -0.000105080152713404 0.000155714582976902 0.000497842501977573 2.34025117095189e-05 8.02277949919579e-05 0.000457637388903934 4.01237010556425e-05 -0.00156693727189356 0.0012761594459251 9.96921057549834e-05 0.0014011404885758 -0.00369563704880267 0.0101830558280474 0.0011502238689229 0.0027060178722289
"280" 0.000711223683643214 -9.99498977445035e-05 0.000172906631389209 0.000504339171375053 3.98192597221316e-05 0.000107990075131577 0.000477496143049848 5.43337547326873e-05 -0.0016043099126527 0.00111693720746611 5.25707049153303e-05 0.00132515365924969 -0.00405844700972565 0.0101172798495949 0.00123557154806536 0.00289462700117547
"281" 0.000719488404091974 -9.4457737452788e-05 0.000189809052162556 0.000509941382799175 5.5874445146168e-05 0.000134943509607441 0.000495047435979494 6.84370152096011e-05 -0.00163023697482906 0.000960905299403898 6.92913239692863e-06 0.0012470476089024 -0.0044101485544359 0.0100056040364888 0.00132121889633071 0.00305344488885809
"282" 0.00072577489493031 -8.86008416860095e-05 0.000206368009449783 0.000514625477225765 7.15359335508985e-05 0.000160979370744692 0.000510243767642962 8.24001144822812e-05 -0.00164527579689958 0.00080835324993906 -3.65133718423784e-05 0.00116724446494568 -0.00474766981253414 0.00984822896448093 0.00140695664507899 0.00318014054571731
"283" 0.000730055775028437 -8.23845764348678e-05 0.000222522632981224 0.000518376403818014 8.67779091475201e-05 0.000185999490991626 0.000523065802252542 9.61955052046461e-05 -0.00165007855839886 0.000659542645576095 -7.7049698405731e-05 0.00108617266369529 -0.00506808677514669 0.00964587409195944 0.00149254543009034 0.003272902956241
"284" 0.000732325332926878 -7.58158970074417e-05 0.000238215469470583 0.000521177816270165 0.000101573182041269 0.000209906888126538 0.000533503842855635 0.00010978945065886 -0.0016453829128843 0.000514697219433193 -0.00011401760471409 0.00100426390760205 -0.00536866126307945 0.00939975198560345 0.00157773830547608 0.00333050172487095
"285" 0.00073258953535151 -6.89088453337863e-05 0.000253392169711601 0.000523021315918581 0.000115900934853261 0.000232617527577935 0.00054157576929361 0.00012315392042478 -0.00163200820236032 0.00037400721579085 -0.000146775894570596 0.000921954034546762 -0.00564686507944603 0.00911155907844092 0.00166226074612575 0.00335229244262267
"286" 0.000730871562929904 -6.16842169345819e-05 0.000267988349150978 0.000523903015334099 0.000129732995290102 0.000254049384319731 0.000547317402737463 0.000136258024083971 -0.00161084674340871 0.000237636491235805 -0.000174732230023069 0.000839678050338049 -0.00590042253596649 0.00878346932326341 0.00174581430643881 0.00333821789135809
"287" 0.000727209474649979 -5.41630223414945e-05 0.000281945837577858 0.000523821991971257 0.000143054480486933 0.00027413084213578 0.000550784541204376 0.000149073381899011 -0.00158284834138573 0.000105716000620018 -0.000197339783970952 0.000757857513120223 -0.00612732264579811 0.00841807354746776 0.00182807100883251 0.00328880431891266
"288" 0.000721650599126251 -4.63765488172251e-05 0.000295211388238176 0.000522785185618971 0.000155844534035673 0.000292800846109141 0.000552045947302506 0.00016156561523581 -0.00154901511214049 -2.16456218615055e-05 -0.000214113253140303 0.000676915934993091 -0.0063258680161557 0.00801835620888266 0.00190866190796057 0.00320510040774581
"289" 0.000714266227432317 -3.83467966604784e-05 0.000307723621202086 0.000520797491516196 0.000168081650542873 0.000309999121554236 0.000551191259140921 0.000173711101938833 -0.00151037669685053 -0.000144378057448613 -0.000224619849387738 0.000597254739687985 -0.00649466832346464 0.00758763336499509 0.00198719368956169 0.0030886522513136
"290" 0.000705129126427012 -3.01214816062738e-05 0.000319426217989003 0.00051787935738526 0.000179752930429367 0.000325682335039496 0.000548318104077704 0.000185476603063394 -0.00146797714618671 -0.000262422641498516 -0.000228536530721135 0.000519268151706792 -0.00663269121699015 0.00712950676968053 0.00206322536520344 0.00294144637572257
"291" 0.000694329932854617 -2.17311628761056e-05 0.000330271834369149 0.000514044988274437 0.000190841423241546 0.000339811976405597 0.000543548260272588 0.00019684105378245 -0.0014228875834112 -0.000375760211870903 -0.000225590814227534 0.000443325461280787 -0.0067392490076592 0.00664778618962189 0.00213628653420276 0.0027658185165115
"292" 0.000681974901910439 -1.3219056797263e-05 0.000340211757645116 0.000509323001830848 0.000201334868802032 0.000352359873403193 0.00053701043842 0.00020777397670424 -0.00137615265950789 -0.000484402471856011 -0.000215626586297564 0.000369774024632876 -0.00681399831978678 0.00614643188326825 0.00220587239177855 0.00256440996876847
"293" 0.00066817380158997 -4.63271572860207e-06 0.000349194974983764 0.000503740739154401 0.000211217427671688 0.000363302356659774 0.000528840838815929 0.000218253168635992 -0.00132880410579797 -0.000588383646978191 -0.000198575707959266 0.000298938837154331 -0.0068569464802403 0.00562949120565374 0.00227146447230856 0.00234009232805185
"294" 0.000653044976063759 3.99044114087361e-06 0.000357190213116905 0.000497329985316634 0.000220478616261579 0.00037263135552427 0.000519188616315033 0.000228253933144635 -0.00128182701716665 -0.000687778998275854 -0.000174482312778931 0.000231112620665939 -0.00686843345307649 0.00510103520071234 0.00233252754343595 0.00209589608805699
"295" 0.000636721871601116 1.25975934515387e-05 0.000364165329298477 0.000490133008446258 0.000229108719760489 0.000380341507657534 0.000508211133422305 0.00023775637946437 -0.0012361619511948 -0.000782683853915428 -0.000143508703059285 0.000166553395709478 -0.00684912574075136 0.00456511211986669 0.00238851816586229 0.00183495486570712
"296" 0.000619338324508451 2.11482206382249e-05 0.000370098008822553 0.000482188688232739 0.000237100112926798 0.000386439846531764 0.00049607332634523 0.000246741303781106 -0.00119267587508869 -0.000873220867478663 -0.000105927473866554 0.000105491738823306 -0.00679996973678579 0.0040256677002857 0.0024389110746878 0.00156045067474433
"297" 0.000601039940433232 2.95939388250216e-05 0.000374970028886606 0.000473546006908021 0.000244446699919763 0.000390942144708296 0.000482936818200181 0.000255188793040892 -0.00115216372042213 -0.000959551251827239 -6.21394754273106e-05 4.81126723629554e-05 -0.00672219503753954 0.00348651522360905 0.002483201656119 0.00127556653409278
"298" 0.000581973625228257 3.78951125829756e-05 0.000378776471161579 0.000464255173339528 0.000251141335257565 0.00039387064917109 0.000468971398749803 0.000263083369675616 -0.00111532244216226 -0.00104185044011675 -1.26669501756464e-05 -5.42992558325661e-06 -0.00661727355713838 0.00295128929478728 0.00252091813328848 0.000983450775704774
"299" 0.000562288230542997 4.60077727482928e-05 0.000381520832093119 0.000454370809937149 0.000257180521785276 0.000395262155273319 0.000454350054580953 0.000270417489088029 -0.00108276031665913 -0.00112032831447369 4.18484037223111e-05 -5.50288346622202e-05 -0.00648689223151108 0.00242339788782368 0.00255164264515185 0.000687181701021972
"300" 0.000542138128236209 5.3894559738736e-05 0.000383220218811511 0.00044394879710246 0.00026256339768102 0.000395153041027853 0.000439237624431277 0.000277172500893477 -0.00105498310518518 -0.00119519810686887 0.000100638931105227 -0.000100615064100916 -0.00633290826221436 0.00190600615406919 0.00257501645458544 0.000389746036457848
"301" 0.000521677858277276 6.15174752985298e-05 0.00038389984554012 0.000433047031931414 0.000267290435233252 0.000393594350471218 0.000423804808279542 0.00028334693859038 -0.0010323847970083 -0.00126668856240448 0.000162821361743407 -0.000142160699387848 -0.00615734606077788 0.00140200882352731 0.00259073424814853 9.40191234999329e-05
"302" 0.000501053845926295 6.88455125734456e-05 0.000383589398192574 0.000421728419709939 0.000271363486405677 0.000390639929091026 0.000408211643785117 0.000288929461897586 -0.00101526857211846 -0.00133504939893794 0.000227428256369818 -0.000179673566576933 -0.00596232191919539 0.000913997515518871 0.0025985889534737 -0.000197238128495073
"303" 0.000480424842318067 7.58480855146423e-05 0.000382335726727251 0.000410054991176972 0.000274790187644972 0.000386353099059859 0.000392615666703911 0.000293921777130249 -0.00100382648661117 -0.00140051352267349 0.000293366343564798 -0.000213204632729927 -0.00575004717526738 0.000444283340251317 0.00259842715138911 -0.000481411124258639
"304" 0.000459927525886137 8.2498969919968e-05 0.000380191968405647 0.000398089931105765 0.000277570739267862 0.000380805631815515 0.00037717002262379 0.000298324296193107 -0.000998161403263398 -0.00146333227365854 0.000359480292687514 -0.000242846313382969 -0.00552278197286581 -5.14994752368995e-06 0.00259018460572412 -0.000756013256623173
"305" 0.00043970893502405 8.87756404042878e-05 0.000377216354710905 0.000385894652753252 0.000279713672500383 0.000374070195496627 0.000362012966313474 0.000302138885314438 -0.000998284203551012 -0.00152373136250008 0.000424541533356482 -0.000268712120522875 -0.00528282541991808 -0.000432610609097913 0.00257387340259029 -0.0010187036767869
"306" 0.000419903437802403 9.46601142831846e-05 0.000373480885502962 0.00037353358212776 0.00028123326979532 0.000366233469245658 0.000347281609972417 0.000305373943278919 -0.00100412630802437 -0.00158193834443973 0.000487278676971257 -0.000290964294984603 -0.00503245412077124 -0.000836731879845229 0.00254958566992374 -0.00126728878416712
"307" 0.000400636653918803 0.00010014020519434 0.000369057326572469 0.000361070381210583 0.000282137137334729 0.000357374633213401 0.000333097732501604 0.000308037067719726 -0.00101554540020948 -0.00163815189510652 0.00054638889176972 -0.000309783973762023 -0.00477393573846359 -0.00121642956789587 0.00251747631373217 -0.00149972095052241
"308" 0.000382023737670889 0.000105198352396434 0.000364020934500899 0.000348562860150743 0.000282438756150868 0.000347587102112824 0.000319569789861581 0.000310138299417271 -0.00103234238058409 -0.00169255190742317 0.000600554472818829 -0.000325375762569369 -0.00450949221071925 -0.00157091658847657 0.00247777092732273 -0.0017140996956958
"309" 0.000364172967564431 0.000109832830184514 0.000358458804586557 0.000336072101508471 0.000282153788271125 0.000336965643704622 0.000306798932052219 0.000311701970870133 -0.00105426991831204 -0.00174529456023826 0.000648488679419545 -0.00033797128072617 -0.0042412581879655 -0.00189967686020912 0.00243075621387675 -0.00190869231822373
"310" 0.000347179335965345 0.000114035437762816 0.000352450012863613 0.000323653711064795 0.000281296611519023 0.000325603210542009 0.000294872357026316 0.000312740285064745 -0.00108103241976056 -0.00179649477591307 0.000688933117428705 -0.000347820089282562 -0.00397130189618081 -0.00220246488740735 0.00237676803599521 -0.00208190799105191
"311" 0.000331132585586733 0.000117808211314223 0.000346083392828368 0.000311363839557313 0.000279887920644083 0.000313601620497849 0.000283861060420817 0.000313281013040868 -0.0011122962308991 -0.00184624218197129 0.000720687481570643 -0.000355184193915667 -0.00370158536086773 -0.00247927975561454 0.00231618401911932 -0.00223232614715432
"312" 0.000316094204522046 0.000121151185121393 0.000339434214049217 0.000299251262999802 0.000277946061109863 0.000301054552808756 0.000273823595555705 0.000313346031298023 -0.00114769408543774 -0.00189458616442275 0.000742634970319962 -0.000360333170696855 -0.00343394934218106 -0.00273035641377699 0.00224941951130096 -0.00235868118424486
"313" 0.000302127821372607 0.000124069670728274 0.000332589448939979 0.000287366214003616 0.000275490247644769 0.000288067445396855 0.000264809504051681 0.000312968436760573 -0.00118682350751216 -0.00194154199335181 0.000753749373154796 -0.0003635462128867 -0.00317010875069402 -0.00295613939674427 0.00217691722726246 -0.00245988299082269
"314" 0.000289274437521569 0.000126577350872273 0.00032563165552142 0.000275753938701898 0.0002725445058582 0.000274738457654844 0.000256845458134608 0.000312176072915994 -0.0012292470781393 -0.00198709744398411 0.000753140511446525 -0.00036510096743814 -0.00291164105752484 -0.00315728090567107 0.00209914147413171 -0.00253500767668648
"315" 0.0002775647959071 0.000128684377079573 0.000318632416547749 0.00026445443082061 0.000269133443022237 0.000261165418558398 0.000249953147631589 0.000311007225575377 -0.00127449677761007 -0.00203119916160656 0.000740034513505159 -0.000365275697529742 -0.00265999144993684 -0.00333461530847477 0.00201655256159031 -0.00258330889797585
"316" 0.000267019051834355 0.000130406894749788 0.000311665496099411 0.000253506920949304 0.000265279670620945 0.000247449957579255 0.000244133261510777 0.000309497819307721 -0.00132207233895577 -0.00207376558521627 0.000713827348455877 -0.000364343301653013 -0.00241645013051278 -0.00348914777845136 0.0019296198835283 -0.00260422383160451
"317" 0.000257632386349579 0.000131762342211811 0.000304796601524799 0.000242945952223938 0.000261013432247847 0.0002336851552632 0.000239382640433985 0.000307686193369308 -0.00137143717022513 -0.00211468397304943 0.000674065062146327 -0.000362568611582499 -0.00218215946155119 -0.00362202018694519 0.00183880817871197 -0.00259737089176817
"318" 0.000249400010793427 0.000132773888704812 0.000298088413684384 0.000232802552882341 0.000256361258773878 0.000219965991788088 0.000235678492227775 0.000305614829962132 -0.00142202331961427 -0.00215380717094181 0.000620476315196576 -0.000360202406277092 -0.00195812314707413 -0.00373450886668081 0.00174456347493168 -0.00256257193628193
"319" 0.000242296968611658 0.000133465641046877 0.000291599428405663 0.000223104481927389 0.000251351513610097 0.000206384589683081 0.000232991762764168 0.000303327917754054 -0.00147322037615515 -0.00219096753389977 0.00055297751959394 -0.000357492120254874 -0.00174519314740577 -0.00382801562847527 0.00164730854749793 -0.00249983177587462
"320" 0.00023628429410891 0.000133869522488809 0.000285383872317495 0.000213874872389858 0.000246018260535839 0.00019302830187677 0.000231277123969724 0.000300868062287654 -0.00152439117690604 -0.0022259742384244 0.000471676313446468 -0.000354656902257065 -0.00154406474156593 -0.00390403675484999 0.00154743858217491 -0.00240936756353023
"321" 0.000231317207752251 0.00013401459061476 0.000279485987434728 0.000205134188736571 0.000240396524244055 0.000179981238766928 0.000230487774754285 0.00029828407861391 -0.00157487059280943 -0.00225861160520998 0.000376846280138943 -0.00035190428346494 -0.00135531203109856 -0.0039641501402206 0.00144531027456167 -0.00229159195402318
"322" 0.000227337351248976 0.00013393603303614 0.000273948690143233 0.000196901741639481 0.00023451478554558 0.000167326076089634 0.000230559449411681 0.000295619432351437 -0.00162396214915377 -0.00228864870285365 0.000268967822488519 -0.000349424084324643 -0.00117935645978503 -0.00401001292532274 0.001341250753133 -0.00214712305358876
"323" 0.000224278091463826 0.000133671092122945 0.000268807548232357 0.000189191088974899 0.000228412936764998 0.000155135960047243 0.000231427548405176 0.000292919363816317 -0.00167094931662251 -0.00231582423310152 0.000148714449527728 -0.000347375564257912 -0.00101649548936982 -0.00404330622090268 0.00123553338124789 -0.00197680451436189
"324" 0.000222058395633468 0.000133259608378236 0.000264096295568473 0.000182014155209539 0.000222127740498004 0.000143484237282673 0.000233017726038578 0.000290235549669408 -0.00171511329814581 -0.00233987173358763 1.69174175116969e-05 -0.000345904946666026 -0.000866890901386481 -0.00406576448753566 0.00112840484203998 -0.00178167282063681
"325" 0.000220598150709271 0.000132745552694022 0.000259840639329241 0.00017537828557483 0.000215698149009795 0.000132439692581688 0.000235252644631456 0.0002876095367135 -0.00175572232495054 -0.00236050027547564 -0.000125412725994824 -0.0003451258294568 -0.000730599496431523 -0.00407912128859425 0.00102005283086844 -0.00156298099876387
"326" 0.000219802892606087 0.000132176442441455 0.00025606170831892 0.000169289876235564 0.00020916275940555 0.000122061953635589 0.000238047036069833 0.000285085781193676 -0.00179205695692082 -0.00237741277190675 -0.000277085767451124 -0.000345137558768181 -0.000607542224000091 -0.00408512102565056 0.000910626248820743 -0.00132219690677137
"327" 0.000219579840663225 0.00013159154690939 0.000252779661169715 0.00016375178221052 0.00020256451321215 0.000112408821013678 0.000241318354173306 0.000282711892092003 -0.00182342348199453 -0.0023902824214367 -0.00043678938948093 -0.000346009279799698 -0.000497553275056826 -0.00408546441881893 0.000800222844138776 -0.00106099012653681
"328" 0.000219829035982977 0.000131046228598712 0.000250008721726159 0.000158763123993547 0.000195941232760694 0.000103531155189856 0.000244977557373471 0.000280523675854208 -0.00184915087118135 -0.00239877859422483 -0.000603048106275432 -0.000347781477816634 -0.00040036095261822 -0.00408183228322077 0.000688900976424832 -0.000781234149487374
"329" 0.000220441956034237 0.000130584947546247 0.000247753443380855 0.000154323611663607 0.00018933618901247 9.54740717442534e-05 0.000248936837318405 0.000278563956982131 -0.00186861757006139 -0.00240254348036978 -0.000774290089632114 -0.000350472752233392 -0.000315594052656458 -0.00407584232046018 0.000576677980490498 -0.000484992652965435
"330" 0.000221319266899068 0.00013025470290143 0.000246015580263984 0.000150427269673245 0.000182791824196931 8.82758851639832e-05 0.000253108290048932 0.000276866450353812 -0.00188124748814174 -0.00240119903258948 -0.000948837115720217 -0.000354079220513654 -0.000242815569437251 -0.00406901453339712 0.000463524639055459 -0.00017452121618147
"331" 0.000222350414798946 0.000130108337011506 0.000244801568567552 0.000147065337331181 0.000176348388824378 8.19727733938782e-05 0.000257406801886818 0.000275467572255399 -0.00188654233014728 -0.00239436887444957 -0.00112491478934422 -0.000358566107280555 -0.000181487883603812 -0.00406279968509329 0.000349406638946037 0.000147763963459063
"332" 0.000223427847399227 0.000130185932277496 0.000244097243876181 0.000144225558514779 0.000170049958100315 7.65892057091153e-05 0.000261748662518653 0.000274392806131303 -0.00188407631730231 -0.00238164482246302 -0.00130070237465821 -0.000363878388243145 -0.000131021798955058 -0.00405851862337025 0.000234237437291319 0.000479287855388324
"333" 0.000224451109588644 0.000130539166838621 0.00024389642071662 0.000141900777423672 0.000163933998696522 7.21490929790801e-05 0.000266050254779268 0.000273670141868057 -0.00187351735915581 -0.00236260727905653 -0.00147432742990337 -0.000369938999959763 -9.07605287200973e-05 -0.00405736955233145 0.000117925649507609 0.000817338706107916
"334" 0.000225315138161765 0.000131204971815025 0.000244181796528606 0.000140070178808784 0.00015804335867677 6.86667424594123e-05 0.000270241293900001 0.000273325409031243 -0.001854624963444 -0.00233680178522766 -0.00164390686987082 -0.000376646092859769 -5.9989383427625e-05 -0.00406039635244127 3.60976551990509e-07 0.00115910062758718
"335" 0.000225922145572925 0.000132226549896694 0.000244934121395012 0.000138718148699618 0.000152414713399549 6.61516054883457e-05 0.000274242678998736 0.000273373352333805 -0.00182725372258509 -0.00230378047300391 -0.00180754401151318 -0.000383883045285107 -3.79357505439415e-05 -0.00406850030356525 -0.000118558423240595 0.00150166574340203
"336" 0.00022617598712256 0.000133639245425952 0.0002461289013634 0.000137825509226773 0.000147086507597373 6.46082244230717e-05 0.000277995422559785 0.000273832480220497 -0.00179137727817886 -0.00226305113164348 -0.00196338538836522 -0.000391509799335964 -2.37950078763957e-05 -0.00408238570366543 -0.000238931679119411 0.00184206607075927
"337" 0.000225984480392804 0.000135470967062795 0.000247728344852085 0.00013736707486547 0.000142091544050406 6.40333212389902e-05 0.000281438568558889 0.000274709676789745 -0.00174707449047314 -0.00221411121568872 -0.00210961940629384 -0.000399370735643054 -1.67163728914627e-05 -0.00410257792084757 -0.000360828857806739 0.0021773117287444
"338" 0.000225267428218309 0.000137752796977047 0.000249703467292693 0.000137320932311174 0.000137461213551341 6.44195215532859e-05 0.000284517238510881 0.000276015635537371 -0.00169454142811805 -0.00215645989496737 -0.00224450317582734 -0.000407299885322662 -1.58165258632589e-05 -0.00412943306443974 -0.000484292170832833 0.00250442176149752
"339" 0.000223941502964844 0.000140498945151661 0.0002520060358664 0.000137657747485883 0.000133228880648179 6.57488190718796e-05 0.000287186339969835 0.000277751974112856 -0.00163408323224347 -0.00208956323061292 -0.00236639560458563 -0.000415121002953457 -2.01987316740692e-05 -0.00416309041672371 -0.000609318950766575 0.00282046331598828
"340" 0.000221941715755958 0.000143732431840471 0.000254592371118725 0.000138349240520326 0.000129419955380072 6.80060406071038e-05 0.000289412825982616 0.000279916335386181 -0.00156612164577303 -0.00201290129610718 -0.002473763663042 -0.000422640931265743 -2.89323409537212e-05 -0.00420350529386291 -0.000735848292967146 0.00312257663227895
"341" 0.000219197263271484 0.000147459309719827 0.000257409803809042 0.00013936477718946 0.00012605881119638 7.11640725718625e-05 0.000291159607346468 0.000282508031979474 -0.00149117210330099 -0.00192593016905855 -0.00256521089597565 -0.000429662935978668 -4.10954296815646e-05 -0.0042504236908644 -0.000863757124217323 0.00340802684237784
"342" 0.000215657910820735 0.000151680356979046 0.000260400555098298 0.000140672174418494 0.000123166229292807 7.51928241548954e-05 0.000292412616919566 0.000285519183996364 -0.00140986412912188 -0.00182814344398288 -0.00263949624326541 -0.000435995049141803 -5.57415280649263e-05 -0.00430341436206683 -0.000992833773052858 0.00367423392827561
"343" 0.000211273582067339 0.000156393200903654 0.000263509627976199 0.000142237300977105 0.000120758061986167 8.00573154612085e-05 0.000293154041102996 0.000288937908870431 -0.00132292107718255 -0.00171904202653116 -0.00269554051695489 -0.000441432746244686 -7.19332640813493e-05 -0.00436184795098662 -0.00112278972599083 0.00391880771716984
"344" 0.000206006797155325 0.000161589980637702 0.000266661039299433 0.000144025889123664 0.000118850624873123 8.57174911837348e-05 0.000293377900611972 0.000292752261409822 -0.00123114434427024 -0.00159816768433317 -0.00273244483197103 -0.000445780185084757 -8.87484294651227e-05 -0.00442492262377373 -0.00125324072814487 0.00413957983592659
"345" 0.000199828842707309 0.000167250291409659 0.00026979723212586 0.000145998364548085 0.000117454273321044 9.21273924923177e-05 0.000293088056269451 0.000296943814568793 -0.00113542046416817 -0.00146512082309819 -0.0027495021524065 -0.0004488491576 -0.000105274423993358 -0.00449168686630307 -0.00138369582398747 0.00433462899800448
"346" 0.000192718004660646 0.000173353627165511 0.000272840451136951 0.00014812198448676 0.000116571371785644 9.92385144931107e-05 0.000292296334250655 0.000301497430527423 -0.00103667405914599 -0.00131956451540002 -0.00274620079293862 -0.00045045797490484 -0.0001206296719822 -0.00456102533936659 -0.00151357700217537 0.00450231996629165
"347" 0.000184662711555113 0.000179871684246498 0.000275720325876027 0.000150355260891226 0.000116209207099229 0.000106999709735369 0.000291020489632661 0.000306387688616919 -0.000935881310692231 -0.00116126542745192 -0.00272222710110791 -0.000450440259500345 -0.000133966878349962 -0.0046317244341585 -0.00164219449194377 0.00464130986175628
"348" 0.00017566151713745 0.000186760683378267 0.000278361394796381 0.000152660596462827 0.000116360858262909 0.000115353584428651 0.000289281459644498 0.000311594307027254 -0.000834028622490564 -0.00099011927310364 -0.00267747512528675 -0.000448642479667982 -0.00014448162677676 -0.00470246232769115 -0.00176877255062444 0.00475057130892643
