"V1" "V2" "V4" "V5" "V7" "V8" "V10" "V11" "V13" "V14" "V15" "V17" "V18" "V20" "V21" "V23"
"1" 0.000759316565834522 0.000417106163183499 -0.000376149459299375 -0.000119660858962751 -0.000324937006987255 -4.78129698843706e-05 -3.83070391123579e-05 -0.000465145775569854 7.29470633217596e-05 3.76522768831775e-05 9.18140654053691e-05 -0.000306757002824555 3.83099951720595e-05 0.000861502119803051 0.000159889744531691 -8.30301435561697e-05
"2" 0.000783244624795896 0.000475043045705743 -0.000397683369900521 -8.65224587916207e-05 -0.000290007528663691 -2.1929745280973e-05 3.18573555395069e-07 -0.000429315586105474 9.51554320012606e-05 3.40128713509979e-05 0.000106658244927393 -0.00030261475937455 4.55899078056515e-05 0.000882575545370101 0.000187629920379736 -7.01439785863965e-05
"3" 0.000810146920482727 0.000533324519223282 -0.000418621923775913 -5.08152399791685e-05 -0.000255451069994769 4.11766020729807e-06 3.91912497428927e-05 -0.000392898536670668 0.000118308964880969 3.15013666777328e-05 0.000121287300329191 -0.000296707629342459 5.31086601654484e-05 0.000903471234911499 0.000215864874230461 -5.60297251659541e-05
"4" 0.000839729404167959 0.000591437838630077 -0.000438721188871988 -1.28942045135073e-05 -0.000221452177665253 3.01356994934917e-05 7.80672252539973e-05 -0.000356136160538038 0.000142197034775309 3.00346416514314e-05 0.000135615983290759 -0.000289189478058644 6.07595741096226e-05 0.00092407263427673 0.000244425971591515 -4.0830150475778e-05
"5" 0.000871651610296311 0.000648825085702894 -0.000457753527595302 2.68568679441247e-05 -0.000188186560972958 5.59308918881398e-05 0.000116702153132013 -0.000319279853045905 0.000166605503632925 2.95220670385039e-05 0.000149564491709228 -0.00028023126555259 6.84349961467608e-05 0.000944268097035618 0.000273137500942792 -2.47011526352267e-05
"6" 0.000905534065272485 0.000704908101858235 -0.000475479971285668 6.80270516447863e-05 -0.000155828336634839 8.13076702216731e-05 0.0001548477161439 -0.000282576063743212 0.000191305246467944 2.9865695528291e-05 0.000163062372695469 -0.000270006777319496 7.60329499800983e-05 0.000963942004510547 0.000301821305178123 -7.80717426395225e-06
"7" 0.000940952465115465 0.000759075895595777 -0.000491679161305522 0.000110189096037526 -0.000124548207218494 0.000106068782293583 0.000192252505320819 -0.000246275888090402 0.000216074541397104 3.09591242571916e-05 0.000176036198694489 -0.000258700375315386 8.34475114301889e-05 0.000982970555094493 0.000330304046854472 9.68502942523785e-06
"8" 0.000977451429367007 0.000810705426326219 -0.000506126719602154 0.000152896591595327 -9.45088805893923e-05 0.000130024160661046 0.000228664329070473 -0.000210627455856355 0.000240681357487881 3.26870705425429e-05 0.000188424766047763 -0.000246496602451061 9.05835434837865e-05 0.00100122734695126 0.000358409604703186 2.76000123666281e-05
"9" 0.00101454625865831 0.000859157872238706 -0.000518617966491642 0.000195685214638417 -6.5873008369196e-05 0.000152984090242342 0.000263837376248177 -0.000175866502643617 0.000264900692072484 3.49306775871813e-05 0.000200164099385448 -0.000233592152232001 9.73402249176499e-05 0.00101858779285699 0.00038596250531628 4.57635876695636e-05
"10" 0.00105172478292052 0.00090379640678221 -0.000528948146681198 0.000238086469612387 -3.87868824389124e-05 0.000174764959356982 0.000297528711953611 -0.00014222996572073 0.000288510478274184 3.75636128672946e-05 0.000211202612933576 -0.000220175937021573 0.000103631475339077 0.00103491556326692 0.000412803926429595 6.39944729988487e-05
"11" 0.00108845892229399 0.000943982155292808 -0.000536943585401087 0.000279621065264744 -1.33931813620847e-05 0.000195188758302227 0.000329498959611835 -0.000109938412727037 0.000311287444356612 4.04542583808773e-05 0.000221489855387084 -0.000206446327058902 0.000109368084782571 0.00105008051252511 0.000438769634353488 8.21145602214402e-05
"12" 0.0011242027710931 0.000979096822144574 -0.000542428249065075 0.000319814507147252 1.01804623409566e-05 0.00021409029933074 0.000359522526993223 -7.92009120379167e-05 0.000333025230143407 4.34722361698563e-05 0.000230982515347038 -0.00019259143399219 0.000114471854727544 0.00106394507922101 0.0004637151454719 9.9952312242245e-05
"13" 0.00115841003719374 0.00100853481870767 -0.000545262612697152 0.000358193132323136 3.18147311894689e-05 0.000231308530532336 0.000387382277353338 -5.02131564866305e-05 0.000353523077309078 4.64801233636954e-05 0.00023964626958436 -0.000178805637191995 0.000118871909092753 0.00107637567262204 0.000487492593468429 0.000117330976516083
"14" 0.00119053411406385 0.00103173320153105 -0.000545316545888648 0.000394293209947991 5.14028037032382e-05 0.000246698924757633 0.000412873953661887 -2.31482257505746e-05 0.000372592178589649 4.93426683085758e-05 0.000247452285360716 -0.000165265070172691 0.000122504169465113 0.00108723549234197 0.000509980270797256 0.000134086536799419
"15" 0.00122002588840083 0.00104816083701721 -0.000542480249347112 0.000427666473816929 6.88541954626378e-05 0.000260126006495295 0.000435804534492976 1.83348287103591e-06 0.000390057782588276 5.19275158673857e-05 0.000254372084228489 -0.000152156003751496 0.000125307436471527 0.00109638636222887 0.000531060037064699 0.000150059476785777
"16" 0.00124636169306894 0.0010573386304226 -0.000536676547071973 0.00045788561714317 8.40935516191872e-05 0.000271469535676107 0.000456001378336719 2.4600942183724e-05 0.000405766842470618 5.41032048458903e-05 0.000260390926649127 -0.000139637461931047 0.000127237532790681 0.00110370221806795 0.000550632233865573 0.000165102123308264
"17" 0.00126903549245547 0.00105884442141476 -0.000527845992769627 0.000484547142145058 9.70637246744255e-05 0.000280625320467325 0.000473316746763075 4.50405015915378e-05 0.000419578075252568 5.57413120391048e-05 0.000265503143911247 -0.000127869150650537 0.000128255304959159 0.00110905178355429 0.000568614440686385 0.000179077028178816
"18" 0.00128756915690608 0.00105233040365664 -0.000515958465903595 0.000507281413064852 0.000107720781108131 0.000287502214370533 0.000487609633432979 6.30686657663718e-05 0.000431379591102931 5.67186856614965e-05 0.000269698831356574 -0.000116995109783845 0.000128331240570983 0.00111231146528736 0.000584934894819983 0.000191861383554629
"19" 0.00130152361004858 0.00103750844504296 -0.00050100951607151 0.000525749122644912 0.000116040120448705 0.000292029102681331 0.000498770263582463 7.86230614098352e-05 0.000441072389612741 5.69271585906264e-05 0.000272982312348737 -0.000107142614099176 0.000127444711124378 0.00111336438668585 0.000599549230792783 0.000203343985991416
"20" 0.00131050326538307 0.00101418538102566 -0.000483024555273475 0.000539657199321222 0.000122021001277987 0.000294148981827847 0.000506713529380966 9.16737214420495e-05 0.000448585497629331 5.62559768265081e-05 0.000275368254341494 -9.84236133029146e-05 0.000125587392577861 0.00111210290876885 0.000612417994719993 0.000213434679697058
"21" 0.00131415868072374 0.000982241834050751 -0.000462053388766779 0.000548758840396652 0.000125677462934345 0.000293826391944299 0.000511378184438599 0.000102218948527425 0.000453875543578544 5.4614586988913e-05 0.000276866942295079 -9.093064101689e-05 0.000122764720362142 0.00110842909936001 0.000623536206069845 0.0002220604955816
"22" 0.00131219836107514 0.000941655362621716 -0.000438175198310579 0.000552849597737619 0.000127043553323065 0.000291040986356277 0.000512728022945618 0.000110278998617189 0.000456920907409557 5.19190850553393e-05 0.000277504530216987 -8.47437849991021e-05 0.00011898939759749 0.00110225449701658 0.000632907677505966 0.000229165431355363
"23" 0.00130439576523593 0.000892493914418932 -0.000411497364860214 0.000551781556393454 0.000126178146559013 0.000285791896228991 0.000510759687113992 0.000115914398244948 0.000457728091652393 4.81012013885982e-05 0.000277309948929171 -7.99151390562392e-05 0.000114282520808179 0.0010935049865794 0.000640556239795367 0.00023472072828829
"24" 0.00129058743897203 0.00083492290343559 -0.000382153622205981 0.000545461632433939 0.000123151042773764 0.000278101037640716 0.000505493918487882 0.000119198330937618 0.000456324081778864 4.31068180335133e-05 0.000276315538937838 -7.64782326950626e-05 0.000108683547567447 0.00108211921915493 0.000646531837297729 0.000238711631648384
"25" 0.00127068102398686 0.000769193861132008 -0.000350305857653608 0.00053385228289906 0.000118056930159254 0.000268000734068566 0.000496977714067452 0.000120246515776706 0.000452769665808552 3.68952478786032e-05 0.000274564982309431 -7.44472393691935e-05 0.000102237507701074 0.00106805507787029 0.000650897918435671 0.000241152653434275
"26" 0.00124465975695245 0.000695657892871644 -0.00031614499408826 0.000516973786327276 0.000111014526397224 0.000255547137090692 0.000485297011086598 0.000119191839479825 0.000447148386747751 2.94402750124012e-05 0.000272101844371238 -7.38169076307485e-05 9.50045009049633e-05 0.00105128356246659 0.000653734149916605 0.000242076270385454
"27" 0.00121257634821639 0.000614749573954826 -0.000279879267020035 0.000494904292810124 0.000102147184568585 0.000240814660908273 0.000470553787671743 0.00011619299537047 0.000439567863729252 2.07378545923926e-05 0.000268977769821851 -7.45565341306575e-05 8.7049445570879e-05 0.00103179200898378 0.000655139676553824 0.000241538939280962
"28" 0.00117456827608908 0.000526991428815179 -0.000241748666581553 0.000467780108489299 9.16113854072852e-05 0.000223890958214165 0.000452889320134113 0.000111438346563305 0.000430161234902586 1.0796033417279e-05 0.000265246747658039 -7.66143235135075e-05 7.84560952176037e-05 0.00100959463131959 0.000655233509500484 0.000239623935715284
"29" 0.00113084466121852 0.000432980261018069 -0.000202000741226296 0.000435791226137574 7.95669650787386e-05 0.000204882772894029 0.000432472075563615 0.000105125382032846 0.000419080481262016 -3.56446708938398e-07 0.000260967478204444 -7.99184080834629e-05 6.93115035709257e-05 0.00098471520690855 0.000654146600610403 0.000236432095507619
"30" 0.00108168640849314 0.000333387600196683 -0.00016091763392633 0.000399181559249469 6.61949962983586e-05 0.000183907644127628 0.000409488437679675 9.74833326070587e-05 0.000406502394122201 -1.26734996673439e-05 0.000256203165273805 -8.43832531717891e-05 5.97113482620879e-05 0.000957202119256707 0.000652017841215766 0.000232088445189831
"31" 0.00102745387222468 0.000228939375360703 -0.000118787704732273 0.000358243269975805 5.16876537332846e-05 0.000161103601640009 0.000384157577969564 8.87502578878108e-05 0.00039261828876536 -2.61018812889845e-05 0.000251017303795404 -8.99010322535832e-05 4.97612514432707e-05 0.000927123092917559 0.000649005626835532 0.000226737061838708
"32" 0.000968564266347857 0.000120427686238267 -7.59216928507178e-05 0.000313322082538071 3.62433095537624e-05 0.00013661452965136 0.000356718830430281 7.91752002679258e-05 0.000377641688747867 -4.05618915160769e-05 0.00024547717922098 -9.63435468459662e-05 3.95770677674174e-05 0.000894565490240767 0.000645275263677896 0.000220539674094624
"33" 0.000905511251890281 8.67772883892503e-06 -3.26327351595032e-05 0.00026479675422358 2.00825332071896e-05 0.000110601726388225 0.000327435199501282 6.90250849495427e-05 0.000361793216429588 -5.59595872922006e-05 0.000239651427716979 -0.000103577582171332 2.92770969006161e-05 0.000859633979491992 0.00064099789687479 0.00021368203185846
"34" 0.000838832156220405 -0.000105444761493413 1.07506729515713e-05 0.000213088496396268 3.41437611893485e-06 8.32291515909546e-05 0.000296588210688489 5.85694053393447e-05 0.000345306333811457 -7.21936043606246e-05 0.000233603286618741 -0.000111448335849426 1.89843902325293e-05 0.000822454299711742 0.000636351159246594 0.000206353868615895
"35" 0.000769125865846631 -0.000221047747158734 5.38999267574232e-05 0.000158648404237426 -1.35336739081217e-05 5.46745486243447e-05 0.000264470771569713 4.80808563235268e-05 0.000328427832955447 -8.91425320888554e-05 0.000227404510754368 -0.000119796803224351 8.82729007174761e-06 0.000783168884050786 0.000631516892715141 0.000198767588201386
"36" 0.000697030843755876 -0.000337224590255144 9.6473971911434e-05 0.000101955448796604 -3.05348559448123e-05 2.51230744273469e-05 0.000231403237666991 3.78375025132681e-05 0.000311402845255513 -0.00010667939967985 0.000221121177770364 -0.000128454947050027 -1.06327768982029e-06 0.000741937267575453 0.000626678888583685 0.000191142080734671
"37" 0.000623222267964631 -0.000453061551598725 0.000138147756844279 4.35086019613332e-05 -4.73633338072379e-05 -5.24038322346885e-06 0.000197698673984568 2.81128322326133e-05 0.000294485894161113 -0.000124662540804333 0.00021481859668751 -0.000137243530522524 -1.05581229783026e-05 0.000698930921971027 0.000622013562738886 0.000183701770475114
"38" 0.000548406472644488 -0.000567652263163052 0.00017859297293894 -1.61804886751235e-05 -6.37991460205667e-05 -3.62257221047166e-05 0.000163687322223186 1.917474708903e-05 0.000277921059797878 -0.000142946854518114 0.000208557009159543 -0.000145991353413755 -1.95265531926405e-05 0.000654337951311625 0.00061769988631359 0.000176676798603478
"39" 0.000473306542263415 -0.00068009239993142 0.000217488939442627 -7.65911550327889e-05 -7.9623124636902e-05 -6.76393049618532e-05 0.000129709356734414 1.12827745027185e-05 0.000261960689169023 -0.000161375301583997 0.000202397038032186 -0.00015451514187408 -2.78409601746827e-05 0.000608355384243099 0.000613905007639176 0.000170302780718235
"40" 0.000398660156469759 -0.000789503953915402 0.000254531283030058 -0.000137198989076322 -9.46212975199969e-05 -9.92879631277104e-05 9.60973775646441e-05 4.68493450603207e-06 0.000246842391546335 -0.000179791001315343 0.000196391753423946 -0.000162641276530757 -3.53809792568934e-05 0.000561196204243723 0.000610792821276267 0.000164808488221921
"41" 0.000325208800882597 -0.000895031688841658 0.000289432103357356 -0.000197480377859007 -0.000108590921830045 -0.000130986871421211 6.31845469471108e-05 -3.81834562196587e-07 0.000232791854649359 -0.000198036438577951 0.000190590876681785 -0.000170198666567719 -4.20260201750972e-05 0.000513072843377456 0.000608508795838459 0.000160419951175066
"42" 0.000253686554033545 -0.00099585521623709 0.00032191880639336 -0.00025692338132793 -0.000121344123422922 -0.000162543811774583 3.13022304602063e-05 -3.69804035492645e-06 0.000220031097968021 -0.000215945599026658 0.000185037600127394 -0.000177019477999445 -4.76691687001107e-05 0.000464211800827717 0.000607192871114065 0.000157356282443138
"43" 0.000184819836060272 -0.0010911914096908 0.000351748286221868 -0.000315028860456352 -0.00013269683138506 -0.000193778047514516 7.66258709522397e-07 -5.06785921159015e-06 0.000208755924826974 -0.000233364482124242 0.000179768813160223 -0.000182954198914939 -5.22075777609215e-05 0.000414834134689779 0.00060696094466011 0.000155820475440221
"44" 0.000119312150021024 -0.00118029752173829 0.000378697383042759 -0.000371315035318187 -0.000142490037619236 -0.000224515183198649 -2.81082784650157e-05 -4.30963742107319e-06 0.000199151724110589 -0.000250131028940861 0.000174814527843084 -0.000187854525304283 -5.55515171312571e-05 0.000365170808563938 0.000607916562856227 0.000156010283914713
"45" 5.78443916843217e-05 -0.00126248570976779 0.00040257470082338 -0.000425319899123502 -0.000150571231188225 -0.000254588301652782 -5.50317602516129e-05 -1.26702873824209e-06 0.000191381460249413 -0.000266100174259059 0.000170200755116477 -0.000191590753563799 -5.76226960464727e-05 0.000315450733762384 0.000610142554749379 0.000158094770179009
"46" 1.06415537791823e-06 -0.00133711744150571 0.00042322048966943 -0.00047661520554754 -0.000156813753638575 -0.000283834292785529 -7.9720239051227e-05 4.18758222371388e-06 0.000185581377298994 -0.000281124622682864 0.000165943266346224 -0.00019404987223533 -5.8355217486476e-05 0.000265894228984024 0.000613697628527986 0.000162233152094589
"47" -5.04222655542131e-05 -0.00140360911622379 0.000440510176855841 -0.000524793149268969 -0.000161106713239001 -0.000312108042755493 -0.000101920083155719 1.21594952606047e-05 0.000181864618673719 -0.00029507355349816 0.000162047436872568 -0.000195129585458407 -5.7697888423365e-05 0.00021672398325371 0.0006186248041898 0.000168557035325888
"48" -9.60510695741815e-05 -0.00146143687297417 0.000454355006347533 -0.000569485406509896 -0.000163353543694786 -0.000339268021814155 -0.000121391509115351 2.27288037467819e-05 0.000180322290680101 -0.000307818751524253 0.000158513687336993 -0.000194749471798215 -5.56144362818588e-05 0.000168156639285113 0.000624940111318338 0.000177175863963177
"49" -0.000135306749788256 -0.00151013703509596 0.000464700324379622 -0.000610354937307812 -0.000163485997784988 -0.00036518727645528 -0.000137918207729789 3.59458250937985e-05 0.000181012736613121 -0.000319252220478606 0.000155342664390924 -0.000192847159234105 -5.20827322842923e-05 0.000120395726618762 0.000632637297044447 0.000188167811249095
"50" -0.000167731923269183 -0.00154930935106511 0.000471530475955683 -0.000647108340277191 -0.000161444508928888 -0.00038974882676072 -0.000151313231319482 5.18247235388363e-05 0.000183968795052378 -0.000329268799932769 0.000152514188701595 -0.000189382179195432 -4.70953694876158e-05 7.36377369093242e-05 0.000641679433080315 0.000201589703815238
"51" -0.000192920924946676 -0.00157861928083082 0.000474872342831379 -0.000679488113589228 -0.000157204408873423 -0.000412848226531038 -0.00016141275050614 7.03633049691361e-05 0.000189189798698565 -0.000337791272219474 0.000150010249928703 -0.000184332092165535 -4.06677469414887e-05 2.80742640361773e-05 0.000652014129480261 0.000217462364074949
"52" -0.000210535428073432 -0.00159779446482924 0.000474781088800811 -0.000707279498269043 -0.000150749581569087 -0.000434394608401979 -0.000168080744768139 9.15155327522387e-05 0.000196649845718993 -0.000344741808127794 0.000147806011396455 -0.000177695529746914 -3.28207064240292e-05 -1.61217365594477e-05 0.000663563786727716 0.000235781103532866
"53" -0.000220303734690336 -0.00160663555865191 0.000471354233282095 -0.000730310286356546 -0.000142093092189488 -0.000454309187080002 -0.000171214745413846 0.000115217399940707 0.000206297297792226 -0.000350070446681453 0.000145865802219659 -0.000169489504270597 -2.35991477167277e-05 -5.87862900860398e-05 0.000676220417806321 0.000256506379917213
"54" -0.00022201354408869 -0.00160500431153975 0.000464723240335049 -0.000748452023182606 -0.00013125866943193 -0.000472526239826231 -0.000170735938544149 0.000141366854164064 0.000218037553033353 -0.000353737241127646 0.000144158973813984 -0.000159758736725439 -1.30603710251752e-05 -9.97734553350313e-05 0.000689863202994392 0.000279565727204791
"55" -0.00021553226146814 -0.00159283759165586 0.000455054471953513 -0.000761623861694472 -0.000118296025012545 -0.000488989660282481 -0.000166594328958326 0.00016983851617093 0.00023176262383148 -0.000355726740108428 0.000142642317433601 -0.000148562101801597 -1.27337096221064e-06 -0.000138942533535546 0.00070434545656622 0.000304858319987433
"56" -0.00020079496160132 -0.0015701378922958 0.000442537288872357 -0.000769787467397864 -0.000103273531994754 -0.00050365898876013 -0.000158771892800961 0.000200474267673058 0.000247329113078274 -0.000356033165496443 0.000141276694960339 -0.000135978429717375 1.16736337595639e-05 -0.000176178132214007 0.000719502471277506 0.000332251470763735
"57" -0.000177814704375444 -0.00153698202528449 0.000427394916195049 -0.000772950088114671 -8.6276269640773e-05 -0.000516504157234496 -0.000147287769627489 0.000233089749776953 0.000264571845498949 -0.000354670081077582 0.000140014513389609 -0.000122113103492948 2.56865861434602e-05 -0.000211373290912729 0.000735154167804815 0.000361579684497963
"58" -0.000146676908374761 -0.0014935149665369 0.00040986882152656 -0.000771165824401931 -6.74039862985716e-05 -0.000527507507167868 -0.000132179117699746 0.000267472401754508 0.00028329912897366 -0.000351672277235877 0.000138810445986487 -0.000107080305763206 4.06549289719714e-05 -0.000244437278346239 0.000751102646677302 0.000392650676845772
"59" -0.000107551025462666 -0.00143994998206635 0.00039022411466442 -0.000764530896083643 -4.67784427004455e-05 -0.000536662201065837 -0.000113517797505647 0.000303386938526811 0.000303295204381221 -0.000347087785658079 0.000137621512876504 -9.10167293410778e-05 5.64618231420399e-05 -0.000275298425193981 0.000767139685871375 0.000425240951101708
"60" -6.06745919597927e-05 -0.0013765798966459 0.000368738623050871 -0.000753189379935763 -2.45318488137878e-05 -0.000543972824231466 -9.14095072403578e-05 0.000340571224124915 0.000324327752923171 -0.000340983843078126 0.000136402315003489 -7.40713997261568e-05 7.29777057886047e-05 -0.000303898618883412 0.000783051117414332 0.00045910556337589
"61" -6.37092300801052e-06 -0.00130376251765262 0.000345703518116289 -0.000737325867835018 -8.16717918209559e-07 -0.000549452777824743 -6.59818788829286e-05 0.000378745350718257 0.000346145630059006 -0.000333444149563923 0.000135111932884192 -5.64140845206596e-05 9.0070129062691e-05 -0.000330194005626659 0.000798602095844636 0.000493969213406056
"62" 5.49651232295594e-05 -0.00122193153570935 0.000321417557406145 -0.000717163882427657 2.42057978608257e-05 -0.000553129581515322 -3.73944065546361e-05 0.000417604748925 0.000368482811485294 -0.000324563815261832 0.000133710438030365 -3.82198396721963e-05 0.000107595128013908 -0.000354165201442695 0.000813566886659795 0.000529536871355438
"63" 0.000122860442025674 -0.00113158744771104 0.000296178973829306 -0.000692972992339673 5.03588234667016e-05 -0.000555033112230177 -5.83290942604703e-06 0.00045683508153434 0.000391061052238892 -0.000314460824963611 0.000132163695989467 -1.96784516504787e-05 0.000125414185641908 -0.000375796066680523 0.000827714404007094 0.000565495498546491
"64" 0.00019677041125583 -0.00103330947127192 0.000270292620426372 -0.000665053775702627 7.7459322175207e-05 -0.000555207457500775 2.84965515922267e-05 0.000496099966198431 0.000413585704452157 -0.000303258373802831 0.000130436489359434 -9.8397780974547e-07 0.000143376140819712 -0.000395101307890353 0.000840810455185255 0.000601513323618009
"65" 0.0002760784232876 -0.00092773962450965 0.000244054189644748 -0.00063374565448693 0.00010530910733854 -0.000553704217515327 6.53546759366036e-05 0.00053506096304666 0.00043576524967654 -0.000291096900097587 0.000128505721361088 1.76550031459595e-05 0.00016133328389475 -0.000412098827829721 0.000852623799244413 0.000637241102426146
"66" 0.000360097020528421 -0.000815593008173026 0.000217755861098274 -0.000599418399981793 0.000133704991338254 -0.000550582807698223 0.000104486940734615 0.000573365998384832 0.000457299910773644 -0.000278127084135944 0.00012634617163746 3.60318399972084e-05 0.000179135903106667 -0.000426828633041575 0.000862935171881348 0.000672325139460726
"67" 0.000448078722879363 -0.000697654234068679 0.000191676894469827 -0.000562471168600824 0.000162442316304267 -0.000545907783140248 0.000145618396033506 0.000610663898298203 0.000477887869729086 -0.000264510183514078 0.000123939888608475 5.39390743775582e-05 0.000196638498799456 -0.000439346493485176 0.00087152414485067 0.000706400181024567
"68" 0.000539215289885781 -0.000574767325304217 0.000166086408287546 -0.000523320706590735 0.000191300937654641 -0.000539753529776707 0.000188451102898648 0.000646600536920357 0.000497227506029062 -0.000250409852963264 0.000121277328081024 7.11649972520705e-05 0.000213690497524942 -0.000449721996787071 0.000878191998023389 0.000739095094137951
"69" 0.000632648371450112 -0.000447842175305337 0.000141234864567966 -0.000482415089361244 0.000220071255302747 -0.000532194502867902 0.0002326712360126 0.00068082972798326 0.000515027690243231 -0.000236000168036817 0.000118347484542649 8.75045349532744e-05 0.000230155581119407 -0.000458036066921811 0.000882740096150606 0.000770041972149304
"70" 0.000727471045302053 -0.000317841270711012 0.000117357299342341 -0.000440208650200506 0.000248539819559761 -0.000523318248220879 0.000277960221600264 0.000713018855420119 0.000531004598466392 -0.000221460844616919 0.00011515069740566 0.000102756495225853 0.000245896039579929 -0.000464388766406773 0.000884997040578107 0.000798878485066644
"71" 0.000822742285416964 -0.000185782784219109 9.46695330143891e-05 -0.000397169541350807 0.000276488140094836 -0.000513211283751661 0.0003239791871186 0.000742841715269571 0.000544884302223508 -0.000206967341891279 0.000111689276019635 0.000116731395978151 0.000260780034399578 -0.000468887893088813 0.000884800323969738 0.000825244302509433
"72" 0.000917487431292379 -5.27267321764738e-05 7.33674347743957e-05 -0.000353772796809717 0.000303713076914025 -0.000501967192679961 0.000370384612089122 0.000769995143361068 0.000556409904919303 -0.000192700232535937 0.000107971183647045 0.000129246312905012 0.000274686221981554 -0.000471657453131329 0.000882007979470206 0.00084879490635228
"73" 0.00101071223415708 8.02229369958642e-05 5.36198495000071e-05 -0.000310489842102707 0.000330013409111387 -0.000489679414433889 0.000416832728748791 0.000794199710037627 0.000565343338352776 -0.000178832903075489 0.000104007334327653 0.000140135323511166 0.000287495867401103 -0.000472829162522852 0.000876503093449139 0.000869203635115054
"74" 0.00110141732978154 0.000211944877216523 3.55814796369288e-05 -0.000267789502401492 0.000355195203127028 -0.000476446479329935 0.000462969442164591 0.000815201855287105 0.000571464961757204 -0.000165537739587747 9.98131906019141e-05 0.000149248137742559 0.000299104613689243 -0.000472548945215094 0.000868182181073033 0.00088615892507521
"75" 0.00118860093033004 0.000341288661605992 1.93765324301006e-05 -0.000226131353866 0.000379073391787929 -0.000462370936050775 0.000508445605425283 0.000832771980602996 0.00057458022403736 -0.00015297802641501 9.54090645208424e-05 0.000156452274970395 0.000309417374199778 -0.000470965599430013 0.000856968558254027 0.000899379224006578
"76" 0.00127127366791447 0.000467103354578994 5.10687975262625e-06 -0.000185955933223312 0.000401483660765598 -0.00044755479217911 0.000552918392980272 0.000846724417831342 0.000574523963325957 -0.000141307564470753 9.08192685278546e-05 0.000161635482746824 0.000318347027691888 -0.000468241238240462 0.000842814099226552 0.000908608135767405
"77" 0.00134847459396899 0.000588245603608142 -7.14438614243446e-06 -0.000147682503058745 0.000422267579898763 -0.000432098888302336 0.000596048073011429 0.000856903107257802 0.000571154382805731 -0.000130669476100428 8.60670671585002e-05 0.000164710370447331 0.000325819386252223 -0.000464538163689861 0.000825694633560861 0.000913625500441821
"78" 0.00141927441134992 0.000703592463726966 -1.73271656397323e-05 -0.000111705804635785 0.000441286971285763 -0.000416107348663958 0.000637507959354026 0.000863191473515445 0.000564364004267161 -0.00012119488036683 8.11816246439212e-05 0.00016560758071577 0.000331772546683387 -0.000460029408786712 0.000805605832110478 0.000914243526185752
"79" 0.00148280317081517 0.000812053513291536 -2.54106563453576e-05 -7.8388458252647e-05 0.000458415329990541 -0.0003996852593709 0.000676980332506863 0.000865513659721879 0.000554080792852557 -0.000113002331082458 7.61904340708381e-05 0.000164289660915057 0.000336156199975003 -0.000454887893809658 0.000782575414208951 0.000910315441572108
"80" 0.00153824023290432 0.000912592305361831 -3.13868216426752e-05 -4.80601012355242e-05 0.000473546495963071 -0.000382934167442415 0.000714162974733281 0.000863835100949128 0.000540265863340383 -0.000106186300813153 7.11300475846772e-05 0.000160737015250576 0.000338935054847906 -0.000449288051526828 0.000756654693689573 0.000901737612329381
"81" 0.00158485055297178 0.00100424160246106 -3.52759516593759e-05 -2.10075490420084e-05 0.000486591282463472 -0.000365955565308255 0.000748776023351556 0.000858161297713927 0.000522911348875793 -0.000100828190959649 6.60275330800989e-05 0.000154962458504439 0.000340087303041848 -0.0004434058820635 0.000727924655756886 0.000888447159183056
"82" 0.00162197819947803 0.00108611379862497 -3.71149442844362e-05 2.52316385781017e-06 0.000497477466106708 -0.000348850841541949 0.000780547111335021 0.000848540412076453 0.000502053906169896 -9.6992504026014e-05 6.09165771139865e-05 0.000147001913716555 0.00033960387359521 -0.000437415211145618 0.000696493340564733 0.000870429541431439
"83" 0.00164905947333987 0.00115742140271535 -3.69680478624037e-05 2.23320881641299e-05 0.00050614919845608 -0.00033171769526765 0.000809238640730674 0.000835057271168139 0.000477757165117821 -9.471859794724e-05 5.5830770819906e-05 0.000136918861354678 0.000337486480773582 -0.000431485209912567 0.000662487210396159 0.000847716243450735
"84" 0.00166564151843982 0.00121748674189336 -3.49179173972415e-05 3.82649044423798e-05 0.000512575908708684 -0.0003146527809414 0.000834629411401759 0.000817841092417648 0.000450125297929594 -9.40269051838372e-05 5.08008152215117e-05 0.000124800730324664 0.000333760098216936 -0.000425780076595602 0.000626061077713652 0.000820384535648247
"85" 0.00167138097287316 0.00126576149675933 -3.10706561811529e-05 5.02187726530935e-05 0.000516729336536307 -0.000297750195756499 0.000856519457769281 0.00079705298284338 0.000419304612863975 -9.49201857472807e-05 4.58598866895489e-05 0.000110762380302205 0.000328449135508073 -0.000420460385020463 0.00058739961192997 0.000788563435731771
"86" 0.00166605352302799 0.00130182760129761 -2.55436255788953e-05 5.81391420053507e-05 0.000518620169237646 -0.000281096401273179 0.000874746827587352 0.000772893353399682 0.00038546300343601 -9.73754675343365e-05 4.103360501957e-05 9.49380833131579e-05 0.000321606576215547 -0.000415673389236488 0.000546697654175047 0.000752424296873848
"87" 0.00164955498138931 0.00132541204673326 -1.84789269771092e-05 6.20236392096715e-05 0.000518251770231607 -0.000264780421786877 0.00088916426350149 0.000745591614913719 0.000348807636138784 -0.000101345797239866 3.63530608132255e-05 7.7487086069294e-05 0.000313286160738188 -0.000411560180386913 0.000504174790361264 0.000712184603516408
"88" 0.00162190366940364 0.00133638950803212 -1.00286117766756e-05 6.1914679875127e-05 0.000515657128855574 -0.000248885324262079 0.000899657193178734 0.000715402567259487 0.00030957873796133 -0.000106772451147065 3.18441152397836e-05 5.85870325347069e-05 0.000303561550823004 -0.000408251944717874 0.000460071733389712 0.000668099243631962
"89" 0.00158324566376607 0.00133478379721491 -3.57240963400195e-07 5.79092483949956e-05 0.000510882324948726 -0.000233484941819571 0.000906142486030114 0.000682613058881545 0.000268040482200984 -0.000113566445980662 2.75288439420117e-05 3.84327061336328e-05 0.000292514275861034 -0.000405858441392908 0.000414644415789547 0.000620471391149942
"90" 0.00153384708885727 0.00132077150891458 1.03559277496138e-05 5.01449652843498e-05 0.000503979077861447 -0.000218655671632651 0.000908559523060248 0.000647524879975079 0.000224484284421891 -0.000121625028250978 2.34295521892082e-05 1.72384446471529e-05 0.000280238419015693 -0.000404484905846087 0.000368154733648505 0.000569632513208875
"91" 0.00147409105104903 0.00129467209017511 2.19293313953951e-05 3.88086832579689e-05 0.000495024018268895 -0.000204461341723468 0.000906889100243644 0.000610464863273473 0.000179222837241518 -0.000130820925909652 1.95622359001397e-05 -4.76962199011263e-06 0.000266837565808264 -0.000404214235563134 0.000320882449666686 0.000515952329783522
"92" 0.00140447271534834 0.00125694007226343 3.41730731311498e-05 2.41246990822879e-05 0.000484095422388934 -0.000190964273315162 0.000901132102436947 0.000571768574915549 0.000132590960368314 -0.000141017560375495 1.594190221628e-05 -2.73562166124036e-05 0.00025242276679761 -0.0004051169704853 0.000273113571651625 0.000459825509438504
"93" 0.00132559122097588 0.00120817079570181 4.68941975117275e-05 6.35630968869237e-06 0.000471282300910432 -0.000178221965320102 0.000891315384346526 0.000531784079007798 8.49331977739124e-05 -0.00015205292780347 1.2582459191938e-05 -5.02756129930096e-05 0.000237117792499192 -0.000407243082949393 0.000225143593970654 0.000401674375565716
"94" 0.00123813459413956 0.00114905929985888 5.99005223356151e-05 -1.41959525311014e-05 0.000456690765064968 -0.000166279066263668 0.000877507369151749 0.000490867078472456 3.66132580535848e-05 -0.000163757631630242 9.48949414500618e-06 -7.32732554717162e-05 0.000221046643101935 -0.000410620855287032 0.000177260271158328 0.0003419351371738
"95" 0.0011428838250668 0.00108041704688737 7.30040109430399e-05 -3.72090678033927e-05 0.000440433128518805 -0.000155180766387685 0.00085979404756831 0.000449378028418063 -1.20010513432545e-05 -0.000175942218305827 6.67019644437281e-06 -9.60958861037931e-05 0.000204346959346375 -0.000415267107837849 0.000129761593807343 0.000281065684531673
"96" 0.00104067986554242 0.00100313985001395 8.60217879847349e-05 -6.23250269135892e-05 0.000422620265008938 -0.000144958624805277 0.000838292548193804 0.000407672293253759 -6.05382437359204e-05 -0.000188415438909193 4.12486697443164e-06 -0.00011848055836574 0.000187151273649067 -0.000421172526198316 8.29403019082868e-05 0.000219526905705721
"97" 0.000932427694635829 0.000918190537112414 9.87809931746793e-05 -8.91712348352136e-05 0.000403386102666651 -0.000135641018821667 0.000813145847908053 0.000366109833150797 -0.00010861780134182 -0.00020096781189482 1.8537347285312e-06 -0.000140174237142341 0.000169603297059721 -0.000428313419905936 3.70792947604548e-05 0.000157789345901598
"98" 0.000819079474635249 0.000826591283111362 0.000111115933013582 -0.000117355916972141 0.000382860345922659 -0.00012724522607621 0.000784525735904813 0.000325038836728186 -0.000155873924910006 -0.000213389210095809 -1.51094752341369e-07 -0.00016092245135662 0.000151845357021302 -0.000436641664320526 -7.54336227666144e-06 9.63254688676205e-05
"99" 0.000701612509880056 0.000729398696891171 0.000122880593812763 -0.000146474760268182 0.000361183389149314 -0.000119784431108922 0.000752622326803436 0.000284797382299288 -0.000201938035234206 -0.000225460065881776 -1.891680898899e-06 -0.00018047311491619 0.000134016754011734 -0.000446089905515421 -5.06592868456151e-05 3.5596999452575e-05
"100" 0.000581036138666084 0.000627691452567249 0.000133939175150586 -0.000176117355633715 0.00033849589207305 -0.00011325967899551 0.000717650076860994 0.000245722313971359 -0.00024645250060109 -0.000236961885218798 -3.38585433022296e-06 -0.000198585342501667 0.000116264360291529 -0.000456580089871747 -9.20124274293606e-05 -2.39362880377552e-05
"101" 0.000458358008991457 0.000522554656181255 0.000144176475183567 -0.000205866990501062 0.000314951738160384 -0.000107666971865262 0.000679847718976566 0.000208126880498954 -0.000289073954639028 -0.000247672823569629 -4.63963331440844e-06 -0.000215029773367668 9.87258666863359e-05 -0.000468005226433509 -0.000131364426122208 -8.18290692325015e-05
"102" 0.000334584012354216 0.000415061765359816 0.000153497913472929 -0.000235309065590279 0.000290699746578539 -0.000102990365045517 0.000639468064587331 0.000172313755822067 -0.00032947504059621 -0.000257373011261157 -5.67168715318126e-06 -0.000229580243643467 8.15366977881387e-05 -0.000480245284322316 -0.000168494186901603 -0.000137654003515366
"103" 0.000210707482845429 0.00030627092298767 0.000161828793939285 -0.000264039192778373 0.000265897131946294 -9.92124924315438e-05 0.000596777785417275 0.000138564292055997 -0.00036734256727111 -0.000265850618341389 -6.50127279211376e-06 -0.000242033686736496 6.48294964528766e-05 -0.000493173526836131 -0.000203199509340142 -0.000191002143745966
"104" 8.7696645603877e-05 0.000197202723015087 0.00016911172354215 -0.00029165640170928 0.000240701459591134 -9.63041173413367e-05 0.000552072289416909 0.000107144623603395 -0.000402388511425901 -0.000272895532976561 -7.14602409470651e-06 -0.000252193302970216 4.87289537777121e-05 -0.000506635232963784 -0.000235290111065654 -0.000241486129430347
"105" -3.35161317207486e-05 8.88316463908744e-05 0.000175318665827147 -0.00031777446574344 0.000215270328287836 -9.42280811519776e-05 0.000505642332125629 7.82964124234359e-05 -0.00043434827776601 -0.000278306322524423 -7.62796661164677e-06 -0.000259881745519927 3.33582830509502e-05 -0.000520473454841655 -0.000264609767820741 -0.000288746877780082
"106" -0.000152033778011474 -1.79107986155267e-05 0.000180436306017996 -0.000342026925177273 0.000189770448550984 -9.29411795702316e-05 0.000457795227901603 5.22440704848835e-05 -0.000462980008811531 -0.000281896297349772 -7.96683550979214e-06 -0.000264938086779738 1.88242169632294e-05 -0.000534513985498483 -0.000291017794867964 -0.000332450780905849
"107" -0.000267015826495503 -0.000122163572289412 0.000184480700438787 -0.000364060300130438 0.000164355652800725 -9.23962307349488e-05 0.000408851048020387 2.9180722838344e-05 -0.000488069303127702 -0.000283487803086495 -8.18924136093661e-06 -0.000267224296069022 5.23334455569229e-06 -0.000548577519309318 -0.000314398932081656 -0.000372296582124561
"108" -0.000377673663228138 -0.0002231224133526 0.000187481283728117 -0.000383553647735254 0.000139189812903345 -9.25367734513158e-05 0.000359129547442591 9.28106247782843e-06 -0.000509433097269939 -0.000282916948225942 -8.31560827185139e-06 -0.000266617147681346 -7.32166090821845e-06 -0.000562477562021212 -0.000334658953261932 -0.000408016776888768
"109" -0.000483261610744035 -0.000320053351111739 0.000189491383051906 -0.000400206815267976 0.000114427124715076 -9.33046531610666e-05 0.000308950521272397 -7.31001825222744e-06 -0.000526912371480345 -0.000280040981568245 -8.36951656320672e-06 -0.000263019198797026 -1.87564211920213e-05 -0.000576022452938691 -0.000351733081027823 -0.00043937414543682
"110" -0.000583116659973056 -0.000412288418347875 0.000190578603443602 -0.000413749519713551 9.02184491408567e-05 -9.46364614226882e-05 0.000258637655705118 -2.04743641172421e-05 -0.000540382352425495 -0.000274733511419319 -8.37440476728611e-06 -0.000256351658172665 -2.89981591246324e-05 -0.000589023351674978 -0.000365579270124535 -0.000466164878771622
"111" -0.000676631044361215 -0.00049924517030034 0.000190830431690813 -0.000423945512217588 6.67152487805683e-05 -9.64613568449441e-05 0.000208511131807494 -3.01217573580894e-05 -0.000549752685577627 -0.000266886441676039 -8.35624639293413e-06 -0.000246561557191539 -3.79865024299403e-05 -0.000601283709467685 -0.000376180969592396 -0.000488229437855697
"112" -0.000763261977323029 -0.000580403633139101 0.000190344724819054 -0.000430593064771151 4.40508553057724e-05 -9.87137170163113e-05 0.000158880618413389 -3.61925640083459e-05 -0.000554960980517822 -0.000256421346391848 -8.33540456673768e-06 -0.00023362168365039 -4.56708270473963e-05 -0.000612616826751346 -0.000383542773262463 -0.00050543439152068
"113" -0.000842537859681082 -0.000655324589215994 0.000189228503295683 -0.000433520729162504 2.23615883023025e-05 -0.000101321942388893 0.000110050549211523 -3.86601373042394e-05 -0.000555981074391303 -0.000243275887306504 -8.33522210529145e-06 -0.000217527823777828 -5.2012269204209e-05 -0.000622836113772454 -0.000387696967848903 -0.00051769118720272
"114" -0.00091406091642 -0.000723638887719476 0.000187600496336645 -0.000432606800761106 1.76570458248376e-06 -0.000104212217685603 6.23117420613816e-05 -3.75213597978806e-05 -0.000552818455186695 -0.000227416616245183 -8.3756330791804e-06 -0.000198302390803758 -5.69848910872235e-05 -0.00063177276787894 -0.000388697086140018 -0.000524944713536699
"115" -0.000977488082999943 -0.000785052960007072 0.000185584245896038 -0.000427757909317661 -1.7631524050156e-05 -0.000107314280089181 1.59405149855147e-05 -3.28109689205823e-05 -0.0005455080483998 -0.000208832863844803 -8.4760340625526e-06 -0.000175996589323269 -6.05735556374685e-05 -0.000639256873464857 -0.000386624300761444 -0.000527176007650665
"116" -0.00103255764358264 -0.000839341498996134 0.00018330145180593 -0.000418929406264814 -3.5729314807549e-05 -0.000110559972491507 -2.87994450750207e-05 -2.45941274506593e-05 -0.000534124484705524 -0.000187546632226702 -8.65430304613507e-06 -0.000150683801180193 -6.27786640342275e-05 -0.000645137031363134 -0.000381578664681012 -0.000524407357318123
"117" -0.00107907421387256 -0.000886346609287332 0.000180878655047396 -0.000406115593906163 -5.24572281715278e-05 -0.000113880053738648 -7.16710611681357e-05 -1.2969701061378e-05 -0.000518774920775645 -0.000163605819084465 -8.93263679825551e-06 -0.000122469297754773 -6.36085837385417e-05 -0.00064927909046068 -0.000373678947113081 -0.000516696355286197
"118" -0.00111690516621266 -0.00092598265183926 0.000178436345640246 -0.000389356377351286 -6.77448875908056e-05 -0.00011721247634256 -0.000112454924599544 1.93322896267624e-06 -0.000499589211136992 -0.000137087008096411 -9.3233631496816e-06 -9.14852570369313e-05 -6.3088804704976e-05 -0.000651565917875705 -0.000363070805918142 -0.000504135456743075
"119" -0.00114598557171935 -0.00095822066213915 0.00017608884983919 -0.000368733175580029 -8.15565753060398e-05 -0.000120499749239732 -0.000150955801403813 1.995400054093e-05 -0.000476740230534579 -0.000108093382738574 -9.84497520140969e-06 -5.78899220692077e-05 -6.1254317688292e-05 -0.000651896698003796 -0.000349914435417663 -0.000486855658779973
"120" -0.00116631453134755 -0.000983097218323886 0.000173940797455777 -0.000344366499573126 -9.3865910592089e-05 -0.000123683209594677 -0.000186999523254396 4.09008515978473e-05 -0.000450427911095399 -7.67622975306165e-05 -1.05120713562745e-05 -2.18718999213169e-05 -5.81473535481311e-05 -0.000650197090738937 -0.0003343880666086 -0.000465023472553533
"121" -0.00117795542297068 -0.00100070953505642 0.000172092619907868 -0.000316425648567115 -0.000104662821917619 -0.000126717085203534 -0.000220446946873283 6.45520258035291e-05 -0.000420876891861362 -4.32530711565103e-05 -1.1338153403422e-05 1.63621776596263e-05 -5.38266118388281e-05 -0.000646408588961499 -0.000316688077474987 -0.000438834573605843
"122" -0.00118102589459095 -0.00101120490571235 0.000170627753835558 -0.000285116187065554 -0.000113963786850441 -0.000129556993334561 -0.0002511739671323 9.06629386111257e-05 -0.000388349798166384 -7.756525210362e-06 -1.23358348992491e-05 5.65763325492625e-05 -4.83626328430003e-05 -0.000640504254273494 -0.000297029084730215 -0.000408526479629942
"123" -0.00117571315378836 -0.0010147898131701 0.000169616357357563 -0.000250683501826402 -0.000121794786154951 -0.000132164483792201 -0.00027909375122789 0.000118956970665898 -0.000353126306498438 2.9512418866725e-05 -1.3520746438516e-05 9.85099068596844e-05 -4.18313468926235e-05 -0.000632477484881483 -0.000275631072830797 -0.0003743638977166
"124" -0.00116225103383318 -0.00101171762069457 0.00016912240651214 -0.000213409558939797 -0.000128209154657736 -0.000134512106293965 -0.00030414185438649 0.000149139467020435 -0.00031552070135273 6.83141223088865e-05 -1.49002271291516e-05 0.0001418827767909 -3.43210103748235e-05 -0.000622349086531845 -0.000252737402436456 -0.0003366421900358
"125" -0.00114093455511126 -0.00100229717988542 0.000169186648169648 -0.000173612570754885 -0.000133268790226531 -0.000136575146509641 -0.000326280349980842 0.000180895436546534 -0.000275860649423841 0.00010839022321685 -1.64900180908271e-05 0.000186397706184797 -2.59235369577898e-05 -0.000610165029622703 -0.000228588100385237 -0.000295690387515692
"126" -0.00111210970115807 -0.000986873097670594 0.000169840483117082 -0.000131638606470458 -0.000137052556493193 -0.0001383374986569 -0.000345497485372321 0.000213896630741269 -0.00023450845874883 0.000149452502797254 -1.82937966565971e-05 0.000231741502028172 -1.67468809108269e-05 -0.000595997096858157 -0.000203445403689619 -0.000251861917616503
"127" -0.00107617361260576 -0.000965838642736106 0.000171102847366806 -8.78618300910292e-05 -0.000139649264580286 -0.000139788498672702 -0.000361808266173137 0.000247797218352912 -0.000191827595830754 0.000191207039758138 -2.03251706980221e-05 0.000277584670456488 -6.89568888318661e-06 -0.000579939346920066 -0.00017757006522203 -0.000205536184494227
"128" -0.00103356781273672 -0.00093962821691306 0.000172976919919645 -4.26833614558262e-05 -0.000141165548463936 -0.000140922562088846 -0.000375250147400097 0.000282246645200321 -0.000148211087840057 0.0002333366667171 -2.25915692685869e-05 0.000323589068974589 3.513478167648e-06 -0.000562118836896401 -0.000151225901321228 -0.000157116920381505
"129" -0.000984782962935035 -0.000908707163127054 0.000175452554604121 3.47951524868198e-06 -0.000141708313664048 -0.000141744626608235 -0.000385881863343039 0.000316891317977039 -0.000104061546993049 0.000275525096466433 -2.50970546775075e-05 0.000369412613331834 1.43603300079529e-05 -0.000542675453244785 -0.000124683460498507 -0.000107027881601887
"130" -0.00093035600487772 -0.000873580753117185 0.000178515811663896 5.01991224988952e-05 -0.000141389983173327 -0.000142259012635173 -0.000393784726508643 0.00035137795972969 -5.97834924032031e-05 0.0003174359349666 -2.78501974836652e-05 0.000414707212362864 2.55243873786688e-05 -0.0005217804376022 -9.82133358621325e-05 -5.57102556857781e-05
"131" -0.000870852105317578 -0.00083477451171831 0.000182132706790913 9.70295814087075e-05 -0.000140334006733033 -0.000142480985825698 -0.000399062170304203 0.000385355370110569 -1.57948405810661e-05 0.000358735948063904 -3.08508508606131e-05 0.000459128570248222 3.68800030752531e-05 -0.000499621828047915 -7.20777888285338e-05 -3.61722109885471e-06
"132" -0.000806883830425019 -0.00079285069921862 0.000186267330758375 0.000143528878876868 -0.000138659505660809 -0.000142427297049818 -0.000401826423806628 0.000418486310438812 2.74831896189845e-05 0.000399094936638639 -3.41073979848223e-05 0.000502333608883994 4.83037015422923e-05 -0.000476406126482183 -4.65361199309259e-05 4.8782446239378e-05
"133" -0.000739095886060735 -0.000748386988307336 0.000190875859854628 0.000189248430588762 -0.000136483697556914 -0.000142121453969973 -0.000402212344374803 0.000450439529953608 6.9641370923135e-05 0.000438181524347721 -3.76184469364672e-05 0.000543994367907337 5.96730043337124e-05 -0.000452357909700841 -2.18445420656728e-05 0.000101019435869526
"134" -0.000668152815460406 -0.00070197927255975 0.000195911599004525 0.000233752351427771 -0.00013393187231799 -0.000141588423493362 -0.000400374780636734 0.000480907636947777 0.000110268384678269 0.000475676763338292 -4.13833297859475e-05 0.000583786327221116 7.08624268653818e-05 -0.000427719561269022 1.75447508304265e-06 0.000152616564946389
"135" -0.000594756847387629 -0.0006542339743565 0.000201317838015281 0.000276608073472874 -0.000131117056618318 -0.000140860000058827 -0.000396465929271146 0.000509600565337391 0.000148964294959127 0.000511271054448824 -4.54061980561424e-05 0.000621414019760944 8.17564242771692e-05 -0.000402741815673054 2.40311297125375e-05 0.000203107786735621
"136" -0.000519612166563025 -0.000605765501193726 0.000207041217755172 0.000317406883526019 -0.000128148069901548 -0.00013996843921009 -0.000390662915247919 0.00053625141779978 0.000185345461219444 0.000544670468645649 -4.9679310359698e-05 0.000656587486840237 9.2241009479304e-05 -0.000377689972917335 4.47695352299668e-05 0.000252028367932298
"137" -0.000443450449853266 -0.000557189679715831 0.00021302248904318 0.000355754928918876 -0.000125135652792608 -0.0001389494727313 -0.00038314622430335 0.000560623165635866 0.000219053466302777 0.000575603428917351 -5.42038616596375e-05 0.000689050388658476 0.000102207917670603 -0.000352835469128687 6.37715097549038e-05 0.000298926196009489
"138" -0.000366999733256478 -0.00050911544921722 0.000219207048934733 0.000391283031496213 -0.000122177984221298 -0.000137843345938017 -0.000374108479835115 0.000582505089531286 0.000249742020225389 0.000603818811134696 -5.89750509138817e-05 0.000718566578586733 0.000111558099858287 -0.000328454512328376 8.08569139549904e-05 0.000343372616399709
"139" -0.000290996325476319 -0.000462143455754797 0.000225534892598785 0.000423658134826847 -0.000119373695739328 -0.000136690974627426 -0.000363742386459221 0.000601715166455389 0.000277099210552773 0.000629090689416125 -6.39849951910722e-05 0.000744934054852712 0.000120198088296758 -0.000304827474140481 9.58738158014036e-05 0.000384960111095329
"140" -0.000216167368428785 -0.000416851982293493 0.000231956479120139 0.000452571793980053 -0.000116806569522328 -0.000135531999532795 -0.000352255475157523 0.000618108165309789 0.000300845743194291 0.000651225094270085 -6.92283876705555e-05 0.000767977258325316 0.000128044203335079 -0.000282230883233359 0.000108680399992949 0.000423307101438869
"141" -0.000143216371569312 -0.000373800951509613 0.000238416905073056 0.000477759591430265 -0.000114565401648928 -0.000134412391232907 -0.000339850494472134 0.000631574620638593 0.000320732060395083 0.000670054980532027 -7.46965791489109e-05 0.000787555366785698 0.000135028117819269 -0.000260940190427412 0.000119176149195117 0.000458067591983029
"142" -7.28365169287699e-05 -0.000333515901461878 0.000244868529926142 0.000498992445033616 -0.000112719967175764 -0.000133376417612491 -0.000326738203954384 0.000642031544705123 0.000336553580380688 0.000685450371403388 -8.03849268961432e-05 0.00080356686454076 0.000141087978439013 -0.000241222015442425 0.000127273281201385 0.000488935516915368
"143" -5.67826873262207e-06 -0.000296486462377002 0.000251266334908338 0.000516083823986214 -0.000111339454799384 -0.000132464068781586 -0.000313126036285267 0.000649436568599619 0.000348141284001441 0.00069730900911195 -8.62800103416246e-05 0.000815942164438954 0.000146177333442873 -0.000223332744559657 0.000132916960439339 0.000515638887768494
"144" 5.76413280946602e-05 -0.000263160709382289 0.000257570765974937 0.000528893617560204 -0.000110490773555457 -0.000131722890144704 -0.000299220895489146 0.00065378361488173 0.000355375809506819 0.000705577135906053 -9.23686124056368e-05 0.000824644919338456 0.000150262922293092 -0.000207516010568001 0.000136081008311492 0.000537965757231587
"145" 0.000116558119750431 -0.000233935979194087 0.000263745167616906 0.00053732102720607 -0.000110229464035717 -0.000131191990627674 -0.000285228451974065 0.00065509020380387 0.000358171979614005 0.000710224787812224 -9.86401941192984e-05 0.000829681219835001 0.00015332316439581 -0.000193995278523891 0.00013676747567295 0.000555737226419407
"146" 0.000170559630203081 -0.000209155326439883 0.000269761373098012 0.000541315739982903 -0.000110603990639131 -0.000130913109925365 -0.000271345488325944 0.000653418767906663 0.000356503282949551 0.000711264861221586 -0.000105079504140891 0.000831092491988674 0.000155351658766731 -0.000182980062991751 0.000135007550275897 0.00056883716412453
"147" 0.000219193669217446 -0.000189109152348015 0.000275589919274168 0.000540872552819742 -0.000111658458469153 -0.000130923138412514 -0.000257771010567288 0.000648854047336772 0.000350381415061258 0.000708746284376902 -0.000111671897992425 0.000828951728655653 0.000156357459598558 -0.000174650071822822 0.00013085140971203 0.000577195200459532
"148" 0.000262086138771914 -0.000174023767619359 0.00028121056296621 0.000536027615737233 -0.000113429923132473 -0.000131257883326829 -0.000244682726715725 0.000641510511868396 0.000339867210155916 0.000702754895985454 -0.000118401326023139 0.00082337027332101 0.000156358133395479 -0.000169169784437597 0.000124392137531821 0.000580798015636838
"149" 0.000298934754258751 -0.00016405532853696 0.000286610757837062 0.000526863965428383 -0.000115946473964156 -0.000131947271034236 -0.000232255247313804 0.000631534859485911 0.000325067058855126 0.000693404212943741 -0.000125245208805168 0.00081448794333699 0.000155394274625857 -0.000166663907084817 0.000115729019574893 0.000579681032429515
"150" 0.000329520770128292 -0.000159302227931949 0.000291783232000946 0.000513507534846958 -0.000119232005800736 -0.000133019530205191 -0.000220650944814826 0.000619097888334559 0.000306127089123648 0.000680847091566155 -0.000132186520013469 0.000802480489722055 0.000153509953467626 -0.000167235801115636 0.000104999963369128 0.000573934565505743
"151" 0.000353701450455083 -0.000159787671564904 0.000296721991805131 0.000496118476630566 -0.000123298556158074 -0.000134496883837804 -0.000210016828081747 0.000604386892851467 0.000283239424623301 0.000665266424947128 -0.00013920381335289 0.000787544059624758 0.000150768675183189 -0.000170955727323025 9.23591669173801e-05 0.000563699431812499
"152" 0.000371424385068817 -0.00016547661160493 0.000301432573593977 0.000474898057669684 -0.000128155266055289 -0.000136397496075172 -0.000200481276213144 0.000587615904447319 0.000256633621774091 0.000646865255621994 -0.000146274776192478 0.000769901605234336 0.000147235807607301 -0.000177861496398489 7.79753491469881e-05 0.000549161419430595
"153" 0.00038271915148387 -0.00017625722112953 0.000305928297723562 0.000450082072293501 -0.000133796909123022 -0.000138732275533487 -0.000192159531837268 0.000569012354048392 0.000226571569163535 0.000625879287944731 -0.000153379437918523 0.000749799651491455 0.000142995080319479 -0.000187956939247444 6.20416041817626e-05 0.000530548958813379
"154" 0.000387704349785324 -0.000191963197687 0.000310223278417865 0.000421933946436927 -0.000140213602698191 -0.000141509592943885 -0.000185146538628858 0.000548817469254974 0.000193348495083564 0.000602559477808994 -0.000160488198498786 0.000727496456821909 0.000138132464892431 -0.000201213744398492 4.47568017527242e-05 0.000508135535393539
"155" 0.000386572795342018 -0.000212366314010419 0.00031434191796278 0.000390745028132227 -0.000147384129687316 -0.00014472827823636 -0.000179518380718407 0.000527284864163262 0.000157285442045317 0.000577178470801754 -0.000167583034537828 0.000703269430761937 0.000132745959782962 -0.000217569419989101 2.63317366081199e-05 0.000482222908255688
"156" 0.000379596929588047 -0.000237179780698776 0.000318315314474452 0.000356829839912055 -0.00015528227791663 -0.00014838343948279 -0.000175325170387872 0.000504675413916145 0.00011872728549507 0.000550018576638662 -0.000174637997386939 0.000677405607890003 0.000126932590399019 -0.000236931254027489 6.98876265050277e-06 0.00045314828502433
"157" 0.000367128464916224 -0.00026606555367216 0.000322182809164181 0.000320522565642939 -0.000163865353251443 -0.000152464428337502 -0.000172606395216337 0.000481257829364648 7.80375318234635e-05 0.000521378073521715 -0.000181629262038907 0.000650196092169222 0.000120795732605104 -0.000259169874972017 -1.30483675497632e-05 0.00042127379896895
"158" 0.000349574908218512 -0.000298644819545945 0.000325984725883372 0.000282170543617274 -0.000173088548535996 -0.000156954125592042 -0.000171365753974075 0.000457300003618423 3.55923188292694e-05 0.000491556798090432 -0.000188530777771593 0.000621941947092192 0.000114436188302068 -0.000284129555039865 -3.35555579938184e-05 0.000386976990930082
"159" 0.00032740036608016 -0.000334492697949708 0.000329773723242777 0.000242132705033095 -0.000182892883167591 -0.000161826501104344 -0.000171594457837362 0.000433067722479114 -8.22371272697731e-06 0.000460858927280846 -0.000195324565088829 0.000592932108596453 0.000107962659204808 -0.000311623450635669 -5.43137744731915e-05 0.00035065634937686
"160" 0.000301123504967998 -0.000373161352343125 0.000333596370284921 0.000200772922941238 -0.000193204611217076 -0.00016705324726247 -0.000173261208479156 0.0004088302243427 -5.3017102524721e-05 0.000429587055756384 -0.000201983028102099 0.000563465891120166 0.000101474486546133 -0.000341436236591665 -7.50985177187171e-05 0.000312714446489887
"161" 0.000271302758858853 -0.000414171467467088 0.000337515213397871 0.000158463686909535 -0.000203947748870338 -0.000172600712851324 -0.000176303883900731 0.000384847251190021 -9.83964330163065e-05 0.000398044862782681 -0.00020848651429998 0.000533825722938897 9.50670974407601e-05 -0.000373327239735943 -9.57048380057761e-05 0.000273559097607795
"162" 0.000238518098120462 -0.000457027131394456 0.00034158491579645 0.000115568413952498 -0.000215035729131792 -0.000178424403541935 -0.00018064305537645 0.000361366746150937 -0.000143977945223258 0.000366522827443033 -0.000214810809541806 0.000504287146482917 8.88388227545992e-05 -0.00040703275140107 -0.000115927596903544 0.000233595969021242
"163" 0.000203384716683712 -0.000501220055712384 0.000345863824203519 7.24521995604586e-05 -0.000226359987160782 -0.000184482673564335 -0.000186180820146054 0.000338635411220303 -0.000189372353560413 0.000335301865263251 -0.000220931186695053 0.000475120134097207 8.28740742551029e-05 -0.000442267955566192 -0.000135572557702276 0.000193228303599149
"164" 0.000166517179757856 -0.000546236387056965 0.000350409134392102 2.947164110787e-05 -0.000237821541079935 -0.000190721825601682 -0.00019279341069204 0.000316878447026234 -0.000234217438650882 0.000304657134078206 -0.000226829211982024 0.000446574763765881 7.72530894743957e-05 -0.000478731384745925 -0.000154468064752336 0.000152848592746878
"165" 0.000128543628030704 -0.000591566506788278 0.000355276273336432 -1.30329838629614e-05 -0.000249296834249517 -0.000197088381331536 -0.000200340741733033 0.000296310606074325 -0.000278147816060787 0.000274840980035742 -0.000232477548905571 0.000418884191195499 7.20522894270708e-05 -0.000516098661267128 -0.000172442776659728 0.000112834565907269
"166" 9.00710436887516e-05 -0.000636705503682745 0.000360509458385302 -5.47325162791207e-05 -0.00026066366928828 -0.000203523892029992 -0.000208663973862169 0.000277128532192678 -0.000320821883615671 0.00024609039097913 -0.000237852975751232 0.000392268910400338 6.73377479915696e-05 -0.00055403765698647 -0.000189349737700753 7.35440392960887e-05
"167" 5.17096824242982e-05 -0.000681157946737545 0.000366148564386243 -9.53154318431803e-05 -0.000271787919228977 -0.000209966604667595 -0.000217584748219773 0.00025950949956171 -0.000361917181356046 0.000218624662697381 -0.000242926051558882 0.000366922328409945 6.31621505634838e-05 -0.000592203261631754 -0.000205050880699389 3.53242221214742e-05
"168" 1.40339501037061e-05 -0.000724456957612978 0.000372219481806674 -0.000134489360679611 -0.00028253251405516 -0.000216352366770252 -0.000226915926846651 0.000243609997623099 -0.000401127930486001 0.000192638923169136 -0.000247673099356569 0.000343024694655248 5.95783619724853e-05 -0.000630246563166343 -0.000219427716115867 -1.51077301683787e-06
"169" -2.24007421650914e-05 -0.000766145449447086 0.000378736619709332 -0.000171989809416789 -0.000292755554861583 -0.000222614739075582 -0.000236451809604291 0.000229565262456268 -0.00043817100780083 0.00016830566049321 -0.000252063822780618 0.000320732075007637 5.66245013918137e-05 -0.000667803955834997 -0.000232378728546668 -3.66644233697375e-05
"170" -5.70791213929013e-05 -0.000805794483444666 0.000385696378880956 -0.000207569784617246 -0.000302316952258518 -0.000228690226956149 -0.000245984565791711 0.000217485376110592 -0.000472787555801213 0.000145777479596171 -0.000256063373854254 0.000300174323286713 5.43319647761611e-05 -0.000704518376571941 -0.000243811874532946 -6.98664989465497e-05
"171" -8.95201649806066e-05 -0.000843002065944762 0.000393077654670507 -0.000241019681065412 -0.000311076542162702 -0.000234511284679543 -0.000255297144914432 0.000207452164178012 -0.000504738545627933 0.000125173763799482 -0.000259637040692631 0.000281461353040824 5.27209784457232e-05 -0.000740030973770171 -0.00025365571000304 -0.000100878398459012
"172" -0.000119287814903323 -0.000877400030444671 0.000400835151508586 -0.000272146863840225 -0.000318901583521184 -0.000240013032564365 -0.000264172125578265 0.000199523181781453 -0.000533815536891486 0.000106596623893172 -0.000262755899195333 0.000264675119710212 5.18051508322273e-05 -0.000773989366770162 -0.000261856282012462 -0.000129483541695419
"173" -0.000145991800711189 -0.000908647126701634 0.000408905911175679 -0.000300801806286188 -0.000325662563979156 -0.000245134721298542 -0.00027238643346832 0.00019372195063318 -0.0005598375229963 9.01082197022558e-05 -0.000265378442241014 0.000249873034636991 5.15869564719287e-05 -0.000806045592830542 -0.000268366533899663 -0.00015549693996126
"174" -0.000169282961084476 -0.000936431481316286 0.000417192865289503 -0.000326858018522691 -0.000331246629127943 -0.000249816188477474 -0.000279728898835009 0.000190043965001314 -0.000582641344703268 7.57515164764362e-05 -0.000267467736158161 0.00023708635022565 5.20662064604186e-05 -0.000835867247882234 -0.000273163904910055 -0.000178763946989226
"175" -0.000188873837957562 -0.000960484129038838 0.000425583119240661 -0.000350222673961308 -0.00033554886970575 -0.000254004896573769 -0.000285989251840766 0.000188453844881478 -0.000602099153138364 6.35423270015932e-05 -0.000268984889420479 0.000226317633007521 5.32225275708011e-05 -0.000863130885985311 -0.000276237454600133 -0.000199158645732641
"176" -0.000204511639349564 -0.000980559962953209 0.000433928111039952 -0.000370840880613539 -0.000338489217650879 -0.000257651855000673 -0.000290977228400204 0.000188885620404013 -0.000618111275064861 5.34564066457808e-05 -0.00026989560906366 0.000217549257495536 5.50387748569334e-05 -0.000887537699677614 -0.000277587980950022 -0.000216581691322243
"177" -0.000216000580393441 -0.00099644889805524 0.000442060738948136 -0.000388685657524949 -0.000340001398919073 -0.000260715212352871 -0.00029450431457109 0.000191241797654666 -0.000630601934538563 4.54493481792153e-05 -0.000270161582748384 0.000210728459821697 5.74825717783875e-05 -0.000908804622706072 -0.000277231349119383 -0.000230962507059216
"178" -0.000223185224695463 -0.00100797352978671 0.000449779615181941 -0.000403759458431137 -0.000340040564937228 -0.000263158948026054 -0.00029640702078899 0.000195389754785813 -0.000639528466503064 3.94483384613394e-05 -0.00026975210334247 0.000205781208877161 6.05127271741655e-05 -0.000926674033641728 -0.000275207445294614 -0.0002422621603051
"179" -0.00022595751929639 -0.00101498880953544 0.000456864846004949 -0.00041610401273929 -0.000338587230515957 -0.000264956709458 -0.000296536126208074 0.000201176104845203 -0.000644872425286405 3.53472524899356e-05 -0.000268632805870445 0.000202609246381926 6.40867692557687e-05 -0.000940910849570017 -0.000271555195537976 -0.000250469804326378
"180" -0.000224257514080984 -0.00101737890396585 0.00046307113100487 -0.000425783399249558 -0.000335649001904036 -0.000266087079168628 -0.000294765811988116 0.000208412764339341 -0.000646649038558197 3.30203028578169e-05 -0.000266777705079566 0.000201087831992846 6.81456655345327e-05 -0.000951313973946727 -0.000266342705347706 -0.000255599218320441
"181" -0.000218057487114149 -0.00101505717798812 0.000468130323843557 -0.000432886625700677 -0.000331242229803525 -0.000266536526330762 -0.000290985805132447 0.000216891269513098 -0.000644900872777453 3.23151420965641e-05 -0.000264162989952075 0.000201069827324574 7.26329518178544e-05 -0.000957705077903892 -0.00025963950882052 -0.000257695262228919
"182" -0.000207373666559715 -0.00100796955759071 0.000471765781173236 -0.000437532530073335 -0.000325413704437102 -0.000266302502188869 -0.000285105171716855 0.000226381164191426 -0.00063969986476194 3.30518314352886e-05 -0.000260770597745834 0.000202395317287149 7.74736786852715e-05 -0.000959938406739359 -0.000251539424480255 -0.000256827256863297
"183" -0.000192256225706581 -0.000996083909277127 0.000473678935068754 -0.000439857045977061 -0.000318229824862977 -0.000265384691885404 -0.000277060943809107 0.000236635515909713 -0.000631146198707001 3.50351725343159e-05 -0.000256586084696563 0.000204878738143188 8.25951796960626e-05 -0.00095790465657224 -0.00024214564526667 -0.000253090529098182
"184" -0.000172793720675838 -0.000979400121804851 0.000473572100514972 -0.000440011145542786 -0.000309764865309374 -0.000263792022417832 -0.00026680125435462 0.000247394881503239 -0.000619366792334128 3.80557643401463e-05 -0.000251599760620571 0.000208322151053297 8.79190291955419e-05 -0.000951517742224017 -0.000231569912180372 -0.000246609560552442
"185" -0.000149092656161011 -0.000957936408189162 0.000471142762526701 -0.000438166839752293 -0.000300103395362667 -0.000261537357822414 -0.00025429232363107 0.000258394880116991 -0.000604515826273988 4.18826066733184e-05 -0.000245811644333498 0.00021251730767634 9.33598005996996e-05 -0.000940727910490066 -0.000219944518401873 -0.000237528051880627
"186" -0.000121296836062509 -0.000931742328262817 0.000466092250555435 -0.000434498893675656 -0.000289339290795343 -0.000258635107209138 -0.000239518263828333 0.000269365189900204 -0.000586781621874089 4.62743298716743e-05 -0.00023921625108819 0.000217253584978606 9.88295061016427e-05 -0.000925516716476552 -0.000207408434709129 -0.000226017812851146
"187" -8.95804183833898e-05 -0.000900881452218335 0.000458135679190554 -0.000429187932896492 -0.000277566135599688 -0.000255108382150147 -0.00022247260769119 0.000280042291015313 -0.000566372566938057 5.09881966533376e-05 -0.000231826346484003 0.000222309665495744 0.000104233503840019 -0.000905894537064237 -0.000194112501507662 -0.000212274357764223
"188" -5.41225118868455e-05 -0.00086543961885694 0.000447004080272051 -0.000422421884175846 -0.000264872188732483 -0.000250977098826048 -0.000203164078096836 0.000290171457055431 -0.000543523255113151 5.57649954679579e-05 -0.000223648502372528 0.000227462587156252 0.00010948357365914 -0.000881906468720429 -0.000180217778625509 -0.00019651656719204
"189" -1.51368319745585e-05 -0.000825518093296823 0.000432453509493663 -0.000414381334173343 -0.000251334863565768 -0.000246264241074963 -0.000181610298347314 0.000299513358195244 -0.000518497110782968 6.03494809749995e-05 -0.00021470126125115 0.000232498113964272 0.000114479551512616 -0.000853627339247604 -0.000165899780201998 -0.000178983421026261
"190" 2.71463135499938e-05 -0.00078122958701044 0.000414271406835187 -0.000405247168786072 -0.000237020003034557 -0.000240992424989217 -0.000157833457925724 0.0003078442437794 -0.000491578008610211 6.44832905368592e-05 -0.000205007911918665 0.000237199350400768 0.000119124953119806 -0.000821165305321304 -0.000151336123880275 -0.000159935521815013
"191" 7.24877581116888e-05 -0.000732702592937111 0.000392287688490231 -0.000395186190769281 -0.000221979061741339 -0.000235185264097936 -0.000131864828342401 0.00031496712134085 -0.000463079559298089 6.79069114096491e-05 -0.000194593847935267 0.000241358805919964 0.000123322978895355 -0.00078465340873602 -0.000136720550206281 -0.00013965628184786
"192" 0.000120629469192865 -0.00068006410356189 0.000366374710580787 -0.000384359762941878 -0.000206241637990391 -0.000228864627539165 -0.000103746079275311 0.000320711290801225 -0.000433336299078372 7.03662395550911e-05 -0.000183495691179125 0.00024478071540219 0.000126973358270835 -0.000744265257026155 -0.000122248027509999 -0.000118446422051203
"193" 0.000171302561235264 -0.000623447373871972 0.000336458198855444 -0.000372913819877413 -0.000189818166411339 -0.000222046478619934 -7.35160165916877e-05 0.000324940777999904 -0.000402702622295101 7.16059134214398e-05 -0.00017175641012313 0.000247281930554914 0.000129974700800646 -0.000700203868908159 -0.0001081255969236 -9.66274053325952e-05
"194" 0.000224224335889632 -0.000562984505502562 0.000302523276833456 -0.000360982024400405 -0.000172699457169655 -0.000214755398875633 -4.12291370245747e-05 0.000327546607660147 -0.000371558035126162 7.13817491052416e-05 -0.000159427794658772 0.000248684031232685 0.000132225796948491 -0.000652704607707058 -9.45673645254064e-05 -7.45370790893935e-05
"195" 0.000279103860819095 -0.00049880163331954 0.000264618222249796 -0.000348681131963363 -0.000154854880159298 -0.000207008602654139 -6.94569228100451e-06 0.000328458698094526 -0.00034029690067879 6.94467773310736e-05 -0.000146568818634982 0.000248826905013738 0.000133618758390871 -0.000602042863578056 -8.17885351951908e-05 -5.25270049595468e-05
"196" 0.000335647290665442 -0.00043101167359727 0.000222856139263796 -0.000336116276723769 -0.000136234392316666 -0.000198823912742949 2.92621888831278e-05 0.000327638908281583 -0.0003093367999156 6.55624953922533e-05 -0.00013325403010432 0.000247557273315791 0.000134046601932446 -0.000548522344669961 -7.00142223617767e-05 -3.09645439334922e-05
"197" 0.000393536458164318 -0.000359724357053488 0.000177424429356665 -0.000323374209544477 -0.000116779739839831 -0.000190225050323679 6.73077156978153e-05 0.000325085770830578 -0.000279109196352186 5.94948888494368e-05 -0.000119560889365674 0.000244741429406576 0.00013339908500635 -0.00049249236421762 -5.9464445594913e-05 -1.02252033343051e-05
"198" 0.000452448845593968 -0.000285033966288577 0.000128576145667462 -0.000310528013799417 -9.64168445544145e-05 -0.000181230608678066 0.000107088262205986 0.000320824081161658 -0.000250053972328989 5.10186083533303e-05 -0.000105590293754716 0.000240250914992482 0.000131564236005527 -0.000434334512523548 -5.03731926052641e-05 9.30216654325567e-06
"199" 0.000512048039012761 -0.000207023951906423 7.6640823912412e-05 -0.000297639432955566 -7.50703048996162e-05 -0.000171869739251538 0.000148483815048326 0.000314912888796812 -0.000222618009493589 3.9909776693312e-05 -9.1444537694184e-05 0.000233973335520704 0.000128423314819656 -0.000374466423480485 -4.29571860519197e-05 2.72304350638727e-05
"200" 0.000571986351539584 -0.000125771361445032 2.20026596349434e-05 -0.000284755637790373 -5.26632155069506e-05 -0.000162170135983385 0.000191349384684702 0.000307434628815151 -0.000197249867691107 2.5962074927395e-05 -7.72471379755446e-05 0.000225806497593578 0.0001238633874528 -0.000313337224077849 -3.74401212760744e-05 4.31711327732787e-05
"201" 0.000631894580154837 -4.13466448329215e-05 -3.48855019892138e-05 -0.000271914115730177 -2.9127269543135e-05 -0.000152164854627021 0.000235514880307229 0.000298494305064943 -0.000174395571699546 8.98259897031145e-06 -6.31218140189248e-05 0.000215663343966193 0.000117769347160773 -0.000251427108814038 -3.40225906358275e-05 5.67453501367611e-05
"202" 0.000691387115450648 4.61639224902479e-05 -9.35210483705242e-05 -0.000259140387310099 -4.41019419970701e-06 -0.000141894316427399 0.00028078696910717 0.000288216767246561 -0.000154478248255288 -1.1209078645897e-05 -4.92082115131535e-05 0.000203472148095979 0.000110031947381632 -0.000189244353805651 -3.29037893633437e-05 6.75874337045649e-05
"203" 0.000750054837851643 0.000136663081472092 -0.000153365923036471 -0.000246455029685639 2.15267293938442e-05 -0.00013139951446586 0.000326938078468853 0.000276738927097945 -0.000137901788382 -3.47610854832517e-05 -3.56506636175284e-05 0.000189179874140868 0.000100547870886164 -0.000127310088965656 -3.42534418082263e-05 7.53535822742682e-05
"204" 0.000807465148172196 0.000230013692536187 -0.000213852466928465 -0.00023386757763985 4.86954458451168e-05 -0.000120727328528726 0.000373719289824558 0.000264206733065857 -0.000125029788778514 -6.17843677812633e-05 -2.2593174155573e-05 0.000172750392964625 8.92316774965213e-05 -6.61552589225934e-05 -3.82111112556664e-05 7.97351766653423e-05
"205" 0.000863173357892945 0.000326039778139358 -0.000274399694713859 -0.000221385608701017 7.70840143109122e-05 -0.000109927308102311 0.000420855105227756 0.000250773091361633 -0.000116182046030045 -9.23579731501445e-05 -1.01777370352241e-05 0.000154179125692451 7.60170065712997e-05 -6.3084570715189e-06 -4.48864865134675e-05 8.0464544163228e-05
"206" 0.000916697620996096 0.000424491097824521 -0.000334433632624169 -0.000209003774411301 0.000106642642728157 -9.90488708392612e-05 0.000468039795856006 0.000236589170388634 -0.000111612859883664 -0.000126497867004459 1.4581620792895e-06 0.000133489425225437 6.08604532017948e-05 5.17143370009408e-05 -5.43497889230231e-05 7.73244979604197e-05
"207" 0.000967548995273602 0.000525042018927722 -0.000393403727032544 -0.000196712773528849 0.000137290613252748 -8.81409191600509e-05 0.000514955595380188 0.000221805935271096 -0.00011151417759818 -0.000164165355661585 1.21993374274753e-05 0.00011073717552021 4.37496148851498e-05 0.000107424007729118 -6.66150541626734e-05 7.01630220484841e-05
"208" 0.00101521646089918 0.000627271498362019 -0.00045079168385903 -0.000184496894888581 0.00016891790868697 -7.72503232946855e-05 0.000561263767381799 0.000206578224365311 -0.000115988963723386 -0.00020525174297683 2.19328737440555e-05 8.60240687257542e-05 2.47159101288807e-05 0.000160366641368154 -8.1648194947196e-05 5.88917119130635e-05
"209" 0.00105917638538636 0.000730660289448181 -0.000506123134356158 -0.000172334324086824 0.000201385893907363 -6.64163672034857e-05 0.000606618080092059 0.000191045584487095 -0.000125057913079363 -0.000249568276245162 3.05827941262922e-05 5.94907625182078e-05 3.82590111651842e-06 0.000210136691428008 -9.93558666519213e-05 4.35033558206291e-05
"210" 0.00109891068366515 0.000834583117563452 -0.000558990620784775 -0.000160194487690732 0.000234514896418947 -5.56752785369566e-05 0.000650661887795073 0.000175346840961802 -0.000138652397645708 -0.000296858372525524 3.80889059357959e-05 3.13215192183102e-05 -1.88100681063182e-05 0.000256379437453434 -0.000119591616525126 2.40653864778952e-05
"211" 0.00113391093359403 0.0009383178545449 -0.000609043314055115 -0.000148040384557141 0.000268109416217396 -4.50524269778484e-05 0.000693050383723933 0.000159613476617631 -0.000156605413662646 -0.000346777789659979 4.44158911728055e-05 1.74921941422719e-06 -4.30348510124169e-05 0.000298810950141196 -0.000142142476681454 7.24572006785126e-07
"212" 0.00116368649735301 0.00104105202148246 -0.000655999675371949 -0.00013582737883064 0.000301953047313627 -3.45664377802725e-05 0.000733433365376945 0.000143974061954423 -0.000178668128709268 -0.000398918933100737 4.95643821370941e-05 -2.89570603993679e-05 -6.86429212881123e-05 0.000337204689188764 -0.00016674833404043 -2.62866039469021e-05
"213" 0.00118777569017064 0.00114189895077877 -0.00069964373059713 -0.000123506717918868 0.000335805134099696 -2.42248434071991e-05 0.000771480041552761 0.000128551499103007 -0.000204502076045832 -0.000452804265396041 5.35485590176553e-05 -6.04794750002646e-05 -9.53972796517069e-05 0.000371402016327849 -0.000193092238375432 -5.66725416104794e-05
"214" 0.00120577142594714 0.00123992444821797 -0.000739814214975419 -0.000111021981473442 0.000369414915068786 -1.40297683188595e-05 0.000806874339414637 0.000113460165124853 -0.000233705303701165 -0.000507900035952177 5.64154479731004e-05 -9.24785558376491e-05 -0.000123023409060649 0.000401310148332286 -0.00022082124352882 -9.00658682107922e-05
"215" 0.00121731407969401 0.00133417353135742 -0.000776409057033978 -9.83168821959474e-05 0.000402530343220566 -3.97367276184443e-06 0.000839321279798364 9.88134123796893e-05 -0.000265800369924783 -0.00056362843700451 5.82272540395661e-05 -0.000124579218251305 -0.000151217552163916 0.000426892678263853 -0.000249537380914704 -0.000126043644281959
"216" 0.00122213298964692 0.00142369576317527 -0.000809358587103953 -8.53248132259303e-05 0.000434890809886714 5.95629668291482e-06 0.000868552416222231 8.47246340403719e-05 -0.000300268657236289 -0.000619389175269519 5.90600530055633e-05 -0.000156396546074888 -0.000179656168363529 0.000448171620701983 -0.000278830011843343 -0.000164138958231233
"217" 0.00122001745177302 0.00150757417593637 -0.000838637035939221 -7.19847827361177e-05 0.000466248955239975 1.57803595398889e-05 0.000894325110476816 7.13017763833713e-05 -0.000336556287908198 -0.000674558485053056 5.89998421739949e-05 -0.000187525511391868 -0.000208005915465453 0.000465214095976277 -0.000308262885602304 -0.000203848804237784
"218" 0.00121086194081926 0.00158494947201802 -0.00086423272294049 -5.8231486378577e-05 0.000496356380964308 2.55172795059973e-05 0.000916432557340133 5.86537580955905e-05 -0.000374086309430072 -0.000728522261381357 5.81487710237537e-05 -0.000217573331131163 -0.000235925452031956 0.000478133765206162 -0.000337406179084259 -0.000244652590102903
"219" 0.00119464403652866 0.00165505396909068 -0.00088615649731849 -4.39995509936231e-05 0.000524980106252571 3.51944176139449e-05 0.000934700185233421 4.68903740390637e-05 -0.000412268939533743 -0.000780666805853125 5.65971747009197e-05 -0.000246142041275857 -0.000263084390067154 0.000487075396858281 -0.00036582178509918 -0.000286010437771075
"220" 0.00117145232265562 0.00171721250046916 -0.000904422909511749 -2.92274366797319e-05 0.000551911102510283 4.48332710396839e-05 0.000948994785683131 3.61204695594384e-05 -0.000450523568629112 -0.000830407737793317 5.44475413583872e-05 -0.000272852192954839 -0.000289158325524097 0.000492222324856788 -0.0003930954649041 -0.000327390546110009
"221" 0.00114145915886078 0.00177087405112073 -0.000919047414689332 -1.38551878884279e-05 0.000576955578995068 5.44574466844553e-05 0.000959215533282396 2.64478215175397e-05 -0.000488276396319084 -0.000877191111713793 5.17884372814483e-05 -0.000297340605685171 -0.000313840627561008 0.000493773958002135 -0.000418831101038306 -0.000368261355340459
"222" 0.00110494056195428 0.00181560944874506 -0.00093004983414106 2.17557944251518e-06 0.000599941212841063 6.40919599038071e-05 0.000965306355798765 1.79843665919026e-05 -0.000524978809907179 -0.000920501397627982 4.87083808440057e-05 -0.000319271918919912 -0.000336850382234289 0.000491959376947254 -0.000442658348252468 -0.000408116040248371
"223" 0.00106226070502656 0.00185112798760646 -0.000937448562130487 1.89145272394687e-05 0.000620719933227195 7.37521882826682e-05 0.000967245197785944 1.08333278424916e-05 -0.000560107988802845 -0.000959869708125908 4.52856241941782e-05 -0.0003383401485271 -0.000357933194235268 0.000487023451521229 -0.000464240406693371 -0.000446463401972905
"224" 0.00101386198693846 0.00187726002834268 -0.000941258470980595 3.6410126270642e-05 0.000639174084766886 8.34533567505701e-05 0.000965053787685215 5.09340926680328e-06 -0.000593177427361876 -0.000994878288622605 4.15906803846341e-05 -0.000354265334409627 -0.000376862874266478 0.000479220947051356 -0.000483283466869815 -0.000482846379258361
"225" 0.000960264850370866 0.00189398144640901 -0.000941493491061611 5.47023054951573e-05 0.000655206695739691 9.32047233107185e-05 0.00095879384533975 8.66992378295322e-07 -0.000623736889321558 -0.00102515886819907 3.7680898117251e-05 -0.000366812533174429 -0.000393449526113647 0.00046882667945534 -0.000499531386205133 -0.000516839648549104
"226" 0.000902047261176221 0.00190137905611291 -0.000938167386077875 7.38269252405207e-05 0.000668743467733991 0.000103008919764367 0.000948565999410433 -1.75983802944514e-06 -0.000651378125948395 -0.00105040096917278 3.3608809193964e-05 -0.000375778092216844 -0.000407539421792148 0.000456120224822873 -0.00051277136527578 -0.000548058451934258
"227" 0.000839847231198267 0.0018996587128005 -0.000931305293041865 9.38080078121798e-05 0.000679740423402689 0.000112863410319251 0.000934497776280909 -2.70540304853128e-06 -0.000675736391326121 -0.00107035026360852 2.94116985160936e-05 -0.000381000995815678 -0.000419015413451518 0.000441389055728769 -0.000522842681751077 -0.000576154690930254
"228" 0.000774332993897828 0.00188912669546945 -0.000920937708013105 0.00011466308013645 0.000688169611792589 0.000122758862735495 0.000916761712142434 -1.900122160222e-06 -0.000696495287692704 -0.0010848037885644 2.51177349751988e-05 -0.000382359885754861 -0.000427797124519861 0.000424926811837176 -0.000529622826255886 -0.000600825176271125
"229" 0.000706208911222025 0.00187019395586448 -0.000907105673659937 0.000136400199842742 0.000694025285858388 0.000132671768218824 0.000895547633955462 7.16162473351279e-07 -0.000713381138927336 -0.00109362308700058 2.0746355490444e-05 -0.000379774221468779 -0.000433848783740475 0.000407028589843215 -0.000533049536941407 -0.00062181100140358
"230" 0.000636190510793822 0.00184333492047344 -0.0008898634330754 0.000159016359358308 0.000697318970706398 0.000142578284328451 0.00087108317531207 5.18312984241318e-06 -0.000726172622461537 -0.0010967191176881 1.63098429889986e-05 -0.000373214293948079 -0.00043716552555949 0.000387989495467774 -0.000533097691708343 -0.000638901461821797
"231" 0.000565006181808172 0.00180910895777881 -0.000869290154808169 0.000182497545405776 0.000698080605263337 0.000152441708626425 0.000843613901478409 1.15253811096818e-05 -0.000734689201838909 -0.00109406343940132 1.18040279245566e-05 -0.000362683690508164 -0.000437784092625467 0.00036810188266389 -0.000529793436593053 -0.000651926060416951
"232" 0.000493375332935111 0.00176811891252038 -0.000845485519680201 0.000206818997119644 0.000696347483287338 0.000162215716192611 0.000813404008009217 1.97508979133399e-05 -0.000738800114725206 -0.00108567829046798 7.22690684166981e-06 -0.000348234670094611 -0.000435778542379955 0.000347657066606985 -0.000523207625113232 -0.000660765908795872
"233" 0.000422010941808499 0.00172101543708407 -0.00081856663357083 0.000231940883690048 0.000692175372389633 0.000171843383354363 0.000780739986891798 2.98461115307454e-05 -0.000738421871102851 -0.00107164036783241 2.55905262215066e-06 -0.000329962922473837 -0.000431258162258023 0.000326932206622627 -0.000513456922713682 -0.00066534287599089
"234" 0.00035160656915849 0.0016684799925862 -0.000788683367508871 0.000257812591584848 0.000685618648948133 0.000181264843300062 0.000745907856774825 4.1775587458608e-05 -0.000733511848317429 -0.00105208029220996 -2.21776899278953e-06 -0.000308003199852457 -0.000424366061087676 0.000306199063381033 -0.000500699921986321 -0.000665630091159672
"235" 0.00028282787272715 0.00161121739313619 -0.000756004715683659 0.000284367395437561 0.00067675034501809 0.000190407023098723 0.000709215059082726 5.54849993537413e-05 -0.000724080613856031 -0.0010271779298993 -7.13603267046789e-06 -0.00028253543488258 -0.00041527221653222 0.000285720580072859 -0.000485133591318691 -0.000661638375282876
"236" 0.000216320505003862 0.00154994325705594 -0.000720740210984574 0.000311522733500205 0.00066563422003966 0.000199187985329822 0.000670963530310899 7.08988687727145e-05 -0.000710171942541812 -0.000997160516359967 -1.22280586219619e-05 -0.000253775937743698 -0.000404181910967631 0.000265738742882928 -0.000466989781071741 -0.000653422807509268
"237" 0.000152687250988219 0.00148537326842889 -0.000683110951535629 0.000339190570938237 0.000652350700455261 0.000207520769983666 0.00063146277874713 8.79163400955388e-05 -0.000691876855791774 -0.000962306669486907 -1.75315782963189e-05 -0.000221978855148863 -0.000391324808521961 0.00024648362204872 -0.000446534814422755 -0.000641081553573129
"238" 9.25030542740407e-05 0.00141822392862173 -0.000643382485612729 0.000367257905932337 0.00063697778120817 0.00021531366638777 0.000591020901001954 0.000106422860150651 -0.000669327443104392 -0.000922937006180962 -2.30869151887591e-05 -0.000187433359654917 -0.000376945443555696 0.000228170411478627 -0.000424063709341331 -0.000624749629365131
"239" 3.62977466774406e-05 0.00134919448555334 -0.000601833740527641 0.000395604590169417 0.000619594038959203 0.000222468504950313 0.000549937333275133 0.000126276371900668 -0.000642692364487843 -0.00087941105464331 -2.89331622858532e-05 -0.000150459486286968 -0.000361312981645627 0.000210991706784552 -0.000399893424122684 -0.00060459554563982
"240" -1.54273717695176e-05 0.00127897137255604 -0.000558780014035798 0.000424096006240467 0.000600281893967553 0.000228881996413983 0.000508509528675479 0.000147323197609189 -0.000612178182622647 -0.000832134643481379 -3.51198236540263e-05 -0.000111408159928927 -0.000344713442971663 0.000195120626859171 -0.000374370994291824 -0.00058082668666697
"241" -6.22154372700971e-05 0.00120821697613585 -0.000514549372018506 0.000452581362675341 0.000579129576837115 0.000234452888379464 0.000467027577635295 0.000169389594141637 -0.000578021087255893 -0.000781544167667242 -4.16857354995453e-05 -7.06554494743114e-05 -0.000327434901117808 0.000180712965883609 -0.00034784910919461 -0.000553676599528214
"242" -0.000103648001962531 0.00113756818837537 -0.000469498032608941 0.000480903495147956 0.000556225118535907 0.000239078902179586 0.000425769062539989 0.000192290830718627 -0.000540498477086191 -0.000728112854971704 -4.86687797534673e-05 -2.85966654222089e-05 -0.000309779683035447 0.000167904058435201 -0.00032069398637596 -0.000523410875725657
"243" -0.000139343816608165 0.00106763117750937 -0.000424001897611096 0.000508892944914155 0.000531661456756005 0.00024265924367646 0.00038500084191741 0.000215828062897897 -0.000499908805173054 -0.000672340962497329 -5.61060711690124e-05 1.43512576436616e-05 -0.000292043231432904 0.000156802248260491 -0.000293283187589347 -0.000490319111783802
"244" -0.000168962683240933 0.000998979092157736 -0.000378446214608683 0.000536368155586144 0.000505547360051486 0.000245097689327147 0.000344983633603841 0.000239799116547854 -0.000456586127100031 -0.000614754398616932 -6.40323805609153e-05 5.77643321531579e-05 -0.000274530541906956 0.000147499691227602 -0.000265993560264258 -0.000454712076958311
"245" -0.000192200815035261 0.000932157225635764 -0.000333225551772271 0.000563143103759245 0.00047798870668046 0.000246304275644819 0.000305959588538621 0.000263989348135867 -0.000410879204987985 -0.000555893723873951 -7.24674383487707e-05 0.000101209226061122 -0.000257528673297213 0.000140070820782574 -0.00023919739233794 -0.00041692575608541
"246" -0.000208784555659241 0.000867667522958117 -0.000288746556480913 0.000589026758069882 0.000449111891612184 0.000246198899217049 0.000268168672576232 0.000288189901527293 -0.000363170006585161 -0.000496323644047011 -8.14282191769302e-05 0.000144249458265128 -0.000241321647274855 0.000134565696107273 -0.000213263313955028 -0.000377305582597401
"247" -0.000218490670429724 0.00080598202325083 -0.000245412260212283 0.000613822780374685 0.000419055405205835 0.000244708638229 0.000231835318270759 0.000312188097229757 -0.000313847098285328 -0.000436614142098242 -9.09243008612969e-05 0.000186446986020605 -0.0002261750484088 0.00013101733106935 -0.000188548643718801 -0.000336215238359799
"248" -0.000221132141091961 0.000747525408553466 -0.000203625577186132 0.000637340703591484 0.000387970664068875 0.000241776305291873 0.000197168784733978 0.000335778060479817 -0.0002633284943892 -0.000377335058578213 -0.000100951349709576 0.000227376333172568 -0.000212340705449977 0.000129440534851562 -0.00016539206919373 -0.000294028407445871
"249" -0.000216549807921227 0.000692692154101322 -0.000163776390074752 0.000659384955722154 0.000356031318266971 0.000237355212811648 0.000164381171582789 0.000358763630171716 -0.000212032608151326 -0.000319064220004363 -0.000111498130294975 0.000266622088789761 -0.000200048771061532 0.000129833058194657 -0.000144119571288615 -0.000251126681973023
"250" -0.000204635481132859 0.000641837574172828 -0.000126239119398555 0.000679767617302185 0.000323431129827351 0.000231416513897228 0.000133659575404673 0.000380958997336178 -0.000160396902541606 -0.000262365844046911 -0.000122535722680396 0.000303785912559773 -0.000189508903577388 0.000132175251173097 -0.000125028495893606 -0.000207899576187066
"251" -0.000185313877620958 0.00059527064638069 -9.13698712231335e-05 0.000698306562798988 0.000290378136882156 0.000223947305952035 0.000105192868230279 0.000402194778309585 -0.00010885968493171 -0.000207792893829723 -0.00013403157894145 0.000338489509502451 -0.000180901452195369 0.000136430564910692 -0.000108399849340306 -0.000164734416661
"252" -0.000158557633482966 0.000553272473480272 -5.94989269235883e-05 0.000714834310883235 0.000257103748957098 0.000214950175347136 7.9146058130429e-05 0.000422317193587864 -5.78672297718403e-05 -0.000155882207217754 -0.000145943411310663 0.000370378195440596 -0.00017438754800421 0.000142545035385271 -9.44824928073336e-05 -0.000122021171046648
"253" -0.000124387407868351 0.000516075441775175 -3.09216478877975e-05 0.000729192496993806 0.000223856866284849 0.000204443733618221 5.56814585274308e-05 0.000441193689436919 -7.86359790205579e-06 -0.000107142921614163 -0.000158207445844414 0.000399129697222309 -0.000170098424099905 0.000150452848526436 -8.35016596429853e-05 -8.01508181087279e-05
"254" -8.28709272926415e-05 0.000483879153683483 -5.89965125357725e-06 0.000741238679409205 0.000190907310965362 0.00019246642670272 3.49446740269652e-05 0.000458707403560533 4.07103400483619e-05 -6.20607587963826e-05 -0.000170766999892653 0.00042444661178816 -0.000168138456221144 0.000160066753961073 -7.56490360321353e-05 -3.95065198979699e-05
"255" -3.4125606361843e-05 0.000456843103233327 1.53445018732091e-05 0.000750845327486644 0.000158523561070369 0.00017906952376843 1.706077270809e-05 0.000474765800591481 8.74177293578882e-05 -2.10823877397225e-05 -0.000183547001222279 0.000446071097209707 -0.000168588806788275 0.00017128689227712 -7.10912267226657e-05 -4.60247518180285e-07
"256" 2.16711398822807e-05 0.000435094295194091 3.26408464653796e-05 0.000757908744623078 0.000126995065718824 0.000164321858545699 2.13730064698802e-06 0.000489295217387742 0.000131831248103347 1.53847608667029e-05 -0.000196471304919088 0.000463775109908775 -0.000171500930008449 0.00018399479370531 -6.99662603051209e-05 3.66210040184299e-05
"257" 8.42758164555276e-05 0.000418711902796518 4.58612526790964e-05 0.000762337474594803 9.66040092312421e-05 0.000148302779442858 -9.74239625102116e-06 0.0005022399998654 0.000173543274630101 4.69711256243464e-05 -0.000209462715428764 0.000477371473774667 -0.000176905473946828 0.000198053903685592 -7.23749490268557e-05 7.13843751448056e-05
"258" 0.000153381496293515 0.000407742675215758 5.49314577499031e-05 0.000764071354999683 6.76306314547281e-05 0.000131104869968533 -1.85238143878021e-05 0.000513559597769183 0.000212159416763114 7.33584376977894e-05 -0.000222434789487022 0.000486709955726717 -0.000184810495130282 0.00021330752303427 -7.83922389199921e-05 0.000103494869307552
"259" 0.000228614560409071 0.000402202501255048 5.98223898443673e-05 0.000763060405261646 4.03409960601592e-05 0.000112827954915614 -2.41811404968751e-05 0.000523236837473121 0.000247300216292947 9.42790744586404e-05 -0.000235312822821664 0.00049167020648365 -0.000195199006456955 0.000229580334073644 -8.80633072795506e-05 0.00013262997588041
"260" 0.000309517869593983 0.000402064551340185 6.05660959554282e-05 0.000759282119004482 1.49782682288321e-05 9.35790048444366e-05 -2.67248298654754e-05 0.000531256129163157 0.000278617532563205 0.000109512850077228 -0.000248018855398645 0.000492174117215646 -0.000208042320442286 0.000246678566668006 -0.000101404989276641 0.000158491205619039
"261" 0.000395558171997544 0.000407257343657691 5.72403348162289e-05 0.000752736419944785 -8.23311082370199e-06 7.34716200894175e-05 -2.62091329265091e-05 0.000537617686471724 0.000305797584786867 0.000118898890199624 -0.000260480372854433 0.000488177505340923 -0.000223284586598201 0.000264388709137939 -0.000118404609104908 0.000180806193619545
"262" 0.000486120911498882 0.000417689652797681 4.99681844645251e-05 0.000743438071733363 -2.91153372126235e-05 5.26164382728804e-05 -2.27266544001219e-05 0.000542328028060253 0.000328545351819374 0.000122333257142345 -0.000272634092660578 0.000479669474276897 -0.000240861831910784 0.000282477401756789 -0.000139018804173823 0.000199324343077076
"263" 0.000580514529358118 0.000433214640821755 3.89289261475708e-05 0.000731426423104793 -4.75235268069154e-05 3.11289819514443e-05 -1.64126295317164e-05 0.000545394900863191 0.000346614703769142 0.000119765013343679 -0.000284424014273701 0.000466673371321182 -0.000260695769828977 0.000300689737541896 -0.000163178423317716 0.00021382713143814
"264" 0.000677963321555592 0.000453661997961076 2.43454848228786e-05 0.000716756616760865 -6.33510741452753e-05 9.12277857321647e-06 -7.44926736443461e-06 0.000546827813054235 0.000359789702074944 0.000111207338265989 -0.000295802335893197 0.000449245444122424 -0.000282687692061091 0.000318755952742825 -0.00019078332738052 0.000224126906638346
"265" 0.000777626638451678 0.000478819533094831 6.46680542176077e-06 0.000699498205067267 -7.65551897785322e-05 -1.32964418813055e-05 3.93514549802697e-06 0.000546634368714611 0.000367904909003526 9.67229263626805e-05 -0.000306734427804588 0.000427466876995157 -0.000306739282996857 0.000336392292739744 -0.000221713576535072 0.000230068359342827
"266" 0.000878587913172159 0.000508437190615147 -1.44119572496838e-05 0.000679741141790344 -8.71346659141207e-05 -3.60228082187715e-05 1.74700729056123e-05 0.000544824687045226 0.000370836067710996 7.64347904821837e-05 -0.000317192319101771 0.000401456713958464 -0.000332732627022081 0.000353300631293357 -0.000255812810394912 0.000231540419199591
"267" 0.000979879233427092 0.000542229985757843 -3.79662829663525e-05 0.000657584945411442 -9.5133040250195e-05 -5.89564645844278e-05 3.28511828538276e-05 0.000541402719786736 0.000368504817602968 5.05212203235546e-05 -0.000327156046149645 0.000371354008225352 -0.000360536405180858 0.000369175118292529 -0.000292906496318644 0.000228461483970968
"268" 0.00108048283223643 0.000579884813523352 -6.38563816074542e-05 0.000633139206801059 -0.000100653051970688 -8.20023024510061e-05 4.97287616900253e-05 0.000536372411738986 0.000360883051447357 1.92078378236414e-05 -0.000336622347105218 0.000337326074426629 -0.000390016592275088 0.000383702721566756 -0.000332788818745976 0.000220801847103772
"269" 0.00117935681432988 0.000621043149715302 -9.1715925977762e-05 0.000606528555601182 -0.000103830959454634 -0.000105070326544444 6.77351744197005e-05 0.000529734408697221 0.000347996824203325 -1.72255647844336e-05 -0.000345584378634242 0.000299572354973466 -0.00042102078803447 0.000396573966430404 -0.000375233739679446 0.000208565136850841
"270" 0.00127544171524129 0.000665331665990228 -0.000121170982593442 0.000577884025052951 -0.000104848114165429 -0.000128071461344994 8.64739878810771e-05 0.000521492033746595 0.000329918163684349 -5.84512510795126e-05 -0.000354050938079755 0.000258310452688448 -0.000453385967851403 0.000407482405035819 -0.000419990165630742 0.000191806348625166
"271" 0.00136768289002725 0.000712333713193627 -0.0001518383735268 0.000547343378782118 -0.000103918354136155 -0.000150924179850467 0.000105535096380787 0.000511652259379074 0.000306768668164682 -0.000104106816842472 -0.000362029185033151 0.000213787890672708 -0.00048694143607103 0.00041612987938735 -0.00046677975083511 0.000170622669570286
"272" 0.00145504847900978 0.000761617720517035 -0.000183337680312122 0.000515051482485314 -0.000101273891670307 -0.000173542225007982 0.000124506344918238 0.000500225223758888 0.000278721028772377 -0.000153778249457711 -0.000369527874506427 0.000166270884243481 -0.000521495791448519 0.000422236341558017 -0.000515306503541665 0.000145153265476731
"273" 0.00153655179024965 0.000812727052669914 -0.00021528553392839 0.000481161776988262 -9.71734534996339e-05 -0.000195844424162346 0.000142979281109062 0.000487236265097709 0.000245989263207102 -0.000207027528598785 -0.000376558556192076 0.000116054596022998 -0.000556851312525745 0.000425539654164559 -0.000565255260381963 0.000115587721686455
"274" 0.0016112608603413 0.000865191519806947 -0.000247311642164837 0.000445829503954566 -9.18735918878575e-05 -0.000217743184880663 0.000160559941704469 0.000472717568433453 0.000208836300865422 -0.000263382838985087 -0.000383132894680127 6.3451175280159e-05 -0.00059279265041046 0.000425808888378992 -0.000616293366130783 8.21499949902275e-05
"275" 0.00167832676151304 0.000918523013872791 -0.000279053741085628 0.000409212314895089 -8.56408407532417e-05 -0.000239154053278224 0.000176871254731538 0.000456716902981845 0.000167564948896735 -0.000322345746021749 -0.000389254031693792 8.7939852373378e-06 -0.000629091855899487 0.00042283776504321 -0.000668069130923096 4.51099988414691e-05
"276" 0.0017369886888792 0.000972234123446534 -0.00031016198087142 0.000371476365729191 -7.87245747407208e-05 -0.000259984872781227 0.000191566033330004 0.000439297746990897 0.000122513979841732 -0.000383397790234632 -0.000394927238087229 -4.75625051658921e-05 -0.000665511451203401 0.00041645791358593 -0.000720221010599947 4.76899823535141e-06
"277" 0.00178659892301586 0.00102583096815986 -0.000340311516440514 0.000332786530127173 -7.13643519204477e-05 -0.000280142227725781 0.000204342990425062 0.000420544087024761 7.40514096359702e-05 -0.000446004089447344 -0.000400147150701371 -0.000105248219775158 -0.000701802027402913 0.000406538521962833 -0.000772381787041142 -3.85326232416032e-05
"278" 0.0018266238428441 0.00107882609581754 -0.000369182236536877 0.000293315654751045 -6.37787689119015e-05 -0.00029952676198847 0.00021493109085238 0.000400562081864504 2.25821021485655e-05 -0.000509619320450272 -0.000404902014754132 -0.000163878827105553 -0.000737703068169221 0.000392989763673807 -0.000824173270690165 -8.44289945461499e-05
"279" 0.00185665107901636 0.0011307429575279 -0.000396484818890539 0.00025323792454773 -5.61529284250963e-05 -0.000318032244930175 0.000223116687945568 0.000379479254745032 -3.1480401160926e-05 -0.00057369334599338 -0.000409174170481887 -0.000223057292793429 -0.000772948985383108 0.000375768611992168 -0.000875214061258068 -0.000132531868387023
"280" 0.00187640203438054 0.00118111953310694 -0.000421943326616046 0.000212726527439621 -4.86490072820124e-05 -0.00033555503287043 0.00022873044784884 0.000357437656723821 -8.76923905063825e-05 -0.000637674188700503 -0.000412945365859417 -0.000282377357947886 -0.000807267305787993 0.00035487288274502 -0.000925134770684988 -0.000182430594900539
"281" 0.00188572816011188 0.00122951177187458 -0.000445308937123267 0.0001719600142754 -4.13867540847301e-05 -0.000351980026623331 0.000231665409328594 0.000334605730991121 -0.000145607329231122 -0.000701016755631984 -0.000416182899529662 -0.000341428313214243 -0.000840388708408454 0.000330347363854708 -0.00097356063746809 -0.000233704486311857
"282" 0.00188460632619795 0.00127550609904816 -0.00046635057015889 0.000131118160042531 -3.44594544746995e-05 -0.000367198760238474 0.00023186030631748 0.000311168726555477 -0.000204764878726817 -0.000763180370604067 -0.000418848410173119 -0.000399801141631643 -0.000872039519522443 0.000302282076509133 -0.00102013026898873 -0.000285926192623157
"283" 0.00187313520246946 0.00131871052761976 -0.000484858955300327 9.03790624242618e-05 -2.79233166599663e-05 -0.00038109621983777 0.000229313319578086 0.000287324831328013 -0.000264705999200994 -0.000823645210665079 -0.000420907012821465 -0.000457082168852753 -0.000901961543399504 0.000270808844809927 -0.00106449941651184 -0.00033866285823626
"284" 0.00185153273262085 0.00135877327104373 -0.00050065036576473 4.99223989275009e-05 -2.17955797129981e-05 -0.000393560720313265 0.000224068210368608 0.000263284749038253 -0.000324978943508849 -0.000881905251959691 -0.000422311202646342 -0.000512869707838765 -0.000929896439329247 0.000236100761878964 -0.00110633967340833 -0.000391487263678203
"285" 0.00182011370843412 0.00139537128717206 -0.000513560839135058 9.92731207278668e-06 -1.60764856001025e-05 -0.000404486564079069 0.000216220064983689 0.000239267759803361 -0.000385138781240723 -0.000937480482137033 -0.000423022924672463 -0.000566777460009792 -0.00095560364606884 0.000198367530058665 -0.001145347484227 -0.000443988263704161
"286" 0.00177929624590242 0.00142822161773245 -0.000523448968775568 -2.94371624349584e-05 -1.07304414829522e-05 -0.000413770340946301 0.000205910121921742 0.000215499170997734 -0.000444749164521429 -0.000989920310150352 -0.000422995475209576 -0.000618431223623587 -0.000978861692440463 0.000157856865322004 -0.00118124297147642 -0.000495758752705067
"287" 0.0017295659359236 0.00145708237161322 -0.000530204163744137 -6.79960669196834e-05 -5.70988283876353e-06 -0.000421321346492038 0.000193310428611014 0.000192196177477186 -0.000503399221690449 -0.00103880155468247 -0.000422191343924122 -0.000667481935980805 -0.000999469110559184 0.00011484243925884 -0.00121377697753516 -0.00054641872713664
"288" 0.00167148126259762 0.00148175139069353 -0.000533732162107843 -0.000105590394461216 -9.53118087318219e-07 -0.000427059025389452 0.000178628574836532 0.000169575371279593 -0.000560696638862611 -0.0010837473732602 -0.000420574975502197 -0.000713606774600018 -0.00101725191013634 6.96181177321986e-05 -0.00124273470630616 -0.000595612342202536
"289" 0.00160564915097037 0.00150205990552474 -0.000533965381428495 -0.000142065106005458 3.60223620077868e-06 -0.00043091602842266 0.000162093069479108 0.000147834402521534 -0.000616271425845951 -0.0011244104510976 -0.00041812056141466 -0.000756519656634081 -0.00103206196303019 2.25024735469631e-05 -0.00126794053612206 -0.000643008135871204
"290" 0.00153271875198627 0.00151789366063411 -0.000530870250240724 -0.000177274358380917 8.02203861104473e-06 -0.000432843219770831 0.000143948342085997 0.00012715631110475 -0.000669788432230153 -0.00116049662776747 -0.0004148143613372 -0.000795966758465306 -0.00104378648587387 -2.61829927167243e-05 -0.00128925056263088 -0.000688306807170827
"291" 0.00145335772196847 0.00152917057218693 -0.000524434425970684 -0.000211087877993591 1.2358765573955e-05 -0.000432810663623452 0.000124449707640492 0.000107706077020908 -0.000720943572026592 -0.00119175298429176 -0.000410651558593315 -0.000831734267545715 -0.00105234753805591 -7.6103618191377e-05 -0.00130656770698527 -0.000731242229803414
"292" 0.00136825749956247 0.00153585580959669 -0.000514672820985527 -0.000243388465668134 1.66472027773443e-05 -0.000430806364850416 0.000103846868569501 8.96138708208863e-05 -0.000769465391184758 -0.00121798398522559 -0.000405642291486799 -0.000863663053475056 -0.00105769815561651 -0.00012693154729063 -0.00131983838645043 -0.00077158481513971
"293" 0.00127810182257587 0.00153794466085613 -0.00050163269021886 -0.000274074615415576 2.08955524641257e-05 -0.00042684341155759 8.23875166974041e-05 7.29795412406954e-05 -0.000815114500500596 -0.00123903289986701 -0.000399815095280223 -0.000891627888901295 -0.00105983976000647 -0.000178344094868794 -0.00132904532807251 -0.000809138325917303
"294" 0.00118357515083128 0.00153548799396267 -0.000485392637403277 -0.000303062188217155 2.50862630728783e-05 -0.000420956482677126 6.03064325158896e-05 5.78762428912561e-05 -0.00085769569840127 -0.00125481011990893 -0.000393209299163984 -0.000915564915681406 -0.00105879774709783 -0.000230027855542326 -0.0013342237908635 -0.000843743803780687
"295" 0.00108535353815293 0.00152856132447847 -0.000466059382137597 -0.000330286922431105 2.91681525847334e-05 -0.00041320618731311 3.78210489587859e-05 4.43335156884715e-05 -0.000897043865558391 -0.00126527318934669 -0.000385887994082978 -0.000935451376135926 -0.00105464801292019 -0.00028169206568685 -0.00133543756192933 -0.000875280361762565
"296" 0.000984079405060605 0.0015172860350471 -0.000443769438303231 -0.000355702450448072 3.30552677939222e-05 -0.000403672779747444 1.51203966489189e-05 3.23467680571427e-05 -0.000933034638953486 -0.00127043207675795 -0.000377920147187612 -0.000951322970841027 -0.00104749170895859 -0.000333059862991751 -0.00133280147539207 -0.000903658634259008
"297" 0.000880386643822847 0.00150181910470417 -0.000418686364920583 -0.000379284235172759 3.66301286949005e-05 -0.000392460842221652 -7.62232396170265e-06 2.18776622444833e-05 -0.000965580133591163 -0.00127035100107014 -0.000369399149406774 -0.000963257437988178 -0.00103746963152445 -0.000383881841274346 -0.00132646089560471 -0.000928825520505413
"298" 0.000774874990465701 0.00148234569876511 -0.000391012833665662 -0.000401024681682088 3.9743694507711e-05 -0.000379690832367252 -3.02630977337878e-05 1.28518720079151e-05 -0.000994623540900089 -0.00126514036039016 -0.000360424566607329 -0.000971382232028714 -0.00102475219541991 -0.000433924068636644 -0.00131659223978738 -0.000950758992619335
"299" 0.000668114102120684 0.00145908538846944 -0.000360963653436877 -0.000420940847416223 4.22207064247616e-05 -0.000365506172432359 -5.26783317581125e-05 5.16353236908164e-06 -0.00102014761049973 -0.00125496537513497 -0.000351107946597278 -0.000975860899506146 -0.00100952958501078 -0.000482987780642033 -0.0013034084979362 -0.000969467062138244
"300" 0.000560642817469871 0.00143228483154793 -0.000328791066400603 -0.000439060114652282 4.38697112529123e-05 -0.000350061479050678 -7.47685071353991e-05 -1.31725794721035e-06 -0.00104215447602185 -0.00124002799624563 -0.000341566013451834 -0.000976898615812999 -0.000992021367317414 -0.000530887187241883 -0.00128713556447329 -0.000984985055798865
"301" 0.000452973756902406 0.00140221592048723 -0.000294757158823545 -0.000455435092579392 4.44852969186538e-05 -0.000333520200701745 -9.64547683548315e-05 -6.74652356194714e-06 -0.00106068831436182 -0.00122056890102403 -0.000331918107549598 -0.000974732672472197 -0.000972458064663055 -0.000577458867625503 -0.00126802474642125 -0.000997370099566538
"302" 0.00034557687970355 0.00136917477387477 -0.000259146768415718 -0.000470123804040249 4.38639698566311e-05 -0.000316053991819872 -0.000117668969834499 -1.12958905288414e-05 -0.00107580388271304 -0.00119686873867043 -0.000322280181237286 -0.00096962442450592 -0.000951081340477938 -0.000622559828584931 -0.00124634179615588 -0.0010067037830957
"303" 0.000238908824526465 0.0013334690592623 -0.000222262842208813 -0.000483203912435005 4.18082067267638e-05 -0.000297837172250278 -0.000138353008019433 -1.51406364296754e-05 -0.00108759422339545 -0.00116923406265192 -0.000312767356138947 -0.000961850087840205 -0.000928141477952916 -0.000666062951280621 -0.00122235691749328 -0.00101308970497117
"304" 0.000133385348485853 0.00129542594243016 -0.000184410345973945 -0.000494759280565841 3.81393611830911e-05 -0.00027904423610823 -0.000158456091757788 -1.84690501456021e-05 -0.00109616171590609 -0.00113799956376173 -0.000303485583414829 -0.00095170536631031 -0.000903887967973773 -0.000707847971476828 -0.0011963456050954 -0.00101664148992902
"305" 2.94019970751353e-05 0.00125538035684497 -0.00014590220531224 -0.000504881640496015 3.27158600898661e-05 -0.000259838675270017 -0.00017792007523476 -2.14585876667836e-05 -0.00110162991876332 -0.00110351417993094 -0.000294523399021377 -0.000939486251907748 -0.000878564914220906 -0.00074781107804153 -0.00116858079428212 -0.00101749455939908
"306" -7.2661977422327e-05 0.00121367909178786 -0.000107041907026095 -0.000513666420717282 2.54211577062493e-05 -0.000240378266797349 -0.000196686304434232 -2.4275589590724e-05 -0.00110413933779515 -0.00106614581652364 -0.000285959943486195 -0.000925493763152682 -0.00085241131754469 -0.000785844860276451 -0.00113933924864651 -0.00101578792314378
"307" -0.000172453190110155 0.00117066908797494 -6.81403462479552e-05 -0.000521208686678436 1.62005274688912e-05 -0.00022080407334229 -0.000214680513554517 -2.70752923850116e-05 -0.00110384286684218 -0.00102627200018054 -0.000277849184966498 -0.000910018210828059 -0.000825650170730076 -0.000821853280431331 -0.00110888009745646 -0.00101167960305811
"308" -0.000269624855229094 0.00112669999684973 -2.94854164979414e-05 -0.000527604769271122 5.04118793792679e-06 -0.000201245291355763 -0.000231816409297537 -2.99874957220337e-05 -0.001100910846087 -0.000984277295182356 -0.00027023666118451 -0.000893341667371461 -0.000798487723245848 -0.000855733778530134 -0.00107745765043032 -0.00100532990123824
"309" -0.000363842384007894 0.00108212195413922 8.65444475020312e-06 -0.000532947092852841 -8.00081248911929e-06 -0.000181807257497644 -0.000247986207423335 -3.31183456173441e-05 -0.00109551833045648 -0.000940548168655828 -0.000263138020975487 -0.000875733868139688 -0.000771120700469281 -0.000887393014150193 -0.00104531358442979 -0.000996911007920269
"310" -0.000454772158275476 0.00103728438353114 4.60262904969169e-05 -0.000537322287887673 -2.28098273199679e-05 -0.000162577525279487 -0.000263058847820215 -3.65343185435681e-05 -0.00108785792327647 -0.000895470049623496 -0.000256553944683978 -0.000857443957166601 -0.000743719915654597 -0.000916724431108064 -0.00101268296535982 -0.000986596134530966
"311" -0.000542090744034718 0.000992521607391936 8.24067576188377e-05 -0.000540807770847238 -3.92073788755868e-05 -0.00014362241494299 -0.000276889442597301 -4.02805843809836e-05 -0.00107812371920394 -0.000849423368382376 -0.00025046384561566 -0.000838702110002139 -0.000716433474009581 -0.000943630230383189 -0.000979774655208792 -0.000974565749933865
"312" -0.000625462577147945 0.000948176376476866 0.000117606378781275 -0.000543474327956232 -5.69478112532866e-05 -0.000124979108513429 -0.000289305889726296 -4.43552710802644e-05 -0.00106653087196227 -0.000802786890819323 -0.000244826131463618 -0.000819710996104502 -0.000689391570342895 -0.000968006164221134 -0.000946794906850548 -0.00096099970693988
"313" -0.000704564815268755 0.000904572423252603 0.000151462250506416 -0.000545382488121388 -7.57279816633105e-05 -0.000106669265328726 -0.000300114320128802 -4.87275307059322e-05 -0.00105328999294761 -0.000755923787404577 -0.000239585382365238 -0.000800659468674801 -0.000662702928438566 -0.000989749480120932 -0.000913932630800206 -0.000946086152454702
"314" -0.000779055372259379 0.000862026845357523 0.000183854024432589 -0.00054657992653507 -9.51787525810558e-05 -8.86850743616012e-05 -0.000309103214246348 -5.33238006307325e-05 -0.00103862779254801 -0.000709191761352205 -0.000234664105877013 -0.000781700325924302 -0.000636451917286861 -0.00100875934100816 -0.000881363294255295 -0.000930010312323822
"315" -0.000848606363862841 0.000820849494721367 0.000214696872464132 -0.000547106072211859 -0.000114882120049105 -7.10027342567904e-05 -0.000316049321338103 -5.80423497963145e-05 -0.00102277372646234 -0.000662933150661475 -0.000229979275486208 -0.000762970358365719 -0.000610709966449414 -0.00102493205843033 -0.000849244976225077 -0.000912956387578678
"316" -0.000912877119329034 0.000781332630565719 0.000243945991198542 -0.000546986199080903 -0.000134379022782987 -5.35750323330321e-05 -0.000320710086089263 -6.27442827860842e-05 -0.00100596061347575 -0.000617475998570378 -0.000225432097877703 -0.000744582752668015 -0.000585518438092645 -0.00103817922036842 -0.000817728362147387 -0.000895109930331221
"317" -0.00097154625908873 0.000743755218649053 0.000271588373409023 -0.000546243040500907 -0.000153166309679711 -3.63377625632508e-05 -0.000322851387288912 -6.72661523400132e-05 -0.000988425618341393 -0.000573126418285251 -0.000220915106486318 -0.000726623267816287 -0.000560912837770049 -0.00104840779864076 -0.000786948584123757 -0.000876652062815358
"318" -0.00102429187956328 0.000708389292376265 0.000297658450793587 -0.000544880510700221 -0.000170724426658244 -1.92121635829953e-05 -0.000322225212812902 -7.14203909286856e-05 -0.000970406015837957 -0.000530179718706968 -0.000216319116338002 -0.000709159532824376 -0.000536906623185782 -0.00105554705577108 -0.000757032206562275 -0.00085776247628035
"319" -0.00107081566520497 0.000675481671169589 0.000322213224703862 -0.000542900538768637 -0.000186518007610415 -2.10706487023924e-06 -0.000318598462339169 -7.50028600212538e-05 -0.000952138548456384 -0.000488907418709137 -0.000211530028966906 -0.000692246195470373 -0.000513501921428191 -0.00105952781725319 -0.00072808675441655 -0.00083861441038157
"320" -0.00111085911593321 0.00064525599482358 0.000345345619989546 -0.000540293213659084 -0.00020000855396841 1.50770060835089e-05 -0.000311755731070523 -7.78004506197121e-05 -0.000933850494346873 -0.000449555349855443 -0.000206431751657929 -0.000675911624349306 -0.000490690077898793 -0.00106030113895008 -0.000700210589265206 -0.000819376166750618
"321" -0.00114418183146675 0.000617916949758818 0.000367180921139661 -0.00053704720958676 -0.000210675942824835 3.24425691456283e-05 -0.000301499409974205 -7.95952230662812e-05 -0.000915762480886908 -0.000412344802883411 -0.00020091681288831 -0.000660178478236438 -0.000468450242643669 -0.00105783167498466 -0.000673487263238115 -0.000800208314847618
"322" -0.00117060630078364 0.000593645787663841 0.000387856064428273 -0.000533145806206966 -0.000218023599449943 5.00980593207912e-05 -0.000287664062493077 -8.01774123835541e-05 -0.000898086882288059 -0.000377467949092382 -0.000194882635663083 -0.000645054442736677 -0.000446758897101098 -0.00105210824324952 -0.000647988469709577 -0.000781258691502843
"323" -0.00119001760654308 0.000572584960069135 0.000407536953017525 -0.000528570281967621 -0.000221593913075359 6.81447579829381e-05 -0.000270127205567572 -7.93461893479222e-05 -0.000881012713053445 -0.000345095540013358 -0.000188234551612878 -0.000630536420476571 -0.000425585553038309 -0.00104313443279807 -0.000623771372632006 -0.00076266696525415
"324" -0.00120235936726955 0.000554851703958786 0.000426385296907214 -0.000523295956202737 -0.000220992201653813 8.66774237771493e-05 -0.000248802395340563 -7.6924692882593e-05 -0.000864711373338941 -0.000315352180294114 -0.000180887343441219 -0.000616618032123563 -0.000404896618988168 -0.00103093820983198 -0.000600876722866475 -0.000744561452399625
"325" -0.00120766732691998 0.000540525223181657 0.000444587307395289 -0.000517306515201453 -0.000215874917540644 0.000105785743157419 -0.000223666504990637 -7.27603000592761e-05 -0.000849333859708948 -0.000288339032240791 -0.000172769818771995 -0.000603286740500919 -0.00038465904563048 -0.00101557097333553 -0.000579325351425642 -0.000727051212574442
"326" -0.0012060524062599 0.00052963951858261 0.000462312887074418 -0.00051058214443352 -0.000205978571933173 0.000125540503248613 -0.000194741141776287 -6.67355033961532e-05 -0.000835002517768796 -0.000264117448484433 -0.000163825178780163 -0.000590524433058778 -0.00036483909091501 -0.00099710428110291 -0.000559128944431912 -0.000710230453123608
"327" -0.00119772451600995 0.000522196237432656 0.000479734025323814 -0.000503110969559257 -0.000191127531925468 0.000146001160907078 -0.000162113501053075 -5.87720436846708e-05 -0.000821802795767243 -0.000242714032448434 -0.000154007777310077 -0.000578314381542828 -0.000345400343650006 -0.000975633716503212 -0.000540276923609344 -0.000694176770587212
"328" -0.00118298051165572 0.000518141934214807 0.000497008187225405 -0.000494881258933899 -0.000171229633155899 0.000167209712952844 -0.000125933786754741 -4.88308800713698e-05 -0.000809795498654315 -0.000224115544586263 -0.000143292890314627 -0.00056663670182453 -0.000326313972921822 -0.000951283315818203 -0.000522737125616479 -0.000678948786399183
"329" -0.0011622069254055 0.000517388399640629 0.000514276199014821 -0.000485891414937332 -0.000146275420075635 0.000189187310710777 -8.64055542458301e-05 -3.69172756931071e-05 -0.000799010130730338 -0.000208270419392497 -0.000131670065388841 -0.00055547464258339 -0.000307549524064376 -0.000924187989107834 -0.0005064701261757 -0.000664582348336553
"330" -0.00113589215093414 0.000519796599490334 0.000531663503897201 -0.000476144559673079 -0.000116362959578843 0.0002119386671265 -4.3792755235794e-05 -2.30829090630784e-05 -0.000789433136720202 -0.000195095851828484 -0.000119140441038839 -0.000544809307320912 -0.000289081894618035 -0.0008945105152696 -0.000491404885552113 -0.000651092441997169
"331" -0.0011045792865572 0.000525192622212535 0.000549264915064167 -0.000465654007139329 -8.16646529328944e-05 0.000235446385328146 1.58062464927706e-06 -7.41751502776798e-06 -0.000781025167785006 -0.000184468786424025 -0.000105724799956299 -0.000534624444968821 -0.000270882712636304 -0.000862432549366619 -0.00047746606518591 -0.000638477735686481
"332" -0.00106889892807029 0.000533353020041913 0.000567156364196306 -0.000454437250224699 -4.24432909766482e-05 0.00025967704152916 4.93440136889542e-05 9.94123044851229e-06 -0.000773709679335479 -0.00017623487157981 -9.14580210004794e-05 -0.000524899313636255 -0.00025293457640544 -0.000828144838122172 -0.000464553213253874 -0.00062671022135697
"333" -0.00102953115231321 0.000544024357978214 0.000585384941812739 -0.000442521042576528 9.63964694816933e-07 0.000284579288677851 9.90909257950539e-05 2.8826982838401e-05 -0.000767387397288838 -0.00017021176966103 -7.63849876207675e-05 -0.000515621139497734 -0.000235213913670829 -0.000791864660330869 -0.000452553283993611 -0.000615745682229024
"334" -0.000987193744830207 0.000556924927616289 0.000603970366551699 -0.000429944009137971 4.81516424689271e-05 0.00031008142779305 0.0001503718949753 4.90365712764827e-05 -0.000761923065254378 -0.00016619006690894 -6.05625849832615e-05 -0.0005067730493577 -0.000217704770305626 -0.000753811443717853 -0.000441345224107746 -0.000605518178770139
"335" -0.000942628867093888 0.000571741659291918 0.000622908820537827 -0.000416749424273372 9.86576974190107e-05 0.00033610256518307 0.000202715035798106 7.03442117530028e-05 -0.000757168504832795 -0.000163941277405851 -4.40628575218913e-05 -0.00049833468937045 -0.000200388901383959 -0.000714220298271332 -0.000430790308851765 -0.000595948817374262
"336" -0.000896592856113336 0.000588145116725075 0.000642170488009076 -0.000402986115693354 0.00015197467430194 0.000362546829360813 0.000255633373768142 9.25049282654376e-05 -0.000752950735652683 -0.000163217837934797 -2.69626288455107e-05 -0.000490290560490709 -0.000183252838666364 -0.000673332655773708 -0.000420746018401391 -0.000586939596128894
"337" -0.000849823085455185 0.000605799083651382 0.000661705471828234 -0.000388715830690968 0.000207555987769278 0.000389308099314241 0.000308633065064906 0.00011526093117489 -0.000749087087446052 -0.000163756358595341 -9.35181234442933e-06 -0.000482617095749459 -0.000166281336288249 -0.000631396111319227 -0.00041106525809901 -0.000578382798960093
"338" -0.000803035791665378 0.000624355879097339 0.000681445456062524 -0.000374000164283807 0.000264841223890989 0.000416273295052359 0.000361222996082594 0.000138346119217364 -0.000745392795304642 -0.000165298049751215 8.67522556745007e-06 -0.000475291763386149 -0.000149463269226271 -0.000588666542125071 -0.000401600961211585 -0.000570161047700257
"339" -0.000756903975455214 0.000643473579239672 0.000701304930100197 -0.000358909386108241 0.000323254651332831 0.000443322331774574 0.000412920648215583 0.000161505602409155 -0.000741664901603363 -0.000167566307027283 2.702385399956e-05 -0.000468287664094259 -0.000132787106378985 -0.000545392486068045 -0.000392199077833056 -0.000562150383168487
"340" -0.000712047761898901 0.000662815458378847 0.000721186117262829 -0.000343513453563788 0.000382220649131985 0.000470327862889579 0.000463264708529295 0.000184479035255627 -0.00073771712904757 -0.000170299081004923 4.55878232672909e-05 -0.000461580303372065 -0.000116245224953375 -0.000501830457981889 -0.000382717937463071 -0.000554218965608464
"341" -0.000669026375414866 0.000682070176852877 0.000740981911954948 -0.000327887955448208 0.000441172810943869 0.000497164383392174 0.000511823575305093 0.000207028185549157 -0.000733363140775513 -0.000173235577173374 6.42585137963938e-05 -0.000455135205131935 -9.98329692299431e-05 -0.000458234845481622 -0.000373018206260602 -0.000546238800562662
"342" -0.0006283198491947 0.000700928220920629 0.000760577862369021 -0.000312109144780763 0.000499570588533381 0.000523704710489349 0.000558192404466844 0.000228927911202438 -0.000728428151812984 -0.000176120127646585 8.29236984411025e-05 -0.000448916883006263 -8.35438310463804e-05 -0.000414852762009429 -0.000362967435232551 -0.000538084319799025
"343" -0.000590333031311272 0.000719121366258388 0.000779863855521493 -0.000296252257827967 0.000556888884645424 0.000549820349549172 0.000602010391105562 0.00024997380824347 -0.000722748883480472 -0.00017872047169653 0.000101480253107564 -0.000442888172772607 -6.73808724464841e-05 -0.000371927015159306 -0.000352455719628359 -0.000529631676285617
"344" -0.000555388323352257 0.000736393344768361 0.000798719580869656 -0.000280390232444159 0.000612647839894846 0.000575384581511305 0.000642956469715501 0.000269989239534647 -0.00071618117652185 -0.000180811239827485 0.000119810344851361 -0.00043701106715942 -5.13500779137775e-05 -0.000329694088507355 -0.000341369773977458 -0.000520765183235744
"345" -0.00052372505965121 0.000752529143924637 0.000817031322033191 -0.000264594258728956 0.000666398916463082 0.000600275381618038 0.000680753615929877 0.000288819607519959 -0.000708602162565845 -0.0001821941592695 0.000137809203239455 -0.00043124048381805 -3.54592944837007e-05 -0.000288385324218566 -0.000329625672630264 -0.000511380489081518
