"V1" "V2" "V4" "V5" "V7" "V8" "V10" "V11" "V13" "V14" "V15" "V17" "V18" "V20" "V21" "V23"
"1" 0.00116265710635053 0.00011105756503657 0.000867661016132581 0.00109919026586746 1.2769555798345e-05 0.00165180308658602 0.00035960567126996 0.00394873744333312 -0.00968708665109243 0.000915460152270769 -0.00545074606331195 0.00243845649239093 0.00261644365321599 0.000292144356039015 -0.000908182531036802 0.00147273589186531
"2" 0.0011329966704503 0.000121379346967549 0.000972881818693083 0.00108785114718269 3.79314971384864e-05 0.00161362504005548 0.000366723509341993 0.00389151148847858 -0.0095711557937224 0.00089057992730122 -0.00548320200371526 0.0023881589767033 0.00262416262284291 0.000280596852770818 -0.000891677438452396 0.00148395669209999
"3" 0.00110430605916773 0.000132415652341183 0.00107888395021227 0.00107594283099861 6.40286857732506e-05 0.00157238415680649 0.000371443585183016 0.00382502253978105 -0.00945395356614155 0.000863014074469896 -0.00549069649232554 0.0023306028145154 0.00262748298849104 0.000267596720975594 -0.000874015792396286 0.00149537437899975
"4" 0.00107658620666486 0.000144133209837485 0.00118524486216843 0.00106340245618383 9.08519317854602e-05 0.00152834534180993 0.000373708177654629 0.00374975387354984 -0.00933582803030648 0.000832709600286752 -0.0054721741753722 0.00226601749838501 0.00262617206961736 0.00025317195732741 -0.000855307018321479 0.00150668781024961
"5" 0.00104980030985862 0.000156508776266161 0.00129156141501358 0.00105014091223214 0.000118167339032121 0.00148178415316163 0.000373484732064373 0.00366625970678203 -0.0092171051555987 0.000799625891237779 -0.00542655444726592 0.00219470770086595 0.00262005555085727 0.000237392836250817 -0.000835671816091354 0.00151755291133163
"6" 0.00102394638910348 0.000169495553219736 0.00139739901903566 0.00103609726274322 0.000145748444655051 0.0014329970426936 0.000370756369494714 0.00357515405451463 -0.00909810299481661 0.00076375918254582 -0.00535274270057305 0.00211701986707294 0.00260900036197325 0.00022030249046941 -0.000815233644659992 0.0015276745618593
"7" 0.000998972564904593 0.000183051827305635 0.0015023830264932 0.00102119800523 0.000173376330636739 0.00138227588547654 0.000365531273861832 0.00347710842754305 -0.0089791133524032 0.000725141144568647 -0.00524964013684085 0.00203338441092311 0.0025929559299302 0.000201984282497125 -0.000794100672782479 0.00153674952133862
"8" 0.000974839566319245 0.00019712505521997 0.00160611856670107 0.00100538766298867 0.000200818703698095 0.00132993330135215 0.000357831924459163 0.00337284489431735 -0.00886041081763994 0.000683824778059352 -0.00511612249631762 0.00194426348881043 0.00257191161008905 0.000182506962694613 -0.000772406429333237 0.00154448070716845
"9" 0.000951504417109252 0.000211656582468816 0.00170822823972772 0.000988612930459863 0.000227860041019739 0.00127628552712979 0.0003477058944829 0.00326310568964957 -0.00874226092565813 0.000639903180614795 -0.00495103305091083 0.00185018054630109 0.0025459153996866 0.000161955705267479 -0.000750260851039748 0.00155061774542213
"10" 0.000928906112556537 0.000226583688040503 0.0018083828815853 0.000970825943197293 0.000254285126708361 0.00122164262008609 0.000335224747343845 0.00314866249119836 -0.00862488078074258 0.00059349490448445 -0.00475319818639241 0.00175169049351484 0.00251509077159867 0.000140417141616456 -0.000727796299881082 0.00155490742946673
"11" 0.000906986076933556 0.000241838072502965 0.00190625098055541 0.000951997924200452 0.000279894082318338 0.00116632654900666 0.00032047831558612 0.00303029069719921 -0.00850849079844335 0.000544751769012984 -0.00452142448203747 0.00164940418081175 0.00247960183689974 0.000117998004891979 -0.000705115183944853 0.00155713980241451
"12" 0.00088567900457119 0.000257346517883924 0.00200153308869105 0.000932103748089656 0.000304495761859802 0.00111065374446863 0.000303569139980308 0.0029087767461526 -0.00839327916176854 0.000493846705646271 -0.00425446151083707 0.00154394017581312 0.00243966504817098 9.4791388895004e-05 -0.000682342807490992 0.00155712271638807
"13" 0.000864915402633417 0.000273031743393158 0.00209396152714102 0.00091112774513685 0.000327907955312734 0.00105493043615759 0.00028462525249987 0.00278488394092039 -0.00827941897738902 0.000440979770999238 -0.00395102588800708 0.00143595156544021 0.00239553863794121 7.09009120121421e-05 -0.000659587763108118 0.00155469910013761
"14" 0.000844630424177729 0.000288808924079884 0.00218328973983826 0.000889074243138399 0.00034996995047129 0.000999472714496124 0.000263792412000721 0.00265937684379763 -0.00816705536687268 0.000386376983018513 -0.00360982462174023 0.00132609969839904 0.00234752984272699 4.64299901089107e-05 -0.000636959151408681 0.00154974857832664
"15" 0.000824729655779853 0.000304601329800589 0.00226932345489685 0.000865949612055507 0.000370524473236108 0.000944565796006435 0.000241230781812967 0.00253298084526429 -0.00805631520720136 0.000330272191880163 -0.00322947965706625 0.00121507629396723 0.00229597504988642 2.15072961054313e-05 -0.00061455278688164 0.00154216567422167
"16" 0.000805150667795055 0.000320315391005225 0.00235186253642387 0.000841778138819304 0.000389442968115419 0.000890503856374216 0.000217109408971964 0.00240640742115268 -0.00794731790013516 0.000272931907628095 -0.002808599080603 0.00110354366548393 0.00224123353714554 -3.77539362972309e-06 -0.000592470311005985 0.00153190167028596
"17" 0.000785811500724731 0.000335864309239425 0.00243077785694952 0.000816592560757429 0.000406604804654162 0.000837562740751604 0.00019161824343844 0.00228033077419504 -0.00784015285373173 0.000214623984788533 -0.00234575350889743 0.000992179687549758 0.00218370712993135 -2.92919476111965e-05 -0.000570805750592682 0.00151892310529227
"18" 0.000766625157619423 0.00035116087303028 0.00250594943338323 0.000790437724882429 0.000421913276270758 0.000786004640994489 0.000164957420024028 0.00215538897285402 -0.00773489866957203 0.000155629533843173 -0.00183946567678119 0.000881649708342712 0.00212378757722258 -5.49284828784614e-05 -0.000549636341053072 0.00150322783063273
"19" 0.00074752607195469 0.000366111685489285 0.00257728097116828 0.000763383283345369 0.000435291087618985 0.000736082790798557 0.000137330852862979 0.00203219120943396 -0.0076316330230994 9.62434333427985e-05 -0.00128825563235592 0.000772587900595257 0.00206188297465146 -8.05756188382622e-05 -0.000529057261972227 0.00148486537689944
"20" 0.000728435123098398 0.000380623854446378 0.00264472173241993 0.000735490101835232 0.000446669370480228 0.000688029002072084 0.000108954746955796 0.00191129406635029 -0.00753041413291172 3.67614664717546e-05 -0.00069059106855365 0.000665624515107043 0.00199840810905727 -0.000106116135885818 -0.000509131155731271 0.00146389815282045
"21" 0.000709269311934127 0.00039461227123971 0.00270825853181092 0.000706840034436341 0.000456002320218316 0.000642061712794047 8.00509395331462e-05 0.00179323011880572 -0.00743128435910047 -2.25213007775509e-05 -4.49867186028772e-05 0.000561345857537017 0.00193378203035148 -0.000131437209808245 -0.000489934521319778 0.00144041267667024
"22" 0.000689969903285124 0.000407984936604005 0.00276787745182026 0.000677527504206178 0.000463260352863319 0.000598381112538441 5.08383429845785e-05 0.00167848305070614 -0.00733429678554671 -8.1306144701412e-05 0.000650028904116363 0.0004603232800602 0.0018684024709834 -0.000156426437639883 -0.000471524554123465 0.00141454093073355
"23" 0.000670464995405351 0.000420661662363493 0.00282361099204637 0.000647654227355716 0.000468435650447715 0.000557178078872983 2.15463726999792e-05 0.00156750478156712 -0.00723948653878262 -0.000139303647068388 0.00139582008414881 0.00036307687579156 0.00180265525940712 -0.000180977504144007 -0.000453972530864242 0.00138641799898298
"24" 0.000650694158748761 0.000432558748295727 0.00287551709748332 0.000617328475982936 0.000471535607733547 0.000518611607980142 -7.59771467455851e-06 0.00146070541901133 -0.00714688343052859 -0.000196216521644766 0.00219359915812009 0.000270101205785647 0.00173693026965431 -0.000204981133044995 -0.000437313903362093 0.00135622102729289
"25" 0.000630600410339993 0.000443601284978314 0.00292366549123869 0.000586670280439822 0.000472579346725732 0.000482831137726769 -3.63727317422414e-05 0.0013584674504419 -0.00705652579375828 -0.0002517661190692 0.00304428302576894 0.000181839869182309 0.00167158550735975 -0.000228341197829132 -0.000421609370206799 0.00132413218406292
"26" 0.000610126753593594 0.000453714653506875 0.0029681614686423 0.000555800666045168 0.000471599558913451 0.000449966251163679 -6.45590368842143e-05 0.00126112879402433 -0.00696844546000451 -0.000305681379059712 0.00394836507181588 9.87121980512863e-05 0.00160695879583121 -0.00025095401324669 -0.000406900620910848 0.00129035196164293
"27" 0.000589230817706732 0.000462835854411308 0.00300911789917494 0.000524853698711065 0.000468653896827127 0.000420127611913978 -9.19354710228896e-05 0.00116900168614555 -0.00688267353426809 -0.000357692029139682 0.00490561649988632 2.108233699645e-05 0.00154338040623079 -0.000272721161265268 -0.000393211779975348 0.00125510599182329
"28" 0.000567879900361199 0.000470901048203117 0.00304666221027244 0.000493963888519808 0.000463801302831219 0.000393407807886727 -0.000118295532010279 0.00108236847976996 -0.00679925368603042 -0.0004075478790203 0.00591475819271809 -5.0725738188893e-05 0.00148113783764686 -0.000293560343020275 -0.000380592380118067 0.0012186206444586
"29" 0.000546037585189861 0.000477863532254142 0.00308095152977875 0.000463260185008951 0.000457117948565803 0.000369877241312798 -0.000143442025917608 0.00100148056336151 -0.00671820923148048 -0.000455013350667635 0.00697290163615693 -0.00011643132405174 0.00142052718711608 -0.000313387255547718 -0.000369055751833321 0.00118114280154648
"30" 0.000523679113459049 0.000483676094011902 0.00311214092840153 0.000432892834691382 0.000448690764997038 0.000349589705603365 -0.000167180036078214 0.000926554504092542 -0.00663959213795826 -0.000499860445124883 0.00807463384699608 -0.000175790780683123 0.00136179121881334 -0.000332122462251754 -0.000358630941946638 0.00114291556291219
"31" 0.00050079428943914 0.000488301505657925 0.00314039676393576 0.000402987074409316 0.000438615564033352 0.000332582638164981 -0.000189329468497364 0.000857789802109469 -0.00656344382622895 -0.000541874304293911 0.00921074435517435 -0.000228605917973717 0.00130518014800335 -0.000349694925342345 -0.000349328712592755 0.00110420263208416
"32" 0.000477367165771708 0.000491712972630397 0.00316590721586938 0.000373694028324661 0.000426995681838479 0.000318872557452942 -0.00020972276000374 0.000795358276820362 -0.00648981126461285 -0.000580855016452123 0.0103660759896479 -0.000274719301741033 0.00125091049419585 -0.000366040600189002 -0.000341160814506397 0.00106526204339034
"33" 0.000453402420559362 0.00049389460912276 0.00318885255603987 0.000345138949421478 0.00041393939269693 0.000308462386747919 -0.000228206275964783 0.000739405687950632 -0.00641874665036801 -0.000616633707368731 0.0115162343968252 -0.000314016014461022 0.00119918075006029 -0.000381102893552953 -0.000334140133777145 0.00102634223849662
"34" 0.000428902062354958 0.000494837578463382 0.00320941998763244 0.000317459996227931 0.000399568529158713 0.000301335634997983 -0.00024463371283361 0.000690054398409972 -0.00635030787970691 -0.000649031243518228 0.0126219808130478 -0.000346405133518916 0.00115017170635804 -0.000394832396854388 -0.000328259653720495 0.000987712346864101
"35" 0.00040388309818611 0.000494542760101494 0.00322780628326058 0.000290778079749157 0.00038399881376812 0.000297451423537055 -0.00025888510155526 0.000647400635081585 -0.00628454832205695 -0.000677905881983302 0.0136198412090047 -0.000371846399798352 0.00110406399332423 -0.000407191292476673 -0.000323517902002956 0.00094962911428192
"36" 0.000378364567275843 0.000493020149897262 0.00324420019052225 0.000265214812120396 0.00036735534941255 0.000296770473906142 -0.000270848589108954 0.000611525851662311 -0.00622153051821034 -0.000703123262791899 0.0144049745130713 -0.000390331372512796 0.00106099910911065 -0.000418145695148656 -0.000319907275220237 0.000912339920893473
"37" 0.000352379443844932 0.000490290147843203 0.00325879286519817 0.000240886810099196 0.000349766683652019 0.0002992247303576 -0.000280423805660525 0.000582480076704632 -0.00616131629308809 -0.000724568259919053 0.0147976311080881 -0.000401881838768786 0.00102111979296506 -0.000427675651100449 -0.000317413935523331 0.000876092572896757
"38" 0.000325958975500381 0.000486384429192499 0.00327176829817054 0.000217898271058554 0.000331355985700734 0.000304740693316485 -0.00028753952363612 0.000560299346389941 -0.00610397269119173 -0.000742140788161004 0.0144663161061612 -0.000406549925186878 0.000984554554510378 -0.000435761747633055 -0.000316015021168965 0.000841122285382207
"39" 0.0002991391662115 0.000481345181850448 0.00328332972664075 0.000196334374311681 0.000312253885756727 0.000313216321547775 -0.00029213153988597 0.000544987889586516 -0.00604954359780923 -0.00075576615973529 0.0126975648956812 -0.000404424649861098 0.000951431297739936 -0.000442397939428275 -0.000315686732954589 0.000807656125556081
"40" 0.000271979030532705 0.000475212086350853 0.00329363148966756 0.000176293394854826 0.000292581731666511 0.000324555706678021 -0.000294157867060347 0.000536526476263469 -0.00599810934299379 -0.000765372993274586 0.00720662069016972 -0.000395612870289358 0.000921846015990049 -0.00044759688274285 -0.000316402930878356 0.000775919097443897
"41" 0.00024452036342554 0.000468049501961532 0.00330285569015144 0.000157840592529828 0.000272462622567498 0.000338643269279434 -0.000293591797197438 0.000534876282515816 -0.00594971158118999 -0.000770929442141246 -0.0037117614361038 -0.0003802585572225 0.000895892685592038 -0.000451364378992813 -0.000318125040450466 0.000746101676366245
"42" 0.000216820786000827 0.000459919914876767 0.0033111709901228 0.000141046604610886 0.000252018388691111 0.000355349830304606 -0.000290421915360379 0.000539978476737118 -0.00590440734287571 -0.000772402305767823 0.0119179747310232 -0.000358529036881575 0.000873660165044816 -0.000453722092901058 -0.000320818604171445 0.00071839436484307
"43" 0.000188940524151623 0.00045088893104554 0.00331872124256977 0.000125950980804136 0.000231360969753506 0.000374542533210605 -0.000284662738660469 0.000551728028026899 -0.00586223956846256 -0.000769783027222455 0.0157762151158806 -0.000330605262665929 0.000855228508272611 -0.000454698697503405 -0.000324430593918714 0.000692974567112614
"44" 0.000160941746190456 0.00044104253975952 0.00332566307588413 0.000112598753479566 0.000210605589285215 0.000396074428288566 -0.000276336551426276 0.000570016538851207 -0.00582323733939535 -0.000763096869925652 0.015591664958667 -0.000296704730633148 0.000840652793441448 -0.000454332676649383 -0.000328921556872266 0.000669987104881114
"45" 0.000132894922253417 0.000430456184979955 0.00333212247696738 0.000101012315736428 0.000189853484850897 0.000419793008021834 -0.000265484174270786 0.000594695807636452 -0.00578743557555829 -0.000752366243998676 0.0112996812959244 -0.000257070232698176 0.000829987085808639 -0.00045267457578957 -0.000334241673423972 0.000649580308694361
"46" 0.000104853222686511 0.000419220130443578 0.00333822828998537 9.11979795876731e-05 0.000169200705924201 0.000445539006057724 -0.000252171214291412 0.000625585380205353 -0.00575484121975439 -0.000737653163420681 -0.00699403316106583 -0.000211945068573773 0.000823280909345769 -0.000449771001479167 -0.000340322338610996 0.000631858706426035
"47" 7.69008336852936e-05 0.000407422717231417 0.00334408025704315 8.31633519515555e-05 0.000148743755606218 0.000473161192726732 -0.000236468903566836 0.000662481285367721 -0.00572546813586648 -0.000719027261567711 0.00745584055663925 -0.000161613237078488 0.000820535379674468 -0.000445682328241132 -0.000347110718923469 0.00061692085217635
"48" 4.90882903569015e-05 0.000395159437427838 0.00334980262924606 7.68855822794187e-05 0.000128563132841366 0.000502475666264752 -0.000218469837111886 0.000705154835006966 -0.00569928804113269 -0.000696587178473119 0.0126282204945446 -0.000106373369497827 0.000821779901542841 -0.000440479331660716 -0.000354549236260424 0.000604834770983512
"49" 2.1486440188546e-05 0.000382525540615319 0.00335546955466303 7.23371300815504e-05 0.000108736078475325 0.000533319912860577 -0.000198276400824186 0.000753335395558747 -0.00567628043641713 -0.000670451735273143 0.0143858954693053 -4.65363820453687e-05 0.000826994075954553 -0.000434226860281907 -0.000362564163603933 0.000595648921321085
"50" -5.8426454653568e-06 0.000369617260838072 0.0033611632936637 6.94748934715122e-05 8.93299769504204e-05 0.000565516864738257 -0.000176011131997244 0.000806717994697541 -0.00565639872563116 -0.000640757816654335 0.0148012865397406 1.75618467413996e-05 0.00083614553735866 -0.000427004865691357 -0.000371089085105735 0.000589390559778955
"51" -3.28388832057276e-05 0.000356530336597766 0.00336695236772346 6.82477368196756e-05 7.04065161041581e-05 0.00059889876926523 -0.000151802175977643 0.00086498581466033 -0.00563958015820091 -0.000607670715637695 0.0145386445625438 8.55694616313219e-05 0.00084918126176401 -0.000418890089089815 -0.000380066339489291 0.000586047316501339
"52" -5.94402256351298e-05 0.000343354781280049 0.00337287897805829 6.85891071382513e-05 5.20139603346214e-05 0.000633291493471166 -0.000125799210398805 0.000927770370439617 -0.00562575277335214 -0.000571370058644783 0.0139072989652915 0.000157117096405343 0.000866022373273729 -0.000409975180872182 -0.000389416309706806 0.000585602010981841
"53" -8.55986097753472e-05 0.000330185660405855 0.00337899464941035 7.04240817778673e-05 3.41964217311353e-05 0.000668523806093602 -9.81527286983661e-05 0.000994683208550984 -0.00561481254409372 -0.000532056352413833 0.0130746808418462 0.000231826322064965 0.000886564045453519 -0.000400337969517749 -0.000399070590098519 0.000588002461391543
"54" -0.000111262963004646 0.000317112193745442 0.00338533773221423 7.36660361631476e-05 1.69943564564282e-05 0.000704423645140072 -6.90276369682978e-05 0.00106530191100826 -0.00560664350325678 -0.000489954974163482 0.0121382871001185 0.000309290271318815 0.000910676847606904 -0.000390066698438658 -0.000408957875599712 0.000593166836526387
"55" -0.000136392657237105 0.00030422145300943 0.00339192486191272 7.82128371634932e-05 4.23353382405755e-07 0.000740825840411962 -3.85973254813513e-05 0.0011391794743246 -0.00560110699065648 -0.000445313245752818 0.0111571414071446 0.000389105362343825 0.000938192318506123 -0.000379252852004624 -0.000419013441711114 0.000600990673502583
"56" -0.00016094941713519 0.000291588590830017 0.00339877195496334 8.39636950950504e-05 -1.5490984216879e-05 0.000777569169429582 -7.03906141394146e-06 0.00121583822633397 -0.00559805795522741 -0.000398391058704834 0.0101676608017542 0.000470840040726208 0.000968920321990058 -0.000367986343856966 -0.000429165961488784 0.000611350942753433
"57" -0.000184901474316659 0.000279297210211612 0.00340588513063568 9.0800695114163e-05 -3.07409541455377e-05 0.000814489746148051 2.54604868477938e-05 0.0012947812613889 -0.00559731221618288 -0.000349472479245224 0.00919253038014065 0.000554059815854475 0.00100262945145136 -0.000356356765156656 -0.000439350088025424 0.00062409236126603
"58" -0.000208235212843358 0.000267416797956531 0.00341326833155719 9.86066343011626e-05 -4.53258872971943e-05 0.000851446158628779 5.87131055655616e-05 0.00137548916240709 -0.00559869412575951 -0.000298858770781069 0.00824575388383119 0.000638320700261757 0.00103905923307053 -0.000344445226908003 -0.000449507716530101 0.00063902881989214
"59" -0.000230926561797994 0.000256005499846749 0.00342089954328739 0.000107255015133249 -5.92541083172556e-05 0.000888283877240634 9.25258022289912e-05 0.00145742026645695 -0.00560199796271272 -0.000246854185251438 0.00733584965396937 0.000723180386186214 0.00107792314842136 -0.00033234192540314 -0.000459566644371539 0.000655979619459366
"60" -0.000252968685090049 0.000245126594912989 0.00342878592978092 0.000116619163440796 -7.25266384909732e-05 0.000924866615879802 0.000126708807566149 0.00154003095177524 -0.00560700620424996 -0.00019378320334064 0.00646772193498996 0.000808174306961201 0.00111889825692564 -0.000320128321834302 -0.000469479020373691 0.000674720275058536
"61" -0.000274361762065604 0.000234828674030507 0.00343688934144647 0.000126559914494653 -8.51678504886477e-05 0.000961062369768213 0.000161072138682787 0.00162275672530545 -0.00561348643647731 -0.000139983714010784 0.00564397621353892 0.00089285241145524 0.00116162419081944 -0.000307883342349627 -0.000479184201184133 0.00069501441937995
"62" -0.00029510978677258 0.000225150743510565 0.00344518947932758 0.00013694975225333 -9.72056926482465e-05 0.000996749431408456 0.000195420711807609 0.00170503882309387 -0.00562121180190553 -8.57935582499378e-05 0.00486565314694119 0.000976758283332955 0.00120572224552778 -0.000295684973577664 -0.00048864162709274 0.000716620681566537
"63" -0.000315231035158666 0.000216131396367333 0.00345367217201314 0.000147646411661252 -0.000108660171001326 0.00103180979457733 0.000229574074822609 0.00178631552025134 -0.00562992114192382 -3.15559131849189e-05 0.00413278335789997 0.00105945366731014 0.00125079209798388 -0.000283594445974127 -0.000497791814073133 0.000739268885458533
"64" -0.0003347467471775 0.000207798675685926 0.00346230781735282 0.000158520474599363 -0.00011957145929416 0.00106613613529858 0.000263347022773945 0.0018660399911344 -0.00563936680896229 2.23770313309215e-05 0.00344476581851726 0.0011404869621891 0.00129640087944943 -0.000271690775112536 -0.000506611006059958 0.000762686390612145
"65" -0.000353684169459467 0.000200169365803431 0.00347106244505053 0.000169436494519546 -0.000129972521098476 0.00109962972601175 0.00029657044537336 0.0019436649593749 -0.00564928806234775 7.56726641524344e-05 0.00280056191930072 0.0012194494290282 0.0013421140522623 -0.000260028644236547 -0.000515048495406848 0.0007866003480821
"66" -0.000372082912175745 0.00019325406718903 0.00347991484096698 0.000180267519425347 -0.000139906742152293 0.00113219726086017 0.000329074673115855 0.00201868122308401 -0.0056594285377951 0.000127988828433842 0.00219887397500511 0.00129592505665512 0.00138746911337604 -0.000248665185038633 -0.000523084823166733 0.000810723129741015
"67" -0.000389985009321094 0.000187056774950788 0.00348884081640137 0.000190884205063398 -0.000149414560740643 0.00116376263724319 0.000360704229791274 0.0020905890927212 -0.00566953168185516 0.000178997950104569 0.00163824484738355 0.00136953479780393 0.00143201840042099 -0.000237645446870752 -0.000530687776755139 0.000834772869730898
"68" -0.000407434969172248 0.000181568408730466 0.00349781229426335 0.000201172180000166 -0.000158539193514534 0.00119424724463924 0.000391312659709397 0.0021589307097998 -0.00567933847531389 0.000228398804185703 0.00111713378848434 0.0014399208529907 0.00147530913174439 -0.000227019957520157 -0.000537833834211406 0.000858473061246567
"69" -0.000424497764154152 0.000176782600765144 0.00350681924341102 0.000211014157564652 -0.000167331751540973 0.00122358811582735 0.000420766070351421 0.00222329042592565 -0.00568859177998197 0.000275881385927733 0.000633968941554285 0.00150675329180718 0.00151689171408317 -0.000216826577142766 -0.000544513881597423 0.000881539409331529
"70" -0.000441224262873166 0.000172674014607039 0.00351583162984518 0.000220300866140685 -0.000175835090127888 0.00125172655412215 0.000448939913526484 0.00228327382891961 -0.00569705700077951 0.00032118224981063 0.00018719029550244 0.00156974644084631 0.00155634293982466 -0.000207097588231455 -0.000550713393609467 0.000903724718887892
"71" -0.000457678352133354 0.000169212616382929 0.00352484131973376 0.000228941226710379 -0.000184094455278362 0.00127861966953034 0.000475729346618483 0.00233855655042778 -0.0057044973327672 0.000364046452746805 -0.000224783271313046 0.0016286425833335 0.0015932511514056 -0.000197862383783845 -0.000556425713594604 0.000924773036949114
"72" -0.000473936285104138 0.000166368996889485 0.0035338569649692 0.000236843143762622 -0.000192155667211192 0.00130422057955639 0.000501039978017918 0.00238886091418007 -0.00571067798076475 0.000404248360803011 -0.000603477229965123 0.00168322403947206 0.00162724374353851 -0.000189141778143243 -0.000561658084752749 0.000944438825741039
"73" -0.000490053663731746 0.00016409031445732 0.00354284178382512 0.000243932578747515 -0.000200058083645366 0.00132850446676937 0.000524788244952876 0.0024339521430112 -0.0057154103800465 0.000441603255367187 -0.00095039625435539 0.00173332487235535 0.00165798139625002 -0.000180961847655895 -0.000566407126270849 0.000962532231495491
"74" -0.000506117013607668 0.000162337049799506 0.0035518337009863 0.000250128728444368 -0.000207852850511995 0.00135143478226095 0.000546911482990994 0.00247366020024282 -0.00571847415228428 0.000475940505593094 -0.00126698384348284 0.00177882695600917 0.00168517790129512 -0.000173322038609767 -0.00057067689519259 0.000978840389640479
"75" -0.000522189934545639 0.000161047586857178 0.00356081981433932 0.000255380280565428 -0.000215571988904313 0.00137299358800925 0.000567360990622344 0.00250786630806486 -0.00571970036670763 0.000507132102834518 -0.00155464706979804 0.00181964406454188 0.00170857588986894 -0.000166249454711487 -0.000574488551505662 0.000993214721502978
"76" -0.000538355828832827 0.000160166102835231 0.0035698245947279 0.000259635789109856 -0.000223253988373191 0.00139317833744418 0.000586100753722212 0.00253652213465188 -0.0057189165855905 0.000535085109994526 -0.00181479579236874 0.0018557647031573 0.00172798650541779 -0.000159733319126066 -0.00057784747161883 0.00100549162211723
"77" -0.000554677577306706 0.000159624245040694 0.00357885883691409 0.000262859403247856 -0.000230934436391923 0.00141197435766958 0.000603112752076998 0.0025596242142539 -0.00571597788646659 0.000559740686532115 -0.00204875380999388 0.00188718758754008 0.00174326491904599 -0.000153785247474169 -0.000580779714415762 0.00101557052660252
"78" -0.000571229036626567 0.000159348067862756 0.00358794397005944 0.000265026386550021 -0.000238640265653043 0.00142938392055141 0.000618391928643445 0.00257722209984049 -0.00571076089567777 0.000581073212400712 -0.00225783162176682 0.00191399269513382 0.00175433257058851 -0.000148406637036667 -0.000583300514021407 0.00102337037705157
"79" -0.000588086837308361 0.000159268336760901 0.00359711907227555 0.000266119609307977 -0.00024639450933768 0.00144541261070871 0.000631948897923988 0.0025894346898931 -0.00570314559672784 0.000599097985622678 -0.00244334234015576 0.00193629068275076 0.00176116278055127 -0.000143581673693142 -0.000585434273604397 0.0010288222653017
"80" -0.000605306038686496 0.000159304009513577 0.00360641450899428 0.000266131164327749 -0.000254221590747944 0.0014600655708767 0.000643806130406892 0.00259641099467161 -0.0056930385546449 0.000613853169675875 -0.00260650285848787 0.00195421700077415 0.00176378834955271 -0.000139320819210992 -0.000587214466956931 0.00103190675086905
"81" -0.000622962028922622 0.000159376560594211 0.00361586125418277 0.000265065226416686 -0.000262144487527657 0.00147336269994873 0.000654002611639886 0.00259835731873727 -0.00568036585404301 0.000625418550773122 -0.00274857843239944 0.00196798470756385 0.00176229779678508 -0.000135603495388413 -0.000588662409268381 0.00103261912178551
"82" -0.000641102470311201 0.000159404004275006 0.0036255046776791 0.000262937936966637 -0.000270170277636492 0.00148532476669959 0.000662583193101755 0.00259552335067024 -0.0056650716606191 0.000633895027263203 -0.00287078137107921 0.00197780341608156 0.0017568227148173 -0.000132427523925177 -0.000589817633173228 0.00103098758877933
"83" -0.000659776039567276 0.000159299308711819 0.00363536746423993 0.000259778847999078 -0.000278308672254304 0.00149597322669597 0.000669613945695128 0.00258817923524763 -0.00564712429341754 0.000639422251808528 -0.00297431499286201 0.0019839384838143 0.00174755328390362 -0.000129786492266252 -0.000590699838651438 0.00102707939383973
"84" -0.000679043969656484 0.000158981398428357 0.00364552311006959 0.000255612709548284 -0.000286566508839297 0.00150533204049601 0.000675164570425793 0.00257664241879896 -0.00562649487131277 0.000642156890797646 -0.00306038936083818 0.00198667432324019 0.00173472662885163 -0.000127654696489577 -0.000591349940424989 0.00102095604354886
"85" -0.000698936289182017 0.000158367338754518 0.00365600178939119 0.00025047520129411 -0.000294946010446465 0.00151342961006421 0.000679310088437522 0.00256124321514377 -0.00560317649533837 0.000642279357799831 -0.00313016358865519 0.00198630890324054 0.00171861192485795 -0.000126031505905075 -0.000591792445127635 0.00101273401321759
"86" -0.000719483280366706 0.000157368552501488 0.00366684040317796 0.000244423403247553 -0.000303439693969289 0.00152031116960672 0.000682145454278466 0.00254234370373554 -0.00557719203145747 0.000639994450708147 -0.00318483984089303 0.00198316842347338 0.00169950255703211 -0.000124902065089553 -0.00059206780270909 0.00100253902575256
"87" -0.000740723649544819 0.000155915452279567 0.00367810765836785 0.000237503450914393 -0.000312045750140678 0.00152599891891079 0.000683762304952458 0.00252031709820878 -0.00554855184085691 0.000635504704165603 -0.00322557237010675 0.00197758766724333 0.00167773424714264 -0.0001242481071714 -0.000592207866205528 0.000990498240889529
"88" -0.000762661500576579 0.00015391681285672 0.00368981550255074 0.000229779354548027 -0.000320752128326213 0.00153054378252717 0.000684259471641734 0.00249553587552215 -0.00551731548132893 0.000629049387030219 -0.0032535355929299 0.00196990952823521 0.00165364549770708 -0.000124063200463031 -0.000592242508038201 0.000976785792271238
"89" -0.000785311970913042 0.0001513080026994 0.0037020276732828 0.000221307908594062 -0.000329544816027433 0.00153398372415618 0.000683744692459932 0.00246838896626839 -0.00548352022582771 0.000620853789863382 -0.00326987176590871 0.00196046515164485 0.00162759656775557 -0.000124329357465688 -0.000592207520301555 0.000961559732306294
"90" -0.000808677434229017 0.000148015521160411 0.00371477915314931 0.000212157784601582 -0.000338409005833755 0.00153635608670499 0.000682326866676796 0.00243925799997471 -0.00544723677630413 0.000611161515950061 -0.00327571939785593 0.00194959984746579 0.00159995930196293 -0.000125032174326372 -0.000592134064910479 0.000945011163369086
"91" -0.000832746272621682 0.000143972116153839 0.00372809389217613 0.00020239931950519 -0.000347323870745878 0.00153771739429563 0.00068011389710801 0.00240852673203876 -0.00540854063947223 0.000600215735753042 -0.00327221626925869 0.00193764916821436 0.00157108837151497 -0.000126162542923257 -0.000592046907325127 0.00092732607531559
"92" -0.000857505680018261 0.000139123364544244 0.0037420180839988 0.00019209659429588 -0.000356270635890341 0.00153810989900292 0.000677214113874374 0.00237656634394136 -0.00536751220160249 0.000588254817027973 -0.00326047357994642 0.00192493014766751 0.00154135875897595 -0.000127696446685515 -0.000591980402917019 0.000908691815938321
"93" -0.000882936153758462 0.000133412248242123 0.00375657145260837 0.000181327027859252 -0.000365224235044251 0.00153758737099936 0.000673744018655756 0.00234374014060732 -0.0053242443454369 0.000575512933515804 -0.00324158850530404 0.0019117558221324 0.00151111232817957 -0.000129620333398163 -0.000591959514657674 0.000889299855905347
"94" -0.000908993072485299 0.000126791529440845 0.00377176275346445 0.000170162074671617 -0.000374160117614329 0.00153619722965354 0.000669808622706835 0.00231038332032406 -0.00527884611184408 0.000562224102772783 -0.00321661086457183 0.00189842047693065 0.00148069039288304 -0.000131926673263462 -0.000592003143038157 0.000869362733987527
"95" -0.000935651005979574 0.000119231319831992 0.00378763009834295 0.000158669112136211 -0.000383054067699704 0.00153399411291088 0.00066551583147753 0.00227683498331385 -0.00523140441557666 0.000548598908342094 -0.00318658715726157 0.00188519178966937 0.00145040744496468 -0.000134589208860694 -0.000592141266432368 0.000849043067722146
"96" -0.000962842946271405 0.000110691661258873 0.00380416208543777 0.000146916071409776 -0.00039187834201125 0.00153103469597066 0.000660965072134789 0.00224339674130145 -0.0051820443220591 0.000534852791298975 -0.00315249522532833 0.00187232138557363 0.00142055686262145 -0.000137601200228118 -0.000592394558866732 0.000828546063511315
"97" -0.000990521792852142 0.000101156082830292 0.00382137226801836 0.000134967087205006 -0.000400607541248015 0.00152737188813716 0.000656261324227179 0.00221035950969519 -0.00513086975019 0.000521178856581116 -0.0031152968408318 0.00186003322274861 0.00139142624981928 -0.000140943823866363 -0.000592775127833877 0.000808049425672528
"98" -0.00101862433847507 9.06124459421536e-05 0.00383925116612949 0.00012289439299362 -0.000409214000950461 0.00152306527397142 0.00065149329279279 0.00217799043081509 -0.00507800043939371 0.000507754721148178 -0.00307590616410217 0.00184854199105792 0.00136324246737016 -0.00014459666361076 -0.000593304389512168 0.00078770563568643
"99" -0.00104708310535038 7.90596090400265e-05 0.0038578048791769 0.000110748523268658 -0.000417667526840558 0.00151816352744763 0.000646755032955799 0.00214652515162457 -0.00502354559123102 0.000494742335750159 -0.0030351549764356 0.00183802511006499 0.00133624207896321 -0.000148542313430292 -0.00059398353520517 0.000767681156748725
"100" -0.00107581989997624 6.65036899468397e-05 0.00387700677613126 9.85868145985102e-05 -0.000425944428331264 0.00151273097759107 0.000642123678028013 0.00211619028511702 -0.0049676185256748 0.000482289534571182 -0.0029938444343336 0.00182862924449101 0.00131060550899417 -0.000152766290532986 -0.000594832214802095 0.000748116620887337
"101" -0.00110474905686189 5.2958462847216e-05 0.00389683184777548 8.64604888976157e-05 -0.000434018174121176 0.00150682664236656 0.000637677232911483 0.00208717557642003 -0.00491034311283274 0.000470520500347784 -0.00295270929769475 0.00182048668964574 0.00128650099764522 -0.000157247410669103 -0.000595850212066972 0.000729139552748824
"102" -0.00113378689937659 3.84495327861008e-05 0.00391725614160723 7.44168216717638e-05 -0.000441869221582498 0.00150050054485656 0.000633484291065802 0.00205964683030127 -0.00485183246755944 0.000459550162241687 -0.00291241439499548 0.00181370477347692 0.00126406286038674 -0.000161965660549814 -0.000597036626697484 0.000710873840273258
"103" -0.00116283847223702 2.30136584824774e-05 0.00393823511001729 6.24993173066838e-05 -0.000449463746294317 0.0014938234481417 0.000629602194722692 0.00203374800162854 -0.00479220587655875 0.000449463806906333 -0.00287357258282049 0.00180834615332172 0.00124337990499338 -0.000166903298817284 -0.000598403384615238 0.000693411878101461
"104" -0.00119181926132777 6.70044526424593e-06 0.00395974758692631 5.07321582698641e-05 -0.000456788720520031 0.00148684250154265 0.000626091776111094 0.00200961154420723 -0.00473155586855095 0.000440328495584222 -0.00283671968081525 0.00180447648308998 0.0012245441234253 -0.000172036561140375 -0.000599936876479939 0.000676827074337174
"105" -0.0012206296532091 -1.04417177361295e-05 0.00398174463727261 3.91557871023181e-05 -0.000463820804442855 0.00147961211359498 0.000622991105724925 0.00198731534744121 -0.00467000915782998 0.000432202040700857 -0.00280232046943922 0.00180212456872772 0.00120760132384066 -0.000177346048590149 -0.000601627810245531 0.000661205547097416
"106" -0.00124916485997886 -2.8348602536699e-05 0.00400416388290343 2.7791576146569e-05 -0.000470541809175064 0.00147219707321635 0.000620342537543362 0.00196694486509264 -0.00460766547960307 0.000425115528821946 -0.00277080647998484 0.00180128707279625 0.00119256560638252 -0.000182811391555086 -0.000603473955974489 0.000646584042416323
"107" -0.00127733385110453 -4.69481384993393e-05 0.00402696204084117 1.66598507564216e-05 -0.000476933966706004 0.00146464755143701 0.000618181181691423 0.00194854367786665 -0.00454463371430478 0.000419086905918648 -0.00274252820421468 0.00180195392911337 0.00117944538760071 -0.000188403438205268 -0.000605452884342884 0.000633004404765244
"108" -0.00130503512858624 -6.6160964083831e-05 0.00405008165392629 5.77112685756655e-06 -0.000482982419096817 0.00145701520604369 0.000616522023542762 0.0019321423099322 -0.00448100773962235 0.000414111248632368 -0.002717755748817 0.00180408618361478 0.0011682018314624 -0.000194111184789415 -0.000607560787215908 0.000620482149277782
"109" -0.00133216723326513 -8.59072767677323e-05 0.00407345864900689 -4.86752118136799e-06 -0.000488675538810471 0.00144935368036771 0.000615385049394195 0.00191774769002346 -0.00441688862402628 0.000410177385750704 -0.00269674203687153 0.00180762691638925 0.00115880433001155 -0.000199903525999535 -0.0006097678628129 0.000609027919304554
"110" -0.00135863814782003 -0.000106087508585478 0.00409704425063048 -1.52458156037722e-05 -0.000494000841120601 0.00144170888002694 0.000614781763768949 0.0019053493973942 -0.00435237026625303 0.000407242935193858 -0.00267966629611088 0.00181250006818828 0.00115117394304996 -0.000205760104705464 -0.000612061460917031 0.000598620135523628
"111" -0.00138435466838294 -0.000126606537287751 0.00412076143331165 -2.53709159753508e-05 -0.000498952851720204 0.00143413024673353 0.000614713578645436 0.00189490296232816 -0.00428754503060681 0.000405267356646277 -0.00266665085848039 0.00181862378148514 0.00114522692758511 -0.000211651257492205 -0.00061441162867524 0.000589236778154427
"112" -0.00140922434792485 -0.000147365537257666 0.00414455889691539 -3.52452584156607e-05 -0.000503520201689524 0.0014266540686193 0.000615173501900613 0.00188636554904834 -0.00422249906797079 0.0004041900772511 -0.00265776411952322 0.00182588714824017 0.00114086270358497 -0.000217563116386874 -0.000616797914884664 0.000580844924445269
"113" -0.00143316593802154 -0.000168252687975418 0.00416837628807479 -4.48805571596409e-05 -0.000507703343607418 0.00141932066410029 0.000616156215037585 0.00187966238945842 -0.00415731086073949 0.000403936043296283 -0.00265301980815232 0.00183416942484671 0.00113795687573935 -0.000223463382294057 -0.000619192121974998 0.000573383556735918
"114" -0.00145609592126946 -0.000189164371840183 0.00419213937898062 -5.42869078481354e-05 -0.000511501115732204 0.00141217499477444 0.000617647716721076 0.00187470751881256 -0.00409206553578576 0.000404426959466797 -0.00265240137879696 0.00184334777177476 0.00113638360617054 -0.000229332408822423 -0.000621564719442319 0.000566793103773521
"115" -0.001477933121325 -0.00020998952278421 0.00421579856439108 -6.34798374629037e-05 -0.000514905636852218 0.0014052378781331 0.000619622503951537 0.0018713974592488 -0.00402684127910666 0.000405575061647332 -0.00265581775948583 0.00185327567089142 0.00113599453336983 -0.000235148266587608 -0.00062389026120304 0.000561010181252471
"116" -0.00149861172348187 -0.000230617780551671 0.00423929488868474 -7.24793215895724e-05 -0.0005179258442714 0.00139854169126395 0.000622062492974373 0.00186961361899724 -0.00396171046668687 0.000407279744327062 -0.00266313551208831 0.00186380582255736 0.00113663832079055 -0.000240889714702038 -0.000626139845480661 0.000555946662754294
"117" -0.00151806937159773 -0.00025093734899651 0.00426256821348067 -8.1306894453978e-05 -0.000520564102534026 0.00139210363602608 0.000624936845579946 0.00186922384442241 -0.00389674488421444 0.00040944351359209 -0.00267417689044593 0.00187478761530607 0.00113815941657775 -0.00024653126195582 -0.000628278641862814 0.000551521009063291
"118" -0.00153624932630056 -0.000270839704815124 0.00428558150803397 -8.99846251432608e-05 -0.000522823016629989 0.0013859397682977 0.000628212606509695 0.00187008472855734 -0.00383201313758374 0.000411952750104368 -0.00268870750344278 0.00188605628208466 0.0011403932087344 -0.000252061784166524 -0.000630280821169265 0.000547639466103385
"119" -0.00155310252099224 -0.000290219836640235 0.00430827419155345 -9.85296657056121e-05 -0.000524712843719852 0.00138006999624541 0.000631860629936857 0.00187204441323742 -0.00376758086801829 0.000414706351877937 -0.0027064808467542 0.00189745815497301 0.00114316260981645 -0.000257453506880105 -0.000632116060859097 0.000544202451727813
"120" -0.00156859805125734 -0.000308968589848105 0.00433062061055499 -0.000106974544847886 -0.000526239446362282 0.0013744888791521 0.000635844322182697 0.00187493354212212 -0.00370351378404813 0.000417587129388294 -0.00272718366321996 0.00190882875168434 0.00114630807809663 -0.000262688726675069 -0.00063375595507534 0.000541102157582377
"121" -0.00158269162992708 -0.000326994913389053 0.00435257657798139 -0.00011533193900365 -0.000527410515487954 0.00136920491084741 0.000640125629254714 0.00187857990384866 -0.00363987666024179 0.000420493141200541 -0.00275047859480325 0.0019200020085857 0.00114964338183396 -0.000267757459175949 -0.000635177530473623 0.00053825032035571
"122" -0.00159536259988981 -0.000344202710124251 0.00437410602631453 -0.000123634185907921 -0.000528243314101744 0.00136420754621994 0.000644662786242792 0.00188280336492246 -0.00357672809465376 0.000423319195988078 -0.00277599240934011 0.00193082003106769 0.00115301726172626 -0.000272642622055422 -0.000636350123568354 0.00053554121845803
"123" -0.00160660421291596 -0.000360502855527597 0.00439520014019696 -0.000131903305492827 -0.000528750186213801 0.00135948533616021 0.000649422391025451 0.00188741713865471 -0.00351412679768194 0.000425956381077178 -0.00280334168212763 0.00194113036848004 0.0011562618333514 -0.000277328603407607 -0.000637257466581182 0.000532865979347597
"124" -0.0016163969048144 -0.000375821471212058 0.00441581522742603 -0.000140153115276413 -0.00052893999134414 0.00135502276911183 0.000654360516688278 0.00189222825181768 -0.00345213660854327 0.000428314295102199 -0.00283211103516457 0.00195078388482746 0.00115921187115994 -0.000281814193668124 -0.00063786814046472 0.000530138327354957
"125" -0.00162476021741746 -0.000390080651747567 0.00443596882717523 -0.000148409181118203 -0.000528831327963547 0.00135079373158957 0.000659442556554012 0.00189704559386744 -0.0033908066609482 0.000430301475446873 -0.00286188801592119 0.00195963766067727 0.00116172669362439 -0.000286082357860468 -0.000638173104618298 0.000527256319600467
"126" -0.00163169380600958 -0.000403221505945208 0.00445563137567421 -0.000156686816546698 -0.000528439375292421 0.00134677451938189 0.000664627607602826 0.00190166860544974 -0.00333020432087622 0.000431835753651368 -0.00289223524322204 0.00196756339657162 0.00116366004924311 -0.00029013143892645 -0.000638155545430434 0.00052413101013895
"127" -0.0016372188362247 -0.000415192443440106 0.00447480653444585 -0.000164995423618153 -0.000527780771033743 0.00134292834678645 0.000669886205320964 0.00190591149778313 -0.00327037466618015 0.00043284178084906 -0.00292272795701183 0.0019744297787313 0.00116487857682429 -0.000293959335157248 -0.000637802529743584 0.000520683100867092
"128" -0.00164136445073598 -0.000425946813685233 0.00449349864926924 -0.000173356430706001 -0.000526874464637145 0.00133920949931429 0.000675172978732678 0.0019095694888286 -0.00321137193520317 0.000433252201149403 -0.00295291042785327 0.00198013081040988 0.00116526381580606 -0.000297569272314737 -0.000637108845964923 0.000516831756776534
"129" -0.00164416514569392 -0.000435453652089866 0.00451171464487635 -0.000181769973426787 -0.000525738653521219 0.00133558809905232 0.000680463534995968 0.00191246175091349 -0.00315325788851621 0.000433020214952965 -0.00298239175002563 0.00198456818936828 0.00116471354205047 -0.000300958323698655 -0.000636072072853679 0.000512510629957815
"130" -0.00164566434512869 -0.000443693381993613 0.00452946796982696 -0.000190247437465719 -0.000524387796924248 0.0013320053168573 0.000685721999724235 0.0019143961195719 -0.00309607373943582 0.000432101946141605 -0.00301073386105861 0.00198765715731362 0.00116313664822088 -0.000304136081183793 -0.000634689683989687 0.000507664313987982
"131" -0.00164591215831905 -0.000450652411904218 0.0045467835466213 -0.000198791406469611 -0.000522847398582888 0.00132840969073196 0.000690925304708846 0.00191519754290221 -0.00303986742790748 0.000430458895600695 -0.00303753687229438 0.00198931984261024 0.00116045042805387 -0.00030711060247925 -0.000632964066085574 0.000502239801120184
"132" -0.00164496958878732 -0.000456330643889467 0.00456367604554914 -0.000207400593857949 -0.000521135076466451 0.00132475235001946 0.000696046210959709 0.00191469863523595 -0.0029846860602414 0.000428076031684491 -0.00306242079316053 0.00198950191839334 0.0011565955691305 -0.000309891274411981 -0.000630910545310252 0.000496186592443151
"133" -0.00164289494949735 -0.000460743528252543 0.00458017276224096 -0.00021607456634766 -0.000519270812576403 0.00132097290976319 0.000701058240505808 0.00191272693034203 -0.00293057386116794 0.000424946735181968 -0.00308501600317248 0.0019881653458805 0.00115153369884507 -0.00031248863190041 -0.000628533117544507 0.000489489738239304
"134" -0.00163975655460342 -0.000463910127086432 0.00459630564687369 -0.000224803694962314 -0.00051727516751103 0.00131700393178552 0.00070594369192126 0.00190913599180001 -0.00287757039498511 0.000421072208739379 -0.00310495680939904 0.00198528133752838 0.00114522707147746 -0.000314929389686161 -0.000625854452290196 0.000482123630151286
"135" -0.00163563178767353 -0.000465867777109369 0.00461209840397908 -0.00023358287729043 -0.000515175186732205 0.00131279192508028 0.000710688147996483 0.00190378772128599 -0.00282570948889252 0.000416464765352531 -0.00312191559226281 0.00198083660120228 0.00113765986863428 -0.000317224718525388 -0.000622893585058472 0.00047407664308382
"136" -0.00163059297195382 -0.000466661370413903 0.00462758652513931 -0.000242396884776561 -0.000512983726188121 0.00130827216181574 0.000715271514534827 0.00189655564678458 -0.0027750208560415 0.000411154955907665 -0.00313559042859356 0.0019748347781951 0.00112884367323005 -0.000319396074691989 -0.000619673344270653 0.000465350510881165
"137" -0.00162472746827284 -0.000466343729404924 0.00464280544280164 -0.000251236311637283 -0.0005107236904004 0.00130338621288815 0.000719689628077886 0.001887330035606 -0.002725533527526 0.000405177086218036 -0.00314568882514731 0.00196729621893437 0.00111879816373528 -0.000321467702451744 -0.000616221571584775 0.00045595580935342
"138" -0.00161811344657291 -0.000464979999625222 0.00465778585477161 -0.000260079563126454 -0.000508418744228977 0.00129806908586084 0.000723924850789938 0.00187600738669285 -0.00267726526477491 0.00039857294114748 -0.00315193611406674 0.0019582499394873 0.00110753783511927 -0.000323467494792719 -0.000612572559144482 0.000445914064065256
"139" -0.0016108403344269 -0.000462646870928895 0.00467256042006724 -0.000268913064508326 -0.000506086838087748 0.00129226565540906 0.000727981249840315 0.00186252095903067 -0.00263022962733132 0.000391398129523116 -0.00315408201056494 0.00194773559467144 0.00109512173986336 -0.00032542117837678 -0.00060876478580943 0.000435253834810625
"140" -0.00160299398874788 -0.000459423108820745 0.00468715937217343 -0.000277717361758565 -0.000503752852374426 0.00128591871961536 0.000731844836574266 0.00184679520589714 -0.00258443564125329 0.000383718087695759 -0.00315190053852296 0.00193582416097876 0.00108160611545863 -0.000327352832712397 -0.000604824239826788 0.000424011892416519
"141" -0.00159466495635456 -0.000455401420577011 0.00470161805917583 -0.000286466016315514 -0.000501435877828815 0.00127897257550713 0.000735520384063832 0.00182878976137585 -0.00253988350102345 0.000375598605895829 -0.00314519037160876 0.00192257405425504 0.00106705549990555 -0.000329293460138249 -0.000600796838454525 0.00041223949917351
"142" -0.00158593528530639 -0.000450678776460281 0.00471595501808359 -0.000295143335374457 -0.000499153772065287 0.00127138307476791 0.00073901091314181 0.00180847738803093 -0.0024965618704628 0.000367108462346603 -0.00313375427093339 0.0019080659132822 0.00105154885321599 -0.000331275378150237 -0.000596728398936891 0.000399985229266624
"143" -0.00157689669451671 -0.000445356523132299 0.00473020230932523 -0.000303726684887367 -0.000496932873590761 0.00126309592799085 0.000742314174398833 0.00178584452679577 -0.00245445547756788 0.000358334886360945 -0.00311742327212024 0.00189239680374311 0.00103518094815557 -0.000333324467846169 -0.000592646408724875 0.000387317030817493
"144" -0.00156763163207953 -0.000439538981735528 0.00474438425412158 -0.000312187638212861 -0.000494781727758508 0.00125408235832495 0.000745438042564914 0.00176091276903365 -0.00241353669369035 0.00034935283021308 -0.003096065675846 0.00187565038608153 0.00101803219299442 -0.000335476290002001 -0.000588612645323905 0.000374293187401563
"145" -0.0015582235304408 -0.000433338830374505 0.00475850925662828 -0.000320507541363156 -0.00049272498070693 0.00124431035849356 0.000748389150881645 0.0017337082194461 -0.00237377201719915 0.000340245710539712 -0.0030695649252692 0.00185793664163364 0.00100020687329601 -0.000337749824572765 -0.000584663761819189 0.000360975870074161
"146" -0.00154875513535246 -0.00042686793028022 0.00477260514800007 -0.00032867308445568 -0.000490786270629409 0.0012337417448762 0.00075117058522458 0.00170426413811509 -0.00233511504332686 0.000331094105647167 -0.00303778209302807 0.00183936943846665 0.00098181258829928 -0.00034018230252615 -0.000580834953740943 0.000347450394921419
"147" -0.00153929800712685 -0.000420236007249301 0.0047866756812541 -0.000336650316726343 -0.000488971142301108 0.00122237024370753 0.000753799477584558 0.00167266154833138 -0.00229750884488328 0.000321985914009873 -0.00300067797894736 0.00182005777453655 0.000962943881322579 -0.000342791889937793 -0.000577174100039985 0.000333786055767841
"148" -0.00152992079737422 -0.000413561100795676 0.00480071608073169 -0.000344428925165376 -0.000487300779975802 0.00121018232538735 0.000756280772112514 0.00163898053299946 -0.00226089601513838 0.000313000446783285 -0.00295818579558089 0.00180011379758585 0.000943705668234072 -0.00034561183562302 -0.000573726673929746 0.000320057721640528
"149" -0.00152069564960752 -0.000406950646617865 0.00481474233463398 -0.000351990873330242 -0.000485789738239661 0.00119716825960717 0.000758624437120366 0.00160331581755288 -0.00222519566338059 0.000304215060779645 -0.00291026771335313 0.00177966333329066 0.000924210370287952 -0.000348656682253311 -0.000570519279756621 0.000306345128793983
"150" -0.0015116802878059 -0.000400509027261347 0.00482874414280176 -0.000359319763422156 -0.000484452015213619 0.00118333803457423 0.000760843410530854 0.00156579536107011 -0.00219032174099346 0.000295696770467349 -0.00285692557682086 0.00175881393317925 0.000904543477459704 -0.000351954437432418 -0.000567603794788732 0.000292711500480453
"151" -0.00150292569833589 -0.000394344109425639 0.00484270770921425 -0.000366400714061526 -0.000483294740453015 0.00116870595019553 0.000762950581852122 0.00152654545661942 -0.00215618435666642 0.000287519017723036 -0.0027981863563342 0.00173768872817097 0.000884803745854408 -0.00035551905781536 -0.000565001366820633 0.000279238060688836
"152" -0.00149448483498626 -0.000388552864853907 0.00485662333397403 -0.000373228263986892 -0.000482333313234975 0.0011532941767748 0.000764954752431027 0.00148571417860315 -0.0021226793986733 0.000279744702397578 -0.00273411007262324 0.00171640257504642 0.000865093822633144 -0.000359360046187032 -0.000562737099984462 0.000265992673628053
"153" -0.00148638944086481 -0.000383225729565198 0.0048704720604033 -0.00037979325995509 -0.000481572372074615 0.00113712605162815 0.000766869865896901 0.00144346428614242 -0.00208969436275614 0.000272431601239158 -0.00266477766246167 0.00169505752093123 0.000845489584319065 -0.000363499442461467 -0.000560846692157067 0.000253044214102625
"154" -0.00147868631474996 -0.000378441261232029 0.00488423970870125 -0.000386096162340239 -0.000481023090279488 0.00112024417918219 0.000768702591100737 0.00139996904831458 -0.00205710465127995 0.000265616569798753 -0.00259031443177842 0.00167377148783016 0.000826074026381534 -0.000367930879825543 -0.000559344540713793 0.000240436993967229
"155" -0.0014713906925942 -0.000374277480263801 0.00489788173637778 -0.000392128840914818 -0.000480685496358384 0.00110269938660466 0.000770469930473247 0.00135541693348202 -0.00202479122462913 0.00025935276048819 -0.00251089430438293 0.00165264345987532 0.000806906583455591 -0.00037266758134243 -0.000558246474323058 0.000228234321676609
"156" -0.00146452517728029 -0.00037079576169441 0.00491137801506385 -0.000397900402179381 -0.000480567082490913 0.00108454134932425 0.000772175939678716 0.00130999920475864 -0.00199261193624968 0.000253664907024147 -0.00242670864307645 0.00163176891155064 0.000788068151063477 -0.000377699571819548 -0.000557558868151442 0.000216485135992955
"157" -0.00145809529641123 -0.000368052756016961 0.00492468820237473 -0.000403411958616521 -0.000480664835362727 0.00106583307934409 0.000773836125719284 0.0012639220991064 -0.0019604366164641 0.000248579485046312 -0.0023379998921016 0.00161123075523891 0.000769597415807847 -0.000383034884027148 -0.0005572930179269 0.000205223826307063
"158" -0.00145211277761779 -0.000366082692137114 0.00493778927636497 -0.000408678833795981 -0.000480980220534379 0.00104663510766957 0.000775455037537737 0.0012173892562249 -0.00192811747755317 0.000244112024555396 -0.00224505072078428 0.00159111824467941 0.000751555858579088 -0.000388655529680891 -0.000557437111801051 0.000194490513433703
"159" -0.00144656263497186 -0.000364922747085489 0.00495062367195729 -0.000413704346979012 -0.000481506727107093 0.00102703382236387 0.00077704283063689 0.00117062606353284 -0.00189550903436847 0.000240271274382332 -0.00214819007919013 0.00157150550114735 0.000733963257500764 -0.000394549759019899 -0.000557988964862793 0.000184304455230387
"160" -0.00144143709675624 -0.000364584144749373 0.00496315281871809 -0.00041851359128856 -0.000482243585031529 0.00100709879883156 0.000778604908858182 0.00112384436763865 -0.00186246369270427 0.00023704951576498 -0.00204776782465625 0.00155245103898582 0.000716859515464193 -0.000400712334256308 -0.000558940145187132 0.000174687104831792
"161" -0.0014367201734165 -0.000365071577218789 0.00497534328622196 -0.000423126727045644 -0.000483177645710594 0.000986916347568448 0.000780149240971901 0.00107726563540586 -0.00182883337129745 0.000234441107897828 -0.00194420500962763 0.00153401515716675 0.000700270711354044 -0.00040711112811834 -0.000560259715979641 0.000165646558415368
"162" -0.00143238138532578 -0.000366380408648766 0.00498714486178293 -0.000427558506003912 -0.000484303542631798 0.00096656772404952 0.000781677710638522 0.00103110358870636 -0.00179447960792115 0.000232430743242946 -0.0018379329588889 0.00151624916262245 0.000684202621394095 -0.000413729184052903 -0.000561930795679012 0.000157191283903855
"163" -0.00142838984620672 -0.000368484717594357 0.00499851154883447 -0.000431841290909958 -0.000485608378254499 0.00094614619553617 0.000783198286043689 0.000985574591662281 -0.00175925538831566 0.000230994773441655 -0.0017294420362261 0.00149918786131363 0.000668667711448353 -0.000420536607290381 -0.000563909724971355 0.000149308087180453
"164" -0.0014247055994065 -0.000371351827597662 0.00500939770811944 -0.000435992708426279 -0.000487077042547579 0.000925742438269963 0.000784708559724229 0.000940894622614913 -0.00172302819695843 0.000230095524731999 -0.00161923625278731 0.00148286453083254 0.000653650666122843 -0.000427508181486411 -0.000566178895916184 0.00014198225568313
"165" -0.0014212909489269 -0.000374931978146828 0.00501977828921961 -0.000440054063732255 -0.000488692515611079 0.000905434883458606 0.000786212791663119 0.000897271026045738 -0.00168565727863942 0.000229698244504765 -0.00150783634798973 0.00146728787183357 0.000639164015141045 -0.000434615846831782 -0.000568684101102094 0.000135201270382588
"166" -0.00141808897475487 -0.000379177448275606 0.00502958912102644 -0.000444044610293939 -0.000490440621931155 0.000885326292375647 0.000787706886496432 0.000854893855294983 -0.00164704084056731 0.000229768778552617 -0.00139581598442963 0.00145248838588609 0.000625184411390641 -0.00044182238108002 -0.000571375482121308 0.000128941348073593
"167" -0.001415052661344 -0.0003840110504211 0.00503880600243242 -0.000448005935306923 -0.000492302030108737 0.000865490750828751 0.000789193477308929 0.000813947717007593 -0.00160705841509791 0.000230256032046744 -0.00128372079450204 0.00143845284829697 0.000611696052628226 -0.000449093738500356 -0.000574208929868939 0.000123167936614411
"168" -0.0014121306880985 -0.000389359314808278 0.00504740398185375 -0.000451965620498161 -0.000494253015063041 0.000846010312372189 0.00079066576569842 0.000774612426391321 -0.0015656078193397 0.000231106987631856 -0.00117211405612181 0.00142518019407332 0.0005986857149206 -0.000456399588738601 -0.000577131137090089 0.000117842050596313
"169" -0.00140926475834164 -0.000395132209128274 0.00505534247727412 -0.000455961161781767 -0.00049627440350019 0.000826965953795263 0.000792118533744477 0.000737043387467364 -0.00152261084426513 0.000232272624893344 -0.00106156051475649 0.00141265129973987 0.000586126201438568 -0.000463697861782254 -0.000580077141785016 0.000112924913303667
"170" -0.00140639068449177 -0.000401243560481732 0.00506259673228888 -0.000460024986736431 -0.000498342242789272 0.000808426835057223 0.000793549004703193 0.000701380981770845 -0.00147799996651167 0.000233703498040313 -0.000952581548614425 0.00140085191470305 0.000573991323942607 -0.000470954668476418 -0.000582989541376246 0.000108379788212251
"171" -0.00140345724657718 -0.000407584088569835 0.00506916357071856 -0.000464192062343314 -0.000500435609864706 0.000790450356154237 0.000794943655254278 0.000667753111018539 -0.00143171823143207 0.000235332731560276 -0.000845691843376145 0.00138973665693077 0.000562252962268816 -0.000478139864146678 -0.000585812732103866 0.000104145459056603
"172" -0.00140039880955489 -0.000414056212206911 0.00507500948059767 -0.000468487824250261 -0.000502527560741991 0.000773095409099193 0.00079629985398382 0.000636260302432694 -0.00138373676493428 0.000237122756163845 -0.000741365749137975 0.00137927730494776 0.000550887707553954 -0.000485217366035219 -0.000588473080058163 0.000100188416746436
"173" -0.00139716152658067 -0.000420552610196935 0.00508014729581234 -0.000472951587740357 -0.000504597806054003 0.000756401733227135 0.000797599272173656 0.00060697975963507 -0.00133404182888864 0.00023900951398484 -0.000640007203467334 0.0013694166431923 0.000539866761658097 -0.000492158330353169 -0.000590914984366551 9.64555348192385e-05
"174" -0.00139369423192409 -0.000426959271379506 0.00508456990251487 -0.000477611492424801 -0.000506619299463834 0.000740406433090857 0.000798833873866171 0.000579980991152114 -0.00128263226326396 0.000240941993628385 -0.000541984009495582 0.00136011470106906 0.000529162187701348 -0.000498929078073474 -0.000593075481160349 9.28897486222904e-05
"175" -0.001389937667855 -0.000433172457322473 0.00508828682721955 -0.000482492414372036 -0.000508575417940543 0.000725128778873379 0.00079998241071289 0.000555282665560666 -0.00122954369687343 0.00024287710552388 -0.000447574768521309 0.0013513045184905 0.000518752384546285 -0.00050550644618386 -0.000594885231747787 8.94528048010917e-05
"176" -0.00138583693762991 -0.000439084455362282 0.0050913115349439 -0.00048761673320878 -0.000510436147896254 0.000710581318943274 0.00080103406576697 0.000532904411176612 -0.00117481977913107 0.000244769076022773 -0.000356998817136636 0.00134292055080606 0.000508606338147723 -0.000511871802469996 -0.000596290384752323 8.6100178043656e-05
"177" -0.00138135682851805 -0.00044459152035093 0.00509367289806629 -0.000493009156495509 -0.000512189474236701 0.000696756916493313 0.000801967558257835 0.000512824634908279 -0.00111852962236869 0.000246576935073269 -0.000270365000718811 0.0013348934898398 0.000498707328986503 -0.000518010230547946 -0.000597238228285497 8.27809703500303e-05
"178" -0.00137646081610281 -0.000449590732771474 0.00509541252992256 -0.000498696055028746 -0.000513809475931986 0.000683635827475342 0.000802761127869027 0.000494993271243645 -0.00106075235604759 0.000248259550850654 -0.000187711888178354 0.00132714686930259 0.000489041145662366 -0.000523901295166536 -0.00059767177695652 7.94496972114847e-05
"179" -0.00137110119608891 -0.000453996732485569 0.0050965459355656 -0.000504673771515035 -0.000515282476418378 0.000671200244739087 0.000803395889474033 0.000479338456810881 -0.00100162261101722 0.000249799064119407 -0.000109005664718467 0.00131960837136922 0.000479579968239627 -0.000529537316240657 -0.000597546804253602 7.60801128119339e-05
"180" -0.00136526191148049 -0.000457719023597842 0.00509714402337863 -0.000510968826449412 -0.000516594382231568 0.000659396760197229 0.00080384685903378 0.000465756275715202 -0.000941249068899812 0.000251161624615566 -3.40616956251589e-05 0.00131219599866702 0.000470323450658561 -0.00053491422238533 -0.000596814037945151 7.26228433165581e-05
"181" -0.00135891669405353 -0.000460688472505139 0.00509724303801834 -0.000517580311995908 -0.000517729205711869 0.000648174774125022 0.000804089603126896 0.000454116317137881 -0.00087978834856164 0.000252335349950016 3.73667884982579e-05 0.0013048224477426 0.000461247631349725 -0.000540044364779251 -0.000595442226120773 6.90619551421113e-05
"182" -0.00135204454358933 -0.000462842831005659 0.00509690260587814 -0.000524507116854948 -0.000518682640760882 0.000637458626891622 0.000804091646239037 0.000444254796553332 -0.000817415309195932 0.000253310811844818 0.000105642505153449 0.00129740752195057 0.0004523511806411 -0.000544926679672476 -0.000593398922116293 6.53734856487499e-05
"183" -0.00134464943983409 -0.000464123219424616 0.00509620164929876 -0.000531757732207893 -0.00051944693798447 0.000627171229595177 0.000803830247236299 0.000435992946323322 -0.000754298179029975 0.000254078602567018 0.000171201278020603 0.00128986165429835 0.000443630618470304 -0.000549576094653693 -0.000590664380680738 6.15217071248436e-05
"184" -0.00133672234633096 -0.000464498944514251 0.00509518956453222 -0.000539316554558845 -0.000520019224017384 0.000617216347773129 0.00080326917447735 0.000429113100891162 -0.000690648594041282 0.000254647490889866 0.000234606191481246 0.00128210061271276 0.000435079376075813 -0.000554020332630372 -0.000587224053826308 5.75137829475135e-05
"185" -0.00132828537727711 -0.000463936900246744 0.00509396886405151 -0.000547180496322881 -0.000520394595946509 0.000607487116753744 0.00080238405032481 0.000423391273564409 -0.000626652775142689 0.000255019038117818 0.000296469876664093 0.00127404322694499 0.000426708764869306 -0.000558272873505947 -0.000583065614691559 5.3314876395518e-05
"186" -0.00131933672176467 -0.000462435832984963 0.00509258178691121 -0.000555328395671908 -0.000520583267716028 0.000597875826677474 0.000801137837741293 0.000418557315488406 -0.000562546697086839 0.00025521442927992 0.000357524561698912 0.00126560631383348 0.000418500326013431 -0.000562373301814114 -0.000578196290603969 4.89364125508936e-05
"187" -0.00130991461689797 -0.000459992302760879 0.00509113551078933 -0.00056374642924883 -0.000520592562488012 0.000588248842286792 0.000799494250541338 0.000414343384601312 -0.000498540802687017 0.000255254238237348 0.000418570532470659 0.0012567031302655 0.000410479464393143 -0.000566357366780097 -0.000572628282230627 4.43747803024683e-05
"188" -0.00130003919333716 -0.000456636657858995 0.00508968877336851 -0.000572408346034873 -0.000520435591030528 0.000578483018552335 0.000797426835525094 0.000410446550586312 -0.000434868285020637 0.000255169307236147 0.000480466673874078 0.00124726719283538 0.000402644803761443 -0.000570265799046304 -0.000566371721788528 3.96414950845669e-05
"189" -0.00128976363013661 -0.000452393884338129 0.0050883378862979 -0.00058128946932247 -0.000520121489866088 0.000568440808703647 0.000794892310883497 0.00040656937000743 -0.000371747430285078 0.000254986620528105 0.000544140568013017 0.00123721689540324 0.000394998551401757 -0.000574144041862889 -0.000559468461235419 3.47298421426363e-05
"190" -0.0012791188732031 -0.000447322888101423 0.00508714109301013 -0.00059036197791604 -0.000519676313856849 0.000557983462420919 0.00079186405977284 0.000402383772211634 -0.000309412171485575 0.00025474769108258 0.00061057560162832 0.00122648768737415 0.000387553924147291 -0.000578043979343419 -0.000551948512960541 2.96686677716004e-05
"191" -0.00126816886686675 -0.000441488124278948 0.00508619349708733 -0.000599591040032471 -0.000519116600538291 0.0005469630056037 0.000788298043401136 0.00039756504334033 -0.000248068881673523 0.000254490912810282 0.000680822505273395 0.00121501615530784 0.000380312754220286 -0.000582025904830914 -0.00054386299062499 2.4469879073974e-05
"192" -0.00125696712831388 -0.000434970486828216 0.00508554953585321 -0.000608942892838566 -0.000518472362092987 0.00053524551054836 0.000784166995774451 0.000391783678017079 -0.000187931909753294 0.000254267798819038 0.000755930723842846 0.00120274760413382 0.000373292430651129 -0.000586138037904596 -0.000535258824409809 1.9157599862638e-05
"193" -0.00124558287344357 -0.000427866154522037 0.00508528481089572 -0.000618382737579899 -0.000517774605081937 0.000522679203849789 0.000779430643714764 0.000384707369757542 -0.000129199035786525 0.00025411850045778 0.000837026945240578 0.00118963462690861 0.000366492128335871 -0.000590443389455435 -0.000526201834151032 1.37552977064061e-05
"194" -0.00123408169102686 -0.000420280674975019 0.00508545815147061 -0.000627866718909614 -0.000517053355622764 0.000509136555576642 0.00077406219730958 0.00037601421876047 -7.20534505330463e-05 0.000254092769309609 0.000925224315563361 0.00117563205843915 0.000359915282025451 -0.000595005616430446 -0.000516772577574059 8.28392756486745e-06
"195" -0.00122255152338522 -0.000412332562875728 0.00508612804527073 -0.000637362333692578 -0.000516344905230945 0.00049448242014682 0.000768025994087056 0.000365389405504078 -1.66506148386614e-05 0.00025423370172563 0.00102166936447836 0.0011607165630451 0.000353577200546282 -0.000599879989086753 -0.000507034880264298 2.7714585612754e-06
"196" -0.00121104848824957 -0.000404160745877229 0.0050873267591994 -0.000646818439393142 -0.000515682551404642 0.000478593873742068 0.000761294196554188 0.000352524650342067 3.6846516507473e-05 0.000254603774174698 0.00112749883939158 0.00114485393097956 0.000347467080711725 -0.000605135542617653 -0.000497081606891028 -2.73476277300361e-06
"197" -0.00119967606362987 -0.000395894919512265 0.00508910176709508 -0.000656207611627436 -0.000515114188700871 0.000461354221130546 0.000753840792692534 0.000337143341029059 8.83312079093182e-05 0.000255239411351001 0.00124387713218588 0.00112803998387856 0.000341590996946386 -0.000610824783507774 -0.000486994651218692 -8.22344942625499e-06
"198" -0.00118850714475663 -0.000387684757312589 0.00509147168768858 -0.000665478975785469 -0.00051467556936763 0.00044266547672627 0.000745641157571581 0.000318975673776788 0.000137695371916469 0.000256189429383866 0.00137192407934604 0.0011102735205286 0.000335946791619112 -0.000617002898357534 -0.000476866265763543 -1.3651215941934e-05
"199" -0.00117763451795542 -0.000379683721819032 0.00509446308984754 -0.000674597640132067 -0.000514412548271697 0.000422434890880667 0.000736673924875572 0.000297789553034325 0.000184867676145453 0.000257492128820732 0.0015127693389632 0.00109155853125017 0.000330529575194926 -0.000623724440498132 -0.000466793152783566 -1.89923854654021e-05
"200" -0.00116713737469466 -0.000372043815741667 0.0050980826496763 -0.000683522464687355 -0.000514362381048791 0.000400586876414996 0.000726920264952147 0.000273383160667101 0.000229808111812141 0.000259181536221228 0.00166750772851178 0.00107190786814182 0.000325322010235728 -0.00063104684357992 -0.000456875107306651 -2.42091306226264e-05
"201" -0.00115709804862772 -0.000364929340959793 0.00510230824429108 -0.000692214369078506 -0.000514574588189097 0.000377074448694821 0.00071636801156975 0.000245579004803898 0.000272490994801778 0.000261300513744185 0.00183718083813831 0.00105135951664581 0.000320314788064754 -0.000639007874083238 -0.000447206099358426 -2.92708802743653e-05
"202" -0.00114760801226066 -0.000358486148003113 0.00510714408894314 -0.00070064046859437 -0.000515085904785381 0.000351847002972227 0.000705011741537505 0.000214247779593697 0.000312933374360019 0.000263863861983395 0.002022812063396 0.00102995083486426 0.000315490943869273 -0.000647643294815242 -0.000437888342452938 -3.41547763814067e-05
"203" -0.0011387529472244 -0.000352872201373501 0.00511256364334804 -0.000708771857291261 -0.000515945212112588 0.000324886319347556 0.000692842218699696 0.000179288751388197 0.000351182597688535 0.000266895192197682 0.00222536303717216 0.00100773152183405 0.000310833437944833 -0.000656981043901391 -0.000429011001414859 -3.88332673652448e-05
"204" -0.00113058602175004 -0.000348242004985751 0.00511850586172841 -0.000716571605215745 -0.000517180859970753 0.000296198721269303 0.000679865305006388 0.000140657448913457 0.000387296750771236 0.00027041151135324 0.00244571260436437 0.000984759583201756 0.000306306912898256 -0.000667058521712714 -0.000420667671486981 -4.32624263111449e-05
"205" -0.00112321035217381 -0.00034472556897293 0.0051249451353959 -0.000724019021407382 -0.000518837203390752 0.000265803937189746 0.000666087389146444 9.83486794414881e-05 0.000421398309872808 0.00027441332986273 0.00268466976853222 0.000961116231498326 0.000301893526897696 -0.000677866718589479 -0.000412946186370962 -4.7447609539256e-05
"206" -0.00111667994075998 -0.000342458114596327 0.00513181398906833 -0.000731090679867588 -0.000520947707662515 0.000233747811255789 0.000651523124995595 5.23985685739043e-05 0.000453606679414783 0.000278894294442168 0.00294295418905617 0.000936881662996929 0.000297558267826063 -0.000689419752930265 -0.000405924873771553 -5.13600681197666e-05
"207" -0.00111105147105727 -0.000341560510100226 0.00513902431144107 -0.000737765941151985 -0.000523536963886755 0.000200104099656414 0.000636196075162824 2.89474502614485e-06 0.000484081448390416 0.000283846329795663 0.00322117312971848 0.000912137230506309 0.000293250092151613 -0.000701714720282795 -0.000399685379401753 -5.49862765565877e-05
"208" -0.00110638193683007 -0.000342138106442814 0.00514650526489032 -0.00074402887068716 -0.000526635337941202 0.000164959967004027 0.000620129901168906 -5.0025465612398e-05 0.000513011365961487 0.000289246149298774 0.00351980975101304 0.000886988807622547 0.000288934420661926 -0.000714729513333862 -0.000394284751855119 -5.83142093633267e-05
"209" -0.00110272738787002 -0.000344274965524999 0.00515417616877503 -0.00074987817771474 -0.000530260533069543 0.000128425202555429 0.000603364772376953 -0.000106180476661433 0.000540625702621363 0.000295060230129732 0.00383919626042556 0.000861543827819305 0.000284572026835459 -0.00072843076137175 -0.000389783885100119 -6.13553948110948e-05
"210" -0.00110010842807802 -0.000348048984927367 0.00516190590933142 -0.00075530400283715 -0.000534430926704454 9.06492779482083e-05 0.00058593861369608 -0.000165338514576791 0.000567144507400327 0.000301253204852962 0.00417949896344755 0.000835910615095666 0.000280099139976586 -0.00074279091374586 -0.000386229825377349 -6.409805065096e-05
"211" -0.0010985635308646 -0.000353507599624634 0.00516959603908308 -0.000760309493482231 -0.000539151729646892 5.1788124990385e-05 0.000567905084322481 -0.000227226640099478 0.000592839433011423 0.000307771381865064 0.00454068442001721 0.00081021893788552 0.000275469621911569 -0.000757746115247392 -0.000383658076946895 -6.65648031145634e-05
"212" -0.00109810526551899 -0.000360686765769911 0.00517711927942674 -0.000764894249171297 -0.000544426218004874 1.20301976181633e-05 0.000549321194890586 -0.000291524447633725 0.000617983736209522 0.000314563013000969 0.00492247052078018 0.000784591025991454 0.000270623698151492 -0.000773234061534662 -0.000382085802190327 -6.87697801100345e-05
"213" -0.00109874712309876 -0.000369588195627155 0.00518436126934636 -0.000769083347798018 -0.000550254138500335 -2.84224790444323e-05 0.000530251792430565 -0.000357865825181244 0.00064289056783248 0.000321555974435137 0.00532435258176159 0.000759153371417972 0.000265500848901856 -0.000789178893722247 -0.000381530560510435 -7.0749095544521e-05
"214" -0.00110047553537325 -0.000380205678650279 0.00519115368856734 -0.00077288446223003 -0.000556620092734328 -6.93388166795135e-05 0.00051077079833068 -0.000425858382961926 0.000667856653026933 0.000328677680219516 0.00574550707442532 0.000734035388119777 0.000260032504521756 -0.000805501736493605 -0.000381987073377316 -7.25187976046019e-05
"215" -0.00110327597891861 -0.000392501555704847 0.00519736723261457 -0.000776321053861044 -0.000563506951485426 -0.00011046929903848 0.000490964589182576 -0.000495051707746512 0.000693211862569565 0.000335849882150191 0.00618474750284793 0.000709373553106229 0.000254154740533354 -0.000822096739143777 -0.000383442565971633 -7.4136229240869e-05
"216" -0.00110713579207884 -0.000406407691550281 0.00520285620851502 -0.000779432878804474 -0.000570895590967024 -0.000151561828216246 0.000470912319513244 -0.000564995531825264 0.000719289448149078 0.000342976749884413 0.00664055918774877 0.000685307123503765 0.000247807999023196 -0.000838852023243523 -0.000385863336617525 -7.56514926813961e-05
"217" -0.0011120020566441 -0.000421842049357296 0.0052074547619586 -0.000782241257201948 -0.000578743476417676 -0.000192322714925286 0.000450717622569519 -0.000635167295590105 0.000746430616096209 0.000349968004892256 0.00711093103069847 0.000661961249751432 0.000240904981602658 -0.000855655210015879 -0.000389213367479087 -7.71243184154063e-05
"218" -0.00111782791927342 -0.000438697099147034 0.00521099854670319 -0.000784790272907161 -0.000587014230971221 -0.000232463821837271 0.000430480400321726 -0.000705057338274647 0.000774960317477539 0.000356724980966841 0.00759340454886421 0.000639471416726527 0.00023338890510707 -0.000872373333005149 -0.000393433118058896 -7.86161407359871e-05
"219" -0.00112455729946192 -0.000456833985715056 0.00521333289169604 -0.000787130704809488 -0.00059565970020743 -0.00027167746499721 0.000410308372432027 -0.000774110439737225 0.000805221524418045 0.000363138171944629 0.0080849895830287 0.00061796610145353 0.000225185173204059 -0.00088887196897346 -0.00039845518043028 -8.02127184987172e-05
"220" -0.0011321262339342 -0.000476093217471189 0.00521429822543625 -0.000789311925574632 -0.000604625696533291 -0.000309654721445883 0.000390317719768293 -0.000841764955754254 0.000837548816182004 0.000369098102219747 0.00858211493924572 0.000597573817740016 0.000216234418496281 -0.000905001287885394 -0.000404196311289155 -8.20001137915593e-05
"221" -0.0011404387914697 -0.000496305490085265 0.00521370439297129 -0.000791380725648529 -0.000613853768300545 -0.000346059314606141 0.00037062650803731 -0.000907442159342644 0.000872234739603151 0.000374503728196356 0.00908058464603053 0.000578406113929126 0.000206457868261566 -0.000920620390286771 -0.000410571153932397 -8.40529322168099e-05
"222" -0.0011494220932402 -0.000517259885311648 0.00521140727304191 -0.000793403559016525 -0.000623271112382199 -0.000380574220493463 0.000351358263381838 -0.000970561698021468 0.00090959457473204 0.000379233192349365 0.00957556930233758 0.000560591502963264 0.000195799397363907 -0.000935558274962528 -0.000417467587530698 -8.64863137389015e-05
"223" -0.00115896779080537 -0.000538747023289808 0.00520723243344091 -0.000795433584754752 -0.00063280205364195 -0.00041286894275541 0.000332645536425289 -0.00103052520803546 0.000949899253359295 0.000383183104945904 0.0100615660463123 0.000544223411937693 0.000184196950672595 -0.00094966757320117 -0.000424777051754775 -8.93861154699124e-05
"224" -0.00116897649601161 -0.000560527230066968 0.0052010263453953 -0.000797541917546109 -0.00064237426675548 -0.000442619882702463 0.000314609462485013 -0.00108675197765748 0.00099339769983257 0.000386235348016114 0.0105324663464991 0.000529409253742683 0.000171598495585018 -0.000962782839619413 -0.000432376557034 -9.28593816012699e-05
"225" -0.00117933917486893 -0.000582348610293583 0.00519264114335867 -0.000799795444006141 -0.000651903729579485 -0.000469504544918733 0.000297392063450048 -0.00113865066050067 0.00104031689203625 0.000388288040565339 0.0109815097113042 0.000516238878251953 0.000157959670305928 -0.000974733071680622 -0.000440130641807696 -9.70177495744172e-05
"226" -0.00118993352297939 -0.000603955159238474 0.00518191672512952 -0.000802254977053031 -0.000661295517981622 -0.000493210842186428 0.000281116009380276 -0.00118566344266476 0.00109083707703607 0.000389239375166686 0.0114014473345398 0.000504794233155496 0.000143232750837593 -0.000985362065712341 -0.000447899124482652 -0.000101952184079862
"227" -0.00120065261041967 -0.000625063618929584 0.00516873543508557 -0.000804998174162088 -0.000670473557327203 -0.000513445126977322 0.000265915951123782 -0.00122722929878928 0.0011451159051164 0.000388976028108074 0.0117846446638447 0.000495156163174104 0.000127396902663216 -0.000994503706204759 -0.000455540411229954 -0.000107779510193787
"228" -0.00121136287939541 -0.000645403064065739 0.00515296419981022 -0.00080808370392607 -0.0006793305882447 -0.000529915440570221 0.000251926702612388 -0.00126280662197563 0.00120325797293405 0.000387423859450772 0.0121231870693028 0.000487376480989491 0.00011042552398688 -0.00100200097890228 -0.000462901465982176 -0.000114583374628154
"229" -0.00122195211477686 -0.000664677338965638 0.00513450509214535 -0.000811582057170206 -0.000687781664875769 -0.000542366346854355 0.00023927167902717 -0.00129188603428215 0.00126532668550829 0.000384480448215086 0.0124092017495285 0.000481517743494991 9.23080706782957e-05 -0.00100769650355127 -0.000469828881934226 -0.000122473349134364
"230" -0.00123228720157978 -0.000682613972451594 0.00511325349350782 -0.000815551735637781 -0.000695729899615409 -0.000550546993025679 0.000228074410758805 -0.0013139906093204 0.00133132966341747 0.000380075541232145 0.0126350593499038 0.000477610944474755 7.30484682504242e-05 -0.00101145184932518 -0.000476163368763066 -0.00013151141066055
"231" -0.00124225506801311 -0.00069891704749782 0.00508913798485942 -0.000820060159366862 -0.000703085383011584 -0.000554242145467997 0.000218450820007927 -0.00132867327962608 0.00140123402946673 0.000374137810900144 0.012793676780528 0.000475694969686292 5.26588336268703e-05 -0.00101312043196118 -0.00048175008230126 -0.000141792691070861
"232" -0.00125173311972307 -0.000713311295277126 0.00506210269419877 -0.000825152497011373 -0.000709748406886422 -0.000553261528639839 0.000210519238554874 -0.00133551754329663 0.0014749437191055 0.000366612779848635 0.0128788135547267 0.000475787435261466 3.11688053865475e-05 -0.00101257178423242 -0.000486426389412062 -0.00015336501409637
"233" -0.00126060896943782 -0.000725520972396631 0.00503210712371855 -0.000830885836350362 -0.000715637692002679 -0.000547449807108141 0.000204376824585466 -0.00133415944956504 0.00155231874951759 0.000357450699543892 0.0128854340414002 0.000477896112606649 8.61889410967267e-06 -0.00100969212799522 -0.000490036194024244 -0.000166278913407711
"234" -0.00126878241197795 -0.000735280274873954 0.00499915632827934 -0.00083730571293572 -0.000720663827808531 -0.000536681059676923 0.000200125285736949 -0.00132427196235957 0.00163316438267445 0.000346610381050106 0.0128098838990734 0.000482009438300022 -1.49370679986598e-05 -0.00100436717106161 -0.000492435610786332 -0.000180586664141561
"235" -0.00127614023156135 -0.000742344507648733 0.00496324101739718 -0.00084444286587476 -0.000724746503921143 -0.000520863953107183 0.000197847241853446 -0.00130559305526096 0.00171721446941934 0.000334080119944046 0.0126501775301276 0.0004881219320114 -3.94214268792428e-05 -0.000996511742475426 -0.000493459153014348 -0.000196281768333455
"236" -0.00128259312638396 -0.000746478084280836 0.00492440935582269 -0.000852330025796836 -0.000727809659802352 -0.000499950683352217 0.000197618030939336 -0.00127789360789679 0.00180417205600645 0.000319844150422541 0.012406095794 0.000496192822190362 -6.47511522204119e-05 -0.00098604798114972 -0.00049297009729167 -0.000213367220341679
"237" -0.00128806054790599 -0.000747464698243539 0.00488271806338106 -0.000860995317198441 -0.000729785139964081 -0.000473930191661895 0.00019950283206627 -0.00124102093085075 0.00189367628655787 0.000303908642809436 0.0120791955052065 0.000506193637942825 -9.08224616617268e-05 -0.000972904214357717 -0.000490825236975693 -0.000231835848097307
"238" -0.00129246020508494 -0.000745109855561841 0.00483825371107628 -0.000870439544927546 -0.000730598457261351 -0.000442828045073442 0.000203553885099603 -0.00119485505132511 0.00198533311793156 0.000286288637956952 0.0116727504575555 0.000518060544875037 -0.000117521093599877 -0.000957046251716079 -0.000486900037344845 -0.000251640144323854
"239" -0.00129572585790273 -0.00073924323900869 0.00479112346882362 -0.000880675712656445 -0.000730206730172969 -0.000406711287697719 0.00020980713579011 -0.00113936321257882 0.00207868712054712 0.000267020802767635 0.0111916255253582 0.00053173061708804 -0.000144723058071662 -0.000938447376310933 -0.000481075441735142 -0.000272722381138286
"240" -0.00129780652344259 -0.000729717862853156 0.00474146971134122 -0.000891696533440038 -0.000728550703955852 -0.000365695324116299 0.000218291372776066 -0.00107455656290724 0.00217326683848715 0.000246147638287654 0.0106419742985371 0.000547129471700703 -0.000172276349414442 -0.000917095386031045 -0.000473229847125505 -0.000295011344572344
"241" -0.00129866004540466 -0.00071641359427642 0.00468944934104833 -0.000903494176585875 -0.000725599660918242 -0.000319930510580448 0.000229011377454424 -0.00100052764969546 0.00226854875791097 0.000223729486059721 0.0100310069962096 0.000564170142622118 -0.000200029690669231 -0.000893004337161966 -0.000463272608474404 -0.000318407407875787
"242" -0.00129824667231252 -0.000699245309406919 0.00463522981866173 -0.00091604295615877 -0.000721316120914059 -0.000269606317146747 0.000241967684290172 -0.000917417463333302 0.00236400408085554 0.000199846958602475 0.00936663081837542 0.000582745323538054 -0.000227818255008954 -0.000866209832511639 -0.000451111017569714 -0.00034279406870591
"243" -0.00129654423454589 -0.00067815305785861 0.00457901362445294 -0.000929306417963805 -0.000715681393718139 -0.000214948315865592 0.000257140620596987 -0.0008254417675169 0.00245906347889827 0.000174582840030521 0.00865714293537183 0.000602746297831949 -0.000255473496057695 -0.000836763819590731 -0.00043667841932613 -0.000368044733394468
"244" -0.00129354669731224 -0.000653103775404005 0.00452102476413019 -0.000943259692908889 -0.000708679366193556 -0.000156228746520839 0.000274495420039564 -0.000724883886971636 0.00255317700150546 0.000148032559680263 0.0079109956611035 0.000624047307609084 -0.000282810745800753 -0.00080474530917631 -0.00041991385981559 -0.000394014610192733
"245" -0.00128924381347851 -0.000624110332645564 0.00446147537902746 -0.000957845659911287 -0.000700308266700796 -9.37470640212976e-05 0.000293986053256762 -0.000616091932045159 0.00264576545890776 0.00012032257610382 0.00713644535377605 0.000646513363967841 -0.00030964111493391 -0.000770248126144391 -0.000400772720623118 -0.000420536524116398
"246" -0.00128365709105977 -0.000591199557206704 0.00440062314901233 -0.000973019330375527 -0.000690577895794013 -2.783687211047e-05 0.000315548245033102 -0.000499478432476089 0.00273627902980945 9.15611976719889e-05 0.00634143302976005 0.000669996435822015 -0.000335786774302062 -0.000733385068320542 -0.0003792345858489 -0.00044745906895035
"247" -0.0012768035836382 -0.000554444905857167 0.00433870853816471 -0.000988723369163102 -0.000679495833316948 4.11383590418142e-05 0.000339105331367877 -0.000375520637599214 0.0028241722150165 6.18883376059598e-05 0.0055333886352433 0.000694343040556962 -0.000361055307166978 -0.000694303490474939 -0.000355288114148306 -0.000474595472157986
"248" -0.00126870984329602 -0.000513949424591481 0.00427598041772142 -0.00100489036394539 -0.000667094929774381 0.000112790772784589 0.000364565066506982 -0.000244762937395802 0.00290891600913671 3.14485971678747e-05 0.00471911831012127 0.000719387837014075 -0.000385262618897756 -0.000653152982953772 -0.000328948176717014 -0.000501767353933839
"249" -0.00125942244125262 -0.000469845550061511 0.00421270465210039 -0.00102146198509579 -0.000653407154698289 0.000186707717357765 0.000391820752458349 -0.000107807151891809 0.00299002310198309 3.90837428958601e-07 0.00390477319108376 0.00074495748206415 -0.000408218624729692 -0.000610107158531519 -0.000300233654386103 -0.000528789431157626
"250" -0.00124898001464959 -0.000422299541334692 0.00414912009513294 -0.00103836129869994 -0.000638474133648617 0.000262461237340933 0.000420761830648792 3.46883470303395e-05 0.00306703869845538 -3.11242077622801e-05 0.00309577887569588 0.000770865105900973 -0.000429766320514343 -0.000565368575750301 -0.000269207137358643 -0.000555482745049179
"251" -0.00123744337360478 -0.000371504556218621 0.00408548395914304 -0.00105551613772728 -0.000622353897611675 0.000339604452780077 0.000451250906868785 0.000182006874223058 0.00313954991795254 -6.2944377713542e-05 0.00229690392579691 0.000796921058297687 -0.000449746255834982 -0.000519145682643464 -0.000235933427417312 -0.000581677862389576
"252" -0.00122487304977013 -0.000317689708856203 0.00402202583821569 -0.00107285471851348 -0.000605099389779925 0.00041767773278499 0.000483151642668952 0.000333372289462446 0.00320718924821554 -9.48918819628401e-05 0.00151222208483013 0.000822932036655668 -0.000468005948570838 -0.000471662429372153 -0.000200502630769876 -0.000607192143911937
"253" -0.00121133962540919 -0.000261105439044157 0.00395896458994822 -0.00109030109535415 -0.000586787185189185 0.000496230543122886 0.000516314248268809 0.000487977834656506 0.00326964469058421 -0.000126804437110847 0.000745164541080345 0.000848702552320957 -0.000484420163132619 -0.000423155900630132 -0.000163025701040102 -0.000631883513942131
"254" -0.00119692292343861 -0.000202027892917812 0.00389652912103452 -0.00110778303968121 -0.000567487263538125 0.000574784331560837 0.000550577092095921 0.000644961132344382 0.00332667224981105 -0.000158514656668401 -1.39267772875513e-06 0.000874022147815714 -0.000498872439439077 -0.000373876691826823 -0.000123633513219087 -0.000655607207622315
"255" -0.00118168833730808 -0.000140765642969253 0.00383488284954445 -0.00112522167836039 -0.000547289465051762 0.000652886556138213 0.000585770316399738 0.000803423396450757 0.00337805421719113 -0.000189850999772107 -0.000725093190343117 0.000898686249335113 -0.000511286791996685 -0.000324090570655905 -8.24797246726372e-05 -0.000678226884880574
"256" -0.00116573888619462 -7.76337472885086e-05 0.00377422986446669 -0.00114255894719263 -0.000526279287448852 0.000730067939657627 0.000621725171686551 0.000962436723549403 0.00342367375827898 -0.000220653111080083 -0.00142406482377946 0.000922495310984701 -0.000521574973607317 -0.000274048133039648 -3.9728556330965e-05 -0.000699649390167425
"257" -0.00114914149069322 -1.29852226828023e-05 0.00371467660597746 -0.00115970906866688 -0.00050455950897455 0.000805896341018231 0.000658252872817405 0.00112105207030595 0.00346343046233702 -0.000250755161641854 -0.00209684130907804 0.000945240971905476 -0.000529721935033537 -0.000224032822274958 4.42477652375668e-06 -0.000719781474408877
"258" -0.00113199610857931 5.28293124791448e-05 0.00365637119897935 -0.00117661345378249 -0.000482224097830699 0.000879927357070368 0.00069517703742538 0.00127829819100697 0.00349730947177001 -0.000280002861308261 -0.00274230751164875 0.00096672637957516 -0.000535698662118082 -0.000174307749287975 4.97749588450768e-05 -0.000738561276654459
"259" -0.00111440323819337 0.000119440462436146 0.00359941413489032 -0.00119321082198799 -0.000459385908524089 0.000951739738241993 0.000732301122614336 0.00143319973221929 0.00352535126032986 -0.000308249784876558 -0.0033596458018737 0.000986759027104397 -0.000539509119383012 -0.000125142010860636 9.61026400586463e-05 -0.000755957932892105
"260" -0.00109644121378002 0.0001864621629104 0.00354385994009292 -0.00120943186070961 -0.000436155888496118 0.00102094959423088 0.000769439472626978 0.00158477718641453 0.003547625300312 -0.000335353789346133 -0.00394833573605602 0.00100515277008187 -0.0005412080998258 -7.68017227522196e-05 0.000143167179793165 -0.000771948066488766
"261" -0.00107821694916017 0.000253511749465586 0.00348976414595842 -0.0012252291615441 -0.000412649209544171 0.00108716793331955 0.00080639690787178 0.00173205566386733 0.00356428142872166 -0.00036118831037795 -0.0045080140320519 0.00102173986806199 -0.000540852536107599 -2.95451268384939e-05 0.000190719846409054 -0.000786546922314481
"262" -0.0010598176417237 0.000320198934216656 0.00343714996847384 -0.00124054279699264 -0.000388977241267909 0.00115005708248622 0.000842992730167641 0.00187409932976761 0.00357549937887849 -0.000385629644296478 -0.00503857673251632 0.00103634303633492 -0.000538530562677467 1.63785298632699e-05 0.000238502609258885 -0.000799785123583081
"263" -0.00104133925102156 0.000386135359221376 0.00338600354879585 -0.00125532991384918 -0.000365260392421256 0.00120929568545973 0.000879032106919284 0.00200998613730059 0.00358150941968543 -0.000408572377883749 -0.00554001484777472 0.00104882088901857 -0.000534359985668704 6.07308559384353e-05 0.000286246072239759 -0.000811718882279788
"264" -0.00102287114828712 0.000450930775702877 0.00333628916369529 -0.0012695380707874 -0.000341621739319319 0.00126459482034473 0.00091432928287297 0.00213882703883588 0.00358256334123316 -0.000429919483291951 -0.00601246946365206 0.00105903410404024 -0.00052848551012427 0.000103285804952882 0.00033367451256549 -0.000822411370437088
"265" -0.00100451412421851 0.000514218870695551 0.00328796994976 -0.00128313165031846 -0.000318178399995288 0.00131569170071404 0.000948711628880281 0.0022598031733781 0.00357896976147491 -0.000449596943520159 -0.0064561818273097 0.00106687637398306 -0.000521060399389342 0.000143841271791233 0.000380514451237037 -0.000831969345195596
"266" -0.000986341693871638 0.000575620601360633 0.00324094636364879 -0.00129606663928365 -0.000295048816552177 0.00136237955334403 0.000982001523254338 0.00237214114752911 0.00357103452064704 -0.000467524761219641 -0.00687150178232742 0.00107224153282799 -0.000512264300224943 0.000182199021495097 0.000426491458891798 -0.000840480377967394
"267" -0.000968452706165144 0.000634793589122055 0.0031951433957885 -0.00130831477015979 -0.00027234516113808 0.00140445798946546 0.0010140391469953 0.00247514725928857 0.00355911900503829 -0.000483659826908652 -0.00725881415625447 0.00107505703629838 -0.000502286916932558 0.000218191355712404 0.000471332917085178 -0.000848067043390686
"268" -0.000950923788711206 0.00069140288086557 0.00315044285140782 -0.00131984756991105 -0.000250183629362978 0.00144178369440142 0.00104466408694352 0.00256820499599651 0.00354358763740288 -0.000497963840502185 -0.0076185850757526 0.00107526149177134 -0.00049133424812995 0.000251671343184223 0.000514771570748695 -0.000854858499828017
"269" -0.0009338298887081 0.000745127931419085 0.00310671232955184 -0.00133063170007762 -0.000228671180572108 0.00147423980438494 0.00107373308634718 0.00265077334186598 0.00352480567415795 -0.000510404503853366 -0.00795131314564842 0.00107283197618401 -0.000479621124583588 0.000282499364113494 0.000556555120400497 -0.000860959835101035
"270" -0.00091725160487919 0.000795682859973285 0.0030638190650199 -0.00134065104392972 -0.000207910890919122 0.00150174356781389 0.00110110802357853 0.00272241604222407 0.00350317240285958 -0.000520977077678595 -0.00825755030307643 0.00106775326818135 -0.000467351650393009 0.000310574821913726 0.00059644640413161 -0.000866502235374872
"271" -0.000901252369996736 0.000842801806639983 0.0030216120924413 -0.00134987978522539 -0.000187997683162983 0.00152426050549029 0.00112667240405087 0.00278280468744309 0.0034790847585921 -0.000529687106584462 -0.0085378826365812 0.00106003650182841 -0.000454756314334946 0.000335809263034777 0.000634213544991425 -0.000871608152675518
"272" -0.000885899681532293 0.000886251106351844 0.00297993962689115 -0.00135830538869163 -0.000169023682035503 0.00154177704916031 0.00115030964651154 0.00283169934977088 0.00345293971972806 -0.000536554984775404 -0.00879291112727637 0.00104972116688037 -0.000442043641181453 0.000358140227614306 0.000669643925808498 -0.00087639108335212
"273" -0.000871248836611414 0.000925824868009308 0.00293864606301079 -0.00136591606488143 -0.00015107563148149 0.00155431975345666 0.00117192556071119 0.0028689664279596 0.00342513518242309 -0.000541612247259785 -0.00902325939550486 0.00103687219227609 -0.000429420511503163 0.000377531856156652 0.000702566974869738 -0.000880944894722114
"274" -0.000857343051302789 0.000961342858690697 0.00289755981607319 -0.00137269721146771 -0.000134222348799265 0.00156195489424266 0.00119144181757095 0.00289459588241114 0.00339606192448795 -0.000544898103523472 -0.00922959882655498 0.00102155968282862 -0.000417087237573072 0.000393954696811881 0.000732810567279528 -0.000885358266695923
"275" -0.000844238858062138 0.000992673732840471 0.0028565356047136 -0.00137864560188397 -0.000118530312406346 0.00156477787450276 0.00120879125899499 0.00290867071388816 0.00336611554217291 -0.000546480444017119 -0.00941260742420224 0.00100388839315405 -0.000405238507274717 0.000407423301422671 0.000760229863617151 -0.000889721732745989
"276" -0.000831969917881098 0.00101970861426367 0.00281541675988359 -0.00138375926227638 -0.000104054037867141 0.00156290526373651 0.0012239203916986 0.00291138025354523 0.00333567810299238 -0.000546422413694771 -0.00957298866660435 0.000983983634210732 -0.00039403093423211 0.000417962166025905 0.000784726692002223 -0.000894088549574002
"277" -0.000820561981506586 0.00104237237259816 0.00277403441031951 -0.00138803628990491 -9.08401647091135e-05 0.00155649955249577 0.00123679267254205 0.0029030098087173 0.0033051141677207 -0.000544808224716975 -0.00971145350727485 0.000961978198710003 -0.000383643179754043 0.000425606314347989 0.000806204632715953 -0.000898498114034394
"278" -0.00081004296300988 0.00106063750924251 0.00273226727859384 -0.00139148446123423 -7.8923755976291e-05 0.00154573408712838 0.00124739288611469 0.00288394325482206 0.00327478599756562 -0.000541722612683762 -0.00982875864994219 0.000938033410861093 -0.000374199599348902 0.000430428357495656 0.000824619899394615 -0.000902992801160089
"279" -0.000800420832645174 0.00107449609967163 0.00268995623193305 -0.00139410732567285 -6.83280428317642e-05 0.0015308189844965 0.00125571533761326 0.00285464744309616 0.00324503122565443 -0.000537260009271935 -0.00992567520016393 0.000912316669043932 -0.000365833363717701 0.000432508164054205 0.000839941476686542 -0.000907577741778937
"280" -0.000791718013935398 0.00108398987867479 0.00264699901382864 -0.00139591743077527 -5.90659523545195e-05 0.00151198153363807 0.00126177179804106 0.0028156746310429 0.00321618636127699 -0.000531536238768673 -0.0100030129824355 0.000885003797557456 -0.000358639389474448 0.000431951851532135 0.000852170011966285 -0.00091227155762625
"281" -0.000783916815336058 0.00108917937634334 0.00260325168466183 -0.00139692932752347 -5.11405333102833e-05 0.00148947175599204 0.0012655851072869 0.00276763265130912 0.00318855173911848 -0.000524649832250701 -0.0100615741030342 0.000856287361525213 -0.0003527127648749 0.000428865004986431 0.000861337191557728 -0.000917047601163188
"282" -0.000777022232073211 0.00109016913178479 0.00255862300839153 -0.00139716347930174 -4.45443669856398e-05 0.00146356292288952 0.00126720474002512 0.00271120176884851 0.00316242303139492 -0.000516723765155205 -0.0101022445193557 0.000826365588321029 -0.000348109104179359 0.000423391902874066 0.000867501548202235 -0.00092190425517327
"283" -0.000771017298415264 0.00108708939864608 0.00251302203598215 -0.00139664322280927 -3.92606143358974e-05 0.00143452722893406 0.00126667805026633 0.0026471007763222 0.00313806870467256 -0.000507875576283028 -0.0101258813491846 0.000795428498638992 -0.000344875554548974 0.000415669831924639 0.000870743243184657 -0.000926805662762982
"284" -0.000765874956178332 0.00108009694737863 0.00246635812003433 -0.00139539274661649 -3.52561631465003e-05 0.00140266754217304 0.00126408127070298 0.00257609769461919 0.00311574108175959 -0.00049822713723414 -0.0101334169231829 0.000763684024630072 -0.000343050031156181 0.000405854690634032 0.000871165249241183 -0.00093172198325571
"285" -0.000761571689813085 0.00106938086573408 0.00241856497874471 -0.00139344012862297 -3.24975282541617e-05 0.00136828716180059 0.00125949100352328 0.00249897478102978 0.00309565530192671 -0.000487900323985652 -0.0101258027856169 0.000731338272011395 -0.000342642288287296 0.000394122310658854 0.000868901673306651 -0.000936621299021745
"286" -0.00075807676858744 0.00105515331719018 0.00236959299095836 -0.00139082469949911 -3.09314010039094e-05 0.00133169677062231 0.00125300443040915 0.00241655375520001 0.00307802981188154 -0.000477023410603554 -0.0101040075558938 0.000698582902044464 -0.000343650683023011 0.000380642922709731 0.000864096275942456 -0.000941470970652034
"287" -0.000755341237272261 0.00103764292494571 0.00231937711598072 -0.00138758185675421 -3.05138175838207e-05 0.00129321919251963 0.00124472038361372 0.00232963766707229 0.0030630190979633 -0.000465714868366217 -0.0100690521780327 0.000665610418493956 -0.00034605901951356 0.000365605937390922 0.000856915261880858 -0.000946229899896542
"288" -0.000753330507617469 0.00101710502543192 0.00226791312807212 -0.00138375413318357 -3.11712156039303e-05 0.00125316554875377 0.00123476014547589 0.00223905762163158 0.00305079353440803 -0.00045410200329608 -0.0100219885646101 0.000632609456790845 -0.000349846516329854 0.000349205911075237 0.000847538062773031 -0.000950881581256912
"289" -0.000751982473606638 0.000993801189660574 0.00221515086143891 -0.00137938291345919 -3.28385416576494e-05 0.00121186530328374 0.00122323385973618 0.00214561225888494 0.00304145561775015 -0.000442298655210296 -0.00996389464571337 0.000599759148927782 -0.000354965931553741 0.00033163555821263 0.000836160198725637 -0.000955383651840712
"290" -0.000751253785540159 0.000968014611507111 0.00216110139581253 -0.00137452261271257 -3.54446152999664e-05 0.00116962054896534 0.00121027757974887 0.00205010119425752 0.00303511280343403 -0.000430419140415248 -0.00989586905926648 0.000567223965234693 -0.000361367689381349 0.000313098629835287 0.000822984084623843 -0.000959723775759551
"291" -0.000751084394131463 0.000940037187429262 0.00210575652325985 -0.00136921808287915 -3.89007769995408e-05 0.00112675028474616 0.00119602203719995 0.00195329542834179 0.00303182164291929 -0.000418575317857005 -0.00981906348490642 0.000535158196061424 -0.000369010195217692 0.000293792127675519 0.00080821313323603 -0.00096389173508287
"292" -0.000751412518540049 0.000910159779673343 0.00204913523307776 -0.00136352945973349 -4.31275381826321e-05 0.00108354754086056 0.00118060253191136 0.00185593126834351 0.00303162521630572 -0.00040687259861841 -0.0097346120316336 0.000503703743674277 -0.000377810527944745 0.000273919221262121 0.000792071646834683 -0.000967871487389994
"293" -0.000752186277260702 0.000878691111595802 0.00199126681880023 -0.00135750354358519 -4.80348854083763e-05 0.00104030244244946 0.00116416319571017 0.00175872137212497 0.0030345310650533 -0.000395412448325464 -0.00964370864063204 0.000472991012498512 -0.000387713835992134 0.000253678561074943 0.000774769721748252 -0.000971676196946465
"294" -0.000753322826818929 0.000845919601507634 0.00193216853084556 -0.00135120182324455 -5.35340252159295e-05 0.000997294640355777 0.00114684221113719 0.00166232010777749 0.00304050050929881 -0.000384275012428277 -0.00954752296654136 0.000443122568879549 -0.000398630701887676 0.00023325599281049 0.000756530234534453 -0.000975289572884103
"295" -0.000754782101728192 0.00081215481607183 0.00187189791620771 -0.00134468261002876 -5.9540021965605e-05 0.000954779936970849 0.0011287798219268 0.00156735570033284 0.00304949708694163 -0.000373556232609413 -0.00944725589822271 0.000414215334942638 -0.000410492110007197 0.000212852919700882 0.000737563797350894 -0.000978748541729568
"296" -0.000756488452872354 0.000777683835314764 0.00181051362374087 -0.0013380065444642 -6.59521961196229e-05 0.000912997899220587 0.00111011790365699 0.00147440172001354 0.00306143435940459 -0.000363329699312414 -0.00934408060149925 0.000386333706728096 -0.000423210401654315 0.000192633082089109 0.00071808197991457 -0.000982057858184458
"297" -0.000758379621149197 0.000742792257944963 0.00174806492663166 -0.00133122586136421 -7.26910444821413e-05 0.000872179303513273 0.00109099128716693 0.00138397628302443 0.00307619308482389 -0.000353659805391676 -0.00923917868826706 0.000359553722394124 -0.00043669975427542 0.000172777856939548 0.00069829068893809 -0.00098524181640331
"298" -0.000760407872160817 0.000707760501579266 0.0016846408354626 -0.00132440334719106 -7.96600175594242e-05 0.000832523108743256 0.00107153386805516 0.00129656163470289 0.00309365576633592 -0.000344608379812084 -0.0091337100141354 0.000333925243402196 -0.000450872991683263 0.000153447608345678 0.00067838923086948 -0.000988336884101806
"299" -0.000762500655861842 0.000672843220892726 0.00162031473116557 -0.00131759207923523 -8.67757722289144e-05 0.00079420387313442 0.00105187273012335 0.00121255849482205 0.00311364648751947 -0.000336222040344159 -0.00902876393245281 0.000309486907717264 -0.000465631807355668 0.000134782942318239 0.000658565913558415 -0.000991352258181015
"300" -0.000764624658390076 0.000638296277618858 0.001555190614269 -0.00131085483423788 -9.39584551761695e-05 0.00075738520301032 0.00103212908374669 0.00113234544814603 0.003135995140561 -0.000328549560126264 -0.00892543577114563 0.000286258749037883 -0.000480888174437933 0.000116929900811929 0.000638994469203121 -0.000994348701997042
"301" -0.00076671383150738 0.000604343559652247 0.00148936528741246 -0.00130423708317721 -0.000101127210213159 0.000722191917706507 0.00101241430088196 0.00105621545975 0.00316049000367411 -0.00032161227265198 -0.00882472470251855 0.000264245581667983 -0.000496549113281539 9.99992425350777e-05 0.000619844530199297 -0.000997331752268209
"302" -0.000768720466264376 0.000571197671513673 0.00142292845255289 -0.00129779223494729 -0.000108208911054351 0.000688745665976495 0.000992838366864868 0.000984418909408968 0.0031869040620644 -0.00031543430688747 -0.00872758146952541 0.000243446064860044 -0.00051251764071441 8.41028025845048e-05 0.000601263048410283 -0.0010003386115519
"303" -0.000770615767652735 0.000539060907411646 0.00135602679519101 -0.00129156661999319 -0.000115136447694308 0.000657110684189863 0.000973495281524187 0.0009171495118957 0.00321501540193612 -0.000310039186645817 -0.00863485392310289 0.000223836860070731 -0.000528699286290686 6.93240906973045e-05 0.000583396824564849 -0.00100340522208677
"304" -0.000772351822033223 0.000508094271264659 0.00128876439288611 -0.00128560279742257 -0.000121842655270578 0.000627359949821309 0.000954472752601833 0.000854549113003054 0.00324456824456433 -0.000305420121389572 -0.00854734108472272 0.000205387206883095 -0.000545001356768421 5.57431755686522e-05 0.000566362599557974 -0.00100655589158907
"305" -0.000773907199768325 0.000478457420127205 0.00122128379955466 -0.00127994091981423 -0.000128278850877965 0.00059951713345964 0.000935853574900377 0.000796695241939458 0.00327530984587058 -0.000301578862648672 -0.00846569910694664 0.000188063136614386 -0.000561323824199762 4.34206596274233e-05 0.000550273403407528 -0.00100981818230133
"306" -0.000775247464584167 0.000450272043708069 0.00115370096932116 -0.00127461221930211 -0.0001343911344681 0.000573593760025783 0.000917697413153352 0.000743615885713138 0.00330697774656769 -0.00029850279735982 -0.00839047867912959 0.000171808092812545 -0.000577587760117479 3.23858173070675e-05 0.000535222883294851 -0.00101320692225278
"307" -0.00077635931959434 0.000423650383115904 0.00108618075143985 -0.0012696516118613 -0.000140134938454253 0.000549569068827645 0.000900067485368176 0.000695298747895865 0.00333932530164544 -0.000296165910969684 -0.00832214474883674 0.000156558004510791 -0.000593680909365859 2.26743120525285e-05 0.000521294234784984 -0.00101674143629441
"308" -0.000777224010809966 0.000398672726199707 0.00101884943151999 -0.00126507850602746 -0.000145477542716257 0.000527409851063275 0.000883004458867047 0.00065166554780707 0.00337208140888787 -0.000294556325677568 -0.00826098904172718 0.000142245262069002 -0.000609540669207962 1.42793070050323e-05 0.00050853435334879 -0.0010204384115224
"309" -0.000777828564575436 0.000375398166123197 0.000951854427549363 -0.0012609156554318 -0.000150389201677198 0.000507053103937818 0.000866547678570728 0.000612601659039282 0.00340500531047593 -0.00029362115490679 -0.00820723080092881 0.00012880201228392 -0.000625062458382426 7.20447165001283e-06 0.000497008251422989 -0.00102429419731677
"310" -0.000778176935245486 0.00035386894149196 0.000885347827997365 -0.00125718024869079 -0.000154850843894369 0.000488419188103396 0.000850717577269613 0.000577944642551935 0.00343786046917758 -0.000293334959399347 -0.00816091962150152 0.000116144463757241 -0.000640168591586327 1.42116824198834e-06 0.000486741763316758 -0.00102832521915691
"311" -0.000778263193939226 0.000334101438212206 0.00081947109573579 -0.00125387331899838 -0.000158847470822923 0.000471411446836616 0.000835536320741233 0.000547497294994537 0.00347041781757693 -0.000293647034710322 -0.00812201216557137 0.000104183695927742 -0.000654791765941926 -3.1104707252685e-06 0.000477743843130276 -0.00103253225865664
"312" -0.00077808853597612 0.000316088386457632 0.000754354952433053 -0.00125100408373044 -0.000162371178066914 0.000455921055886587 0.000821002436593848 0.000521019234283613 0.0035024693181929 -0.000294506365270102 -0.00809033002761305 9.28337377892438e-05 -0.000668854204289413 -6.44276305011568e-06 0.00047002386405284 -0.00103690041054453
"313" -0.000777671215849949 0.000299809046326072 0.000690153016103235 -0.00124857294623743 -0.000165423784332329 0.000441812248554647 0.000807114853950775 0.000498234587556086 0.00353383102103868 -0.000295866705931381 -0.00806556863518766 8.20047324058761e-05 -0.000682295840057472 -8.64126568831395e-06 0.000463561561616017 -0.00104143656286054
"314" -0.000777026808174114 0.000285225200745333 0.00062700714760967 -0.00124657509432907 -0.000168008583814333 0.000428940354691961 0.000793857590111639 0.000478852846908881 0.0035643479953654 -0.000297665477535577 -0.00804733963646196 7.16043369360919e-05 -0.000695047223723597 -9.7790163790126e-06 0.00045833438209603 -0.00104612618293388
"315" -0.000776161959229702 0.00027227456757059 0.000565030122981239 -0.00124499357527025 -0.000170131778530121 0.000417172317155197 0.000781214849573048 0.000462547217470237 0.00359386349914445 -0.000299841781712087 -0.00803517898606053 6.15415751544535e-05 -0.000707066828696268 -9.94574296786579e-06 0.000454304442513885 -0.00105096359248095
"316" -0.000775108543570007 0.000260882379868844 0.000504349355873364 -0.00124382332444198 -0.000171823032348713 0.000406333004298868 0.000769153220982884 0.000448963769841776 0.0036222728781611 -0.000302340831257192 -0.008028460789978 5.1729361359889e-05 -0.000718306977283467 -9.23877443711202e-06 0.000451416046869439 -0.00105592844171008
"317" -0.000773884442031353 0.000250963979793911 0.000445071407953914 -0.00124303897325236 -0.000173098160278602 0.000396271009396862 0.000757637239737815 0.00043775173880499 0.00364948388632767 -0.000305106183922268 -0.00802657365634615 4.20697148328249e-05 -0.000728742244195179 -7.7602875811667e-06 0.000449599742088181 -0.00106102471611781
"318" -0.000772509197523803 0.000242412351843835 0.000387297320499191 -0.00124262121513779 -0.000173985948737394 0.000386817179195124 0.000746631870046876 0.000428533547826764 0.00367543314011528 -0.000308065327703469 -0.00802879439905271 3.24861023215787e-05 -0.000738335988774507 -5.62342721891451e-06 0.000448794252351108 -0.00106622054414502
"319" -0.000771024595119831 0.000235121798341339 0.000331124495431265 -0.00124254799631684 -0.000174516407692201 0.000377802574708198 0.000736084993073778 0.000420929803680727 0.00370009050647508 -0.000311168740139198 -0.00803437360319358 2.28934928988828e-05 -0.000747077259878428 -2.93496267652092e-06 0.0004489074127071 -0.00107152466561279
"320" -0.000769443926518611 0.000228968061760531 0.000276606949800267 -0.00124278683113808 -0.000174729259105449 0.000369070608457768 0.000725949025476996 0.000414555851231253 0.00372343261080886 -0.000314352776291578 -0.00804251492048333 1.32134197327994e-05 -0.000754960323852176 1.76798962725851e-07 0.000449851856816837 -0.0010769076118186
"321" -0.000767805162999577 0.000223824499910234 0.000223819659210602 -0.0012433088026177 -0.000174656633984482 0.000360461747354875 0.000716171643633384 0.000409038534383855 0.00374548127484038 -0.000317563285232514 -0.00805244578737368 3.37794722742652e-06 -0.000761986401037838 3.60401800504391e-06 0.000451529912769535 -0.00108237296631058
"322" -0.000766130789496028 0.00021955768442806 0.000172804375214597 -0.00124408217858923 -0.000174340558501967 0.000351816890726649 0.000706701655839744 0.000404005066341007 0.00376627116318596 -0.00032074617965806 -0.00806333762360333 -6.68383628576129e-06 -0.000768162022514092 7.21898001096686e-06 0.000453840032810166 -0.00108790078564363
"323" -0.000764454767704546 0.000216032041945293 0.000123590698061188 -0.001245075549893 -0.000173823452168758 0.000342990566809108 0.000697478095287462 0.000399091165281199 0.00378586076125864 -0.000323851917090376 -0.00807438452331117 -1.70243309339339e-05 -0.000773514343975166 1.09062570680134e-05 0.000456677530152826 -0.00109348435127067
"324" -0.000762799567611568 0.000213110577970752 7.61933544200099e-05 -0.00124625563464834 -0.000173152798315058 0.000333854288423133 0.000688445163780967 0.000393954143081254 0.00380432519110228 -0.000326836020507845 -0.00808481421727896 -2.77006425970919e-05 -0.000778067641996742 1.45527865487523e-05 0.000459926566513095 -0.00109912976636579
"325" -0.00076119165102209 0.000210653504480414 3.06076496793779e-05 -0.00124757656556693 -0.000172362719878961 0.000324279620906557 0.000679551362719122 0.000388273868529528 0.00382175251927 -0.000329653983656058 -0.00809387876018693 -3.87603340624103e-05 -0.000781871209998253 1.80411224002983e-05 0.000463477934100518 -0.00110481968817293
"326" -0.00075966452854315 0.000208530386454475 -1.3162022174144e-05 -0.00124901554422609 -0.000171502431835434 0.000314144199186252 0.000670740444230617 0.000381737544954652 0.00383826409207407 -0.000332274376050264 -0.00810083541020702 -5.02303387540106e-05 -0.000784960187608299 2.12745433476247e-05 0.000467223860433516 -0.00111056248815045
"327" -0.00075823317831809 0.000206604936402258 -5.51773134741853e-05 -0.0012505307859986 -0.000170615056666368 0.00030336796668286 0.000661956763276955 0.000374076900517391 0.00385396512989678 -0.000334659913037768 -0.00810503835066422 -6.21415224393223e-05 -0.000787397477961697 2.41501971834161e-05 0.000471053856862283 -0.00111635880846856
"328" -0.000756924489853409 0.000204751902117142 -9.54544133450566e-05 -0.0012520891827968 -0.000169739646743358 0.000291846143673436 0.000653155971920346 0.000365036149820223 0.00386899051095777 -0.000336785389451142 -0.00810583355619386 -7.45157585404083e-05 -0.000789228806081285 2.65718189354212e-05 0.000474862919470644 -0.00112219744247774
"329" -0.000755750361297962 0.000202847336513773 -0.00013407977779173 -0.00125364984438091 -0.00016891947812691 0.000279527491073328 0.000644288629840909 0.00035440298437046 0.00388346070988566 -0.000338630386801831 -0.00810268502656743 -8.73651940939181e-05 -0.000790536664483143 2.84613815048305e-05 0.00047854130913257 -0.00112809076378871
"330" -0.000754738074960053 0.000200780851288143 -0.000171107050768683 -0.00125518954593946 -0.000168186927218413 0.000266350028652038 0.000635315385379463 0.000341991930037585 0.00389752340131132 -0.000340178917447799 -0.00809507020685524 -0.000100690443768353 -0.000791377588874757 2.97445635054649e-05 0.000481992853891066 -0.00113404254002242
"331" -0.000753898169476772 0.000198450644670259 -0.000206622130947946 -0.00125667092649763 -0.000167576551064039 0.000252270100290082 0.000626196963344472 0.000327652409860409 0.00391131302735218 -0.000341421007164099 -0.00808255240636434 -0.000114486894895861 -0.000791830860004894 3.03572495537593e-05 0.000485136250521506 -0.0011400571568669
"332" -0.000753235160016074 0.000195755012270753 -0.000240736184645979 -0.0012580591796811 -0.000167125133412904 0.000237275709304107 0.000616898992488411 0.000311262070305223 0.003924951738913 -0.000342349442015134 -0.00806475010487001 -0.000128742992212959 -0.000791980293206651 3.02385065405258e-05 0.000487869125984484 -0.00114612731595318
"333" -0.000752762203294938 0.000192610640395279 -0.00027354248108809 -0.00125933079994061 -0.000166858292394276 0.000221351842304485 0.000607395308270934 0.000292741990492871 0.00393857150378006 -0.000342964816513326 -0.00804136118707367 -0.000143442049066486 -0.000791886802293149 2.93504800441541e-05 0.000490129091777649 -0.0011522622475729
"334" -0.000752487911752377 0.000188946271427114 -0.000305159037627543 -0.00126045326448294 -0.000166795341449991 0.000204516897140717 0.000597665953930525 0.000272048398708375 0.00395229202260853 -0.000343273774973159 -0.00801217183236257 -0.000158549746701094 -0.000791648254711038 2.76646170925561e-05 0.000491838515295443 -0.00115847214233786
"335" -0.000752414684533114 0.000184696270680778 -0.000335707298361015 -0.00126141014489122 -0.000166965681491953 0.00018678586637125 0.000587691420228826 0.000249163307284212 0.00396622588921741 -0.000343285115404024 -0.00797698902152595 -0.000174037230821092 -0.000791328920541859 2.51534084057435e-05 0.000492945334826644 -0.00116475571926341
"336" -0.000752545442760002 0.000179810268622307 -0.000365314181866923 -0.00126217224422149 -0.000167381574587333 0.000168202128133477 0.000577461455063977 0.000224110867619584 0.00398046807751197 -0.00034300637398101 -0.00793573991182436 -0.000189863816441158 -0.000791003507157986 2.18133605829688e-05 0.000493396757749849 -0.00117111079194896
"337" -0.000752874474160001 0.000174249827050233 -0.000394112568323517 -0.0012627203518542 -0.00016805095392183 0.000148815513728515 0.00056697154498179 0.000196945696354694 0.00399510711401669 -0.00034246549887991 -0.0078883988837671 -0.000205985338825553 -0.000790756633932292 1.76409242438594e-05 0.000493155631559055 -0.00117754439320535
"338" -0.000753402011533348 0.000167985493118151 -0.000422236023264036 -0.0012630362224358 -0.00016898996643594 0.000128691115798202 0.000556220719317108 0.000167741512751118 0.00401020995457666 -0.000341679413384276 -0.00783501086962576 -0.000222351625011215 -0.000790654749234969 1.26507081455325e-05 0.000492192370642751 -0.00118405812384649
"339" -0.000754121614313059 0.000161002406659738 -0.000449816104369333 -0.00126310959317478 -0.000170193297846802 0.000107897641755339 0.000545213220516166 0.000136614816085428 0.00402583179411748 -0.000340669047964887 -0.00777568596075061 -0.000238909332389106 -0.000790763881747891 6.86297724601125e-06 0.00049049100890182 -0.00119064687808874
"340" -0.00075503021640785 0.000153299950318063 -0.000476974274911122 -0.00126292235859623 -0.000171666138625501 8.65206788996071e-05 0.000533963434811584 0.00010370330564757 0.00404202378928034 -0.000339477216500334 -0.00771060865083888 -0.000255607895562284 -0.000791146713077886 3.11061691127743e-07 0.000488036735095249 -0.00119732366394924
"341" -0.00075610968242312 0.000144876510828334 -0.000503869610298907 -0.00126246695707106 -0.000173405029602438 6.46583474441557e-05 0.000522482730069607 6.91559745887399e-05 0.00405878722633813 -0.000338116455744721 -0.00764002287008063 -0.000272385143158402 -0.000791864022636147 -6.96376256563714e-06 0.000484837464873954 -0.00120406996816249
"342" -0.00075735948765858 0.000135752366964423 -0.000530611347831513 -0.00126174181682962 -0.000175396829718227 4.24082823692347e-05 0.000510792076828403 3.31597601594778e-05 0.00407613375015417 -0.000336630713959558 -0.0075642236219469 -0.00028918143013198 -0.000792957960736693 -1.49136906689205e-05 0.000480902836970676 -0.00121089332300323
"343" -0.000758763134443336 0.000125952708115351 -0.00055733336165149 -0.00126073633689239 -0.000177632749347303 1.98730516841122e-05 0.000498915476021537 -4.09958116638244e-06 0.00409404118413386 -0.000335045471242727 -0.0074835711901863 -0.000305938949927108 -0.000794474588144594 -2.34779269159743e-05 0.000476265092575141 -0.00121778465980375
"344" -0.000760313950301492 0.000115514195724343 -0.000584144199777126 -0.00125945601232841 -0.000180095309060871 -2.83559496593991e-06 0.000486876412144239 -4.24051852642265e-05 0.00411248412424356 -0.000333408122555483 -0.00739848146419903 -0.000322596571622382 -0.000796457916473849 -3.25924396353478e-05 0.000470934259802441 -0.00122475450095691
"345" -0.000761997303833921 0.000104477277117186 -0.000611166222499021 -0.00125789587963926 -0.000182765340818063 -2.5598624066076e-05 0.00047471135928982 -8.15379361376145e-05 0.00413139859943754 -0.000331740369023213 -0.00730942720768171 -0.000339095572781945 -0.000798936730139307 -4.21825485045716e-05 0.00046496330105202 -0.00123178958838229
"346" -0.000763790976815822 9.28915051459709e-05 -0.00063850629773224 -0.00125606367239149 -0.000185624632655971 -4.83040577613155e-05 0.000462449504579286 -0.000121274845286906 0.00415071480772529 -0.000330085334666676 -0.00721689421774002 -0.000355380157946999 -0.000801935720545059 -5.21809184688554e-05 0.000458393706734975 -0.00123888444717697
"347" -0.000765689383702985 8.08110549120328e-05 -0.000666252224770526 -0.0012539648443747 -0.000188645028598733 -7.08386945255278e-05 0.000450125847406293 -0.000161376246899246 0.00417034573309719 -0.000328477003821781 -0.00712143409015194 -0.00037140194245291 -0.000805468082134187 -6.25082123296995e-05 0.000451268393924294 -0.00124603656365716
"348" -0.000767683362540825 6.83016121813538e-05 -0.000694486040540606 -0.00125161443893336 -0.000191805634801817 -9.30903341270719e-05 0.000437777257051442 -0.000201619898294954 0.00419018268079513 -0.000326949189087113 -0.00702362227736746 -0.000387094939689823 -0.000809541969923244 -7.30712559767488e-05 0.000443661606951311 -0.00125325199412588
"349" -0.000769748635626629 5.54235905191387e-05 -0.000723298322666242 -0.00124901335247434 -0.000195073030030339 -0.000114937686368157 0.000425444184639498 -0.000241759779874171 0.00421010606772202 -0.000325536163368715 -0.0069240842213665 -0.00040243070850307 -0.000814172866306738 -8.37920581043538e-05 0.00043561729158651 -0.00126051471609222
"350" -0.000771888087124303 4.22472061818728e-05 -0.000752734445977082 -0.00124618368968108 -0.000198418288725335 -0.000136281930412051 0.000413159054807589 -0.000281571563122971 0.00422998725927536 -0.000324266348558215 -0.0068234325336364 -0.000417351237874595 -0.000819343126305496 -9.45810966549127e-05 0.000427213161799453 -0.00126783410295065
"351" -0.000774074235904592 2.88398330882038e-05 -0.000782866380756044 -0.00124313777162766 -0.000201820307622822 -0.00015702138326776 0.000400961615978722 -0.000320838902053065 0.00424966972912563 -0.000323173994591603 -0.00672229216001393 -0.000431823747187473 -0.000825050066032501 -0.000105355666359796 0.00041851375825754 -0.00127519047946275
