"V1" "V2" "V4" "V5" "V7" "V8" "V10" "V11" "V13" "V14" "V15" "V17" "V18" "V20" "V21" "V23"
"1" 0.000264472524358702 0.000197809377952347 0.000434307066292256 0.000111133817981594 0.00114668545357645 -0.00023071202716096 0.000354867432520762 -5.11812247296882e-05 3.34439380930533e-05 0.000134749940724894 -0.000141371976324896 -6.39372637690011e-05 -0.000374133679958954 6.14816649065404e-05 -8.10083454249289e-05 -9.10501025488283e-05
"2" 0.00024155843022444 0.000151718909029641 0.000415437865555649 9.81932213840591e-05 0.00112779282723711 -0.000248045438887458 0.000314435540641861 -6.97772081166682e-05 1.70572655137044e-05 0.000121125837989034 -0.000154005499495042 -8.01108059677746e-05 -0.000393866729430356 5.53276443062548e-05 -9.9884173482193e-05 -0.000102446346413725
"3" 0.000214496810845528 0.000100062502147621 0.000391979208121407 8.30667838404778e-05 0.001100513827662 -0.000267685005063467 0.000267810518744216 -9.24296297898457e-05 2.56404417033145e-07 0.000106632758824621 -0.000167037171676929 -9.73771874483848e-05 -0.000414505079064524 4.85595421303953e-05 -0.000119193603498026 -0.000114756512283988
"4" 0.000183321359501268 4.29711466915032e-05 0.000363993029649992 6.58057632274946e-05 0.00106482324901222 -0.000289571557978598 0.000215066679719098 -0.000119107378412797 -1.68248729986546e-05 9.138073375284e-05 -0.000180380904268183 -0.000115639858647467 -0.000435957933501206 4.12907354405193e-05 -0.000138812501090258 -0.000127896509873826
"5" 0.000148104173303846 -1.93500555137321e-05 0.000331577643608679 4.65063738965569e-05 0.00102079324023041 -0.00031361759756037 0.000156350609024998 -0.000149724706641408 -3.4054838286069e-05 7.54836582691258e-05 -0.000193948966449102 -0.000134793363271091 -0.000458129927622405 3.36237419700421e-05 -0.000158619691564268 -0.000141776640229752
"6" 0.000108945994255632 -8.66484851853427e-05 0.000294875231941279 2.52584920111087e-05 0.000968576203659812 -0.0003397303024275 9.18621695705027e-05 -0.000184172404435576 -5.13009523750782e-05 5.90516127003197e-05 -0.000207650724832843 -0.000154725653203975 -0.000480916261100142 2.56701792764878e-05 -0.000178485652665777 -0.000156295391122441
"7" 6.60074150496569e-05 -0.000158604349815963 0.00025408554533011 2.2002376236376e-06 0.000908434342411609 -0.000367775815936121 2.18753979438504e-05 -0.000222281659097296 -6.84130525739527e-05 4.22229224494556e-05 -0.000221380086429851 -0.00017530884130648 -0.00050420054905286 1.75643970175303e-05 -0.000198270816448614 -0.000171335285205394
"8" 1.9480707498716e-05 -0.000234834327167265 0.000209452848280477 -2.25258129629792e-05 0.000840712482444162 -0.000397605760286186 -5.32706906994413e-05 -0.00026384702442881 -8.52557438415206e-05 2.51168483327411e-05 -0.00023503449569381 -0.000196406774170943 -0.00052785014929453 9.43144719667551e-06 -0.000217834721023421 -0.000186766942110293
"9" -3.04108900188726e-05 -0.000314916562159072 0.000161251366571529 -4.87507499219058e-05 0.00076584001764491 -0.000429060004298594 -0.000133178071247039 -0.000308630132914471 -0.000101684044230276 7.87353044520321e-06 -0.000248512870560589 -0.00021788957863039 -0.000551739327180716 1.39363010713407e-06 -0.00023704226148856 -0.000202464163789671
"10" -8.33990078344313e-05 -0.000398373845416596 0.000109812164888812 -7.62880860994992e-05 0.000684334503099755 -0.000461951772831864 -0.000217403195198921 -0.000356360749446663 -0.000117552497683672 -9.37542637629482e-06 -0.000261701266636375 -0.000239609533991422 -0.00057573299403309 -6.40841189157316e-06 -0.000255747157151087 -0.000218287777105307
"11" -0.000139179942978133 -0.000484680744422804 5.54851018206773e-05 -0.000104943302090073 0.000596782271825014 -0.00049607836822591 -0.000305429217278095 -0.000406717331902779 -0.000132718825011189 -2.64923712270727e-05 -0.000274492075201968 -0.000261422833644124 -0.000599676662210805 -1.38525418304634e-05 -0.00027380797814795 -0.000234088760450039
"12" -0.000197417432767048 -0.000573277016570648 -1.3265106302245e-06 -0.000134494077302468 0.000503845745089349 -0.000531221269598453 -0.000396710284900624 -0.00045936716510995 -0.000147041520904399 -4.33372025058133e-05 -0.000286769989314871 -0.000283172942217962 -0.000623425640587947 -2.07990808292311e-05 -0.000291080368399421 -0.000249715815743167
"13" -0.00025773768260686 -0.000663562004995562 -6.02027509968259e-05 -0.000164706378796205 0.00040623609558835 -0.000567144625220003 -0.000490637840233797 -0.000513924652958169 -0.000160387650333598 -5.97723505064052e-05 -0.000298427083990231 -0.000304711833163705 -0.000646818463457258 -2.71246720670927e-05 -0.000307425386138823 -0.000265017014445634
"14" -0.000319748121261265 -0.000754924378674965 -0.000120704761945555 -0.000195343473256322 0.000304718347003711 -0.000603605738181588 -0.000586586256256658 -0.000570013145831115 -0.000172617403124157 -7.56649635318603e-05 -0.000309347661972093 -0.000325886028158275 -0.000669697362272826 -3.2707140027648e-05 -0.000322706485664469 -0.000279833478990036
"15" -0.000383032315341436 -0.000846712024135832 -0.000182363436863464 -0.000226158743614507 0.000200091315168471 -0.000640354727541285 -0.000683887265715348 -0.000627215324585981 -0.000183610420326127 -9.08882894440171e-05 -0.000319428786340438 -0.000346549778961065 -0.000691908305173204 -3.742964883324e-05 -0.000336793169008512 -0.000294010100141872
"16" -0.000447140556918978 -0.000938263610090934 -0.000244701429716131 -0.00025688835041914 9.31993232504757e-05 -0.000677120409245449 -0.000781844451666922 -0.000685087780224961 -0.000193250204017091 -0.000105311243113343 -0.000328560684488181 -0.00036654587587106 -0.000713278276520801 -4.11857857069009e-05 -0.000349559336263426 -0.000307393655329
"17" -0.000511622099446389 -0.00102891638363998 -0.000307233347673517 -0.000287275786443109 -1.51177554441107e-05 -0.000713637485924232 -0.000879754725748503 -0.000743202259682679 -0.000201423584580384 -0.000118815096570505 -0.000336646470074823 -0.000385739158304376 -0.000733650208407737 -4.38758351969451e-05 -0.00036088628439683 -0.000319827633243404
"18" -0.000575998239073004 -0.00111800228266963 -0.000369467670525075 -0.000317056745587929 -0.000123992224528228 -0.000749637597393863 -0.000976898038617588 -0.000801109752063972 -0.00020802903715439 -0.000131288511021647 -0.00034358467554224 -0.000403983228743382 -0.000752864230853435 -4.54073596446549e-05 -0.000370663625451074 -0.000331164678165896
"19" -0.000639797722545714 -0.00120485103585027 -0.000430914927991765 -0.000345972628696358 -0.000232563148757804 -0.000784841162577429 -0.00107254956066534 -0.000858356367348223 -0.000212981207006107 -0.000142628622017493 -0.000349286010732016 -0.000421149722147191 -0.000770758563411858 -4.57102355632441e-05 -0.000378795485708172 -0.000341264449622053
"20" -0.000702533716497328 -0.0012888158500514 -0.000491094152029294 -0.000373765809245291 -0.000339985882729402 -0.000818982666689429 -0.0011659943620222 -0.000914496675294372 -0.000216193097932387 -0.000152734075095103 -0.000353667589338837 -0.000437109359664252 -0.000787180249420153 -4.47093775636549e-05 -0.000385186785995136 -0.000349992428109999
"21" -0.000763724537158741 -0.00136926151997376 -0.000549531255708361 -0.000400188158015083 -0.000445424816087738 -0.000851794902984169 -0.00125652468404985 -0.000969089253435476 -0.000217603655195574 -0.000161523332992478 -0.000356653949339212 -0.000451750162952889 -0.000801982672413656 -4.23563279178486e-05 -0.000389760117864473 -0.0003572208799759
"22" -0.000822905023615879 -0.00144557434320389 -0.000605781417095986 -0.000425000323947472 -0.000548078505187931 -0.000883021732288629 -0.00134345043448257 -0.00102171671001764 -0.000217160461077058 -0.000168924275818034 -0.000358173968086166 -0.000464967527091351 -0.000815028093908374 -3.86226983713494e-05 -0.000392455351856321 -0.000362839066047727
"23" -0.000879604405841418 -0.00151717113692958 -0.000659405577673399 -0.000447974241712184 -0.000647170375429927 -0.000912406790833522 -0.00142610303936466 -0.00107195426265411 -0.000214825085408852 -0.000174872635529853 -0.000358176174170631 -0.000476659844495276 -0.000826180311534498 -3.34776664788469e-05 -0.000393219319410913 -0.000366745481995144
"24" -0.000933383576084313 -0.00158349780308665 -0.000709999120924052 -0.000468895875399648 -0.00074197947161016 -0.000939722099565589 -0.0015038423966656 -0.00111941864488548 -0.000210576248652191 -0.00017932406023911 -0.000356613831190627 -0.000486754390506134 -0.00083532025081419 -2.69247343967042e-05 -0.00039201895213799 -0.000368850730847107
"25" -0.000983813423634772 -0.00164405639882578 -0.000757179361392715 -0.000487573599700384 -0.000831814678952006 -0.000964740277604502 -0.00157607464204475 -0.00116374935129334 -0.000204393962036394 -0.000182236489685862 -0.000353443365510072 -0.000495177425488335 -0.000842339235936088 -1.89628653233341e-05 -0.000388823790577292 -0.000369079298798093
"26" -0.00103048996488858 -0.00169837004438437 -0.000800600677559887 -0.000503822750632532 -0.000916051688412907 -0.000987256369168872 -0.00164223259860558 -0.0012045969361959 -0.000196299270624232 -0.000183594155921568 -0.000348649673190257 -0.000501871517914888 -0.000847137495113625 -9.62698755475709e-06 -0.000383637050447037 -0.000367380278596063
"27" -0.00107304934285615 -0.00174602069784693 -0.000839952998952022 -0.000517492612233144 -0.000994108925424425 -0.00100708527923416 -0.001701804058079 -0.00124166815010908 -0.000186309551988916 -0.000183386861681555 -0.000342217870079712 -0.000506799370657861 -0.000849637836765326 1.04121899094101e-06 -0.000376465692082386 -0.000363708577659922
"28" -0.00111114600641722 -0.00178664018930701 -0.000874953652046492 -0.000528448740052086 -0.00106547308887312 -0.00102405951226637 -0.00175432728917448 -0.0012746850680099 -0.000174459453011888 -0.000181619755432088 -0.000334150701273021 -0.000509931993179882 -0.000849773253824105 1.29876324738499e-05 -0.000367334045985726 -0.000358043086452235
"29" -0.00114448038101535 -0.00181991674026781 -0.000905378316317474 -0.000536585154658388 -0.00112968867014815 -0.00103803913308598 -0.001799390763436 -0.00130342218503515 -0.00016080941092469 -0.000178314681105313 -0.000324459827332141 -0.000511261855073705 -0.000847491708161253 2.61386262620854e-05 -0.000356287018139487 -0.000350376889988894
"30" -0.00117278615819409 -0.0018455791601645 -0.000931019171348764 -0.000541815457525335 -0.00118635883700836 -0.00104889820297818 -0.00183663377033429 -0.00132767459651777 -0.000145431970478497 -0.000173514209050547 -0.000313180681877687 -0.000510789650052083 -0.000842764209870828 4.04004598466057e-05 -0.000343385407514592 -0.000340727980609101
"31" -0.0011958375960118 -0.00186343901874102 -0.000951729363454475 -0.000544083304616915 -0.00123516520646445 -0.00105655096569567 -0.00186577228152756 -0.00134730802895546 -0.00012840232224525 -0.000167260815904222 -0.000300344055051303 -0.000508538141902305 -0.000835575688017549 5.5682907018117e-05 -0.000328697221977795 -0.000329122468096558
"32" -0.00121345401971868 -0.00187333234912606 -0.000967390236031895 -0.000543353694469666 -0.00127583378193331 -0.0010609130485214 -0.00188656075591516 -0.00136218763165636 -0.000109830824999771 -0.000159616159585756 -0.000286009153692193 -0.000504533991462651 -0.000825924204628348 7.18680490756968e-05 -0.000312311006909433 -0.000315610822306708
"33" -0.00122550031598993 -0.00187519051980316 -0.000977943506559783 -0.000539631417883943 -0.00130818678474507 -0.00106195533444007 -0.0018988384354247 -0.0013722692835937 -8.98274730580852e-05 -0.000150662489496273 -0.000270242785576735 -0.000498835567880206 -0.000813837215678957 8.88270306627906e-05 -0.000294335253936655 -0.000300264786514356
"34" -0.00123189232477548 -0.00186897791289455 -0.00098335512042297 -0.000532932132665614 -0.00133208362492219 -0.00105965241995306 -0.00190249728252691 -0.00137751771437283 -6.85240200836843e-05 -0.000140485882830088 -0.000253124834854806 -0.000491500461577248 -0.000799355867585661 0.000106427507760373 -0.000274886151613014 -0.000283165536459394
"35" -0.00123257516629658 -0.00185473751691236 -0.000983643768655294 -0.000523309542339239 -0.00134746264559792 -0.00105401443173432 -0.00189749272956401 -0.00137795628673822 -4.60523544760358e-05 -0.000129184947503783 -0.000234743544545339 -0.000482602457289819 -0.000782534394259623 0.000124533990697621 -0.000254085989459561 -0.000264413227713574
"36" -0.00122756128894696 -0.00183255421294009 -0.000978871198721227 -0.000510835765337653 -0.00135433042497582 -0.00104507570714751 -0.00188385163957358 -0.00137364237391361 -2.257412509339e-05 -0.000116870629736552 -0.000215202265442761 -0.000472230186988116 -0.000763452293159311 0.000142986716845294 -0.00023207956025289 -0.000244124624472022
"37" -0.00121689480870423 -0.00180258612165949 -0.000969130649436326 -0.000495614108675599 -0.00135275207367395 -0.00103290006982285 -0.00186165477770587 -0.00136469190094694 1.75623610579486e-06 -0.00010366474004326 -0.000194615809390606 -0.000460485935801841 -0.000742200802057326 0.00016163694488486 -0.000209017624833379 -0.000222433153734923
"38" -0.00120066770174277 -0.00176504219439973 -0.000954561983417148 -0.000477764290599487 -0.00134284933633937 -0.00101756482131443 -0.00183105927755436 -0.00135124094092459 2.67700218938515e-05 -8.96960683107051e-05 -0.000173102066951279 -0.000447474625744042 -0.000718894665302593 0.000180321705610131 -0.00018505863331723 -0.000199478538371118
"39" -0.00117901734277407 -0.00172018829270232 -0.000935341849449322 -0.000457434930315238 -0.00132481538142968 -0.000999181412132656 -0.00179227159505081 -0.00133348094643091 5.22894412270949e-05 -7.50942691775423e-05 -0.000150789753729046 -0.000433320932512882 -0.000693650581668607 0.000198885825467762 -0.000160365069687337 -0.000175414118633464
"40" -0.00115212039562094 -0.00166833884519714 -0.000911670334045916 -0.000434788734179018 -0.00129889332130115 -0.000977877389800258 -0.0017455583380176 -0.00131162241214399 7.81334875872253e-05 -6.00018556578569e-05 -0.000127820137091841 -0.000418143429678846 -0.000666614085822404 0.000217164093979513 -0.000135112538699363 -0.000150409259448463
"41" -0.00112020289641983 -0.00160986621068137 -0.000883801399086377 -0.000410016926359971 -0.00126537983264501 -0.000953801063616645 -0.00169124098910744 -0.0012859269908155 0.000104116970766764 -4.45647768690583e-05 -0.000104331066204743 -0.000402077811430954 -0.000637933029304863 0.000234998634182962 -0.000109474302002883 -0.000124635270346018
"42" -0.00108351488582177 -0.00154518252119547 -0.000852000336529182 -0.000383311981188655 -0.00122463305914783 -0.000927119098615985 -0.00162970327161219 -0.00125667673275084 0.000130051974573432 -2.89288891167027e-05 -8.04729414471493e-05 -0.000385261707644636 -0.000607772034779082 0.000252237922439349 -8.36263167567523e-05 -9.82681479501821e-05
"43" -0.00104235162855614 -0.00147475083003862 -0.000816567970040892 -0.000354892692979617 -0.001177059335884 -0.000898012540670983 -0.00156137284470218 -0.00122418543167836 0.000155754401167233 -1.32426016028055e-05 -5.63926786576833e-05 -0.000367833026431888 -0.000576297839065928 0.000268730955962183 -5.77483504409101e-05 -7.14917625734081e-05
"44" -0.000997035019867655 -0.00139907329391838 -0.000777831663313316 -0.000324985902924851 -0.00112310727095482 -0.000866679409161136 -0.00148672316652279 -0.00118878735874999 0.000181027752813687 2.34985083341524e-06 -3.22471601521909e-05 -0.000349935537483219 -0.000543695189452774 0.000284319918407561 -3.20239229102881e-05 -4.4498769560207e-05
"45" -0.000947914479034942 -0.00131868906943638 -0.000736134868650891 -0.000293829357996824 -0.00106327519719693 -0.000833328156778728 -0.0014062683852223 -0.00115084074504615 0.000205696382962659 1.76993521068165e-05 -8.18606813493756e-06 -0.000331711450790586 -0.000510143587389289 0.000298874424288667 -6.62222479799599e-06 -1.74729401442453e-05
"46" -0.000895373315936911 -0.00123417904006759 -0.000691847180604797 -0.000261667831695671 -0.000998105820934708 -0.000798177400919177 -0.00132057718068072 -0.00111072882690958 0.000229576860923462 3.26709803176901e-05 1.56388075104167e-05 -0.000313300380552051 -0.000475838001701522 0.000312269729629869 1.82858106899715e-05 9.40066751620771e-06
"47" -0.000839803616635569 -0.00114614067409448 -0.000645350741809094 -0.000228745880975514 -0.000928176949217132 -0.000761455790155316 -0.00123023942407174 -0.00106883041920554 0.000252492697756874 4.71187834041644e-05 3.90741225169667e-05 -0.00029484527548846 -0.000440968048215129 0.000324374580131518 4.25277461361589e-05 3.59305552340674e-05
"48" -0.00078162803855331 -0.0010552148525059 -0.000597035359583394 -0.000195319667337575 -0.000854097161377776 -0.00072338782043897 -0.00113587591465306 -0.00102555685991394 0.000274289849836433 6.09201941829455e-05 6.19823833412947e-05 -0.000276475159118321 -0.000405726848243505 0.000335096124473366 6.59526055177453e-05 6.19478432627338e-05
"49" -0.000721272276150079 -0.000962047595597976 -0.000547312471965987 -0.000161639398383553 -0.00077651442011837 -0.000684212853946179 -0.0010381382865044 -0.000981303168992267 0.000294800477497716 7.39510665811001e-05 8.42140286582089e-05 -0.000258324146898189 -0.000370304413789275 0.000344325729963539 8.84070105119227e-05 8.72705581359818e-05
"50" -0.000659189750673311 -0.000867307294759742 -0.000496584652030747 -0.000127952487184537 -0.000696091577278882 -0.000644164139246666 -0.000937697656453724 -0.000936479709362206 0.000313875883022122 8.60922321896533e-05 0.000105637385666725 -0.000240513353280047 -0.000334893617015031 0.000351979231614362 0.000109744582029203 0.000111733398092774
"51" -0.000595813964114932 -0.000771683156697299 -0.00044526385792357 -9.45047359695104e-05 -0.000613520848751937 -0.000603470666628805 -0.000835243082469014 -0.000891491138795063 0.000331390024406851 9.72528010183515e-05 0.000126129001372029 -0.000223154381850106 -0.000299674969492847 0.000358000968700166 0.000129845097142607 0.000135182553288815
"52" -0.000531608326753661 -0.000675858311663915 -0.000393755213986906 -6.15286664045573e-05 -0.000529512480485958 -0.000562369481885808 -0.000731467928145924 -0.000846736394621417 0.000347208712895279 0.000107324836632578 0.000145561169534958 -0.000206359911759314 -0.000264833583019185 0.000362317113628095 0.000148579022772308 0.000157467382308235
"53" -0.000467020038358379 -0.00058052518103104 -0.000342464975804129 -2.92565093644201e-05 -0.000444772089264952 -0.000521076862689708 -0.000627078186478913 -0.000802601341950915 0.000361231949520007 0.000116240076943388 0.000163828696872384 -0.000190224104324467 -0.000230539880071869 0.000364899361579551 0.000165846234270184 0.000178452229895773
"54" -0.000402493576914147 -0.000486363997388182 -0.000291790454869033 2.09428643836007e-06 -0.000360031629114234 -0.000479813587003269 -0.000522775496189595 -0.000759460556070342 0.000373362292917485 0.000123919262725209 0.000180828137210037 -0.000174833947664168 -0.000196959337230289 0.000365713009121745 0.000181549868435179 0.000198017819474078
"55" -0.000338466886819467 -0.000394057535241339 -0.000242105713582568 3.23201868795094e-05 -0.000276004549770023 -0.000438787423739327 -0.000419259786528698 -0.000717673182784851 0.000383515919742743 0.000130317230173321 0.000196473702536252 -0.000160266416934715 -0.000164246127875432 0.000364753680246331 0.000195616372122679 0.000216054695284529
"56" -0.000275371339553454 -0.000304266231308978 -0.000193786008022107 6.12313618045315e-05 -0.000193406180534942 -0.00039819910717777 -0.000317208820926404 -0.00067757658300833 0.000391624906228982 0.000135379481183548 0.000210680702195446 -0.000146589230508611 -0.000132553362587811 0.000362013930746653 0.000207970851364943 0.000232464099351684
"57" -0.000213608656342494 -0.000217626117763499 -0.00014716574683624 8.86501864801326e-05 -0.000112933248387253 -0.000358228556682068 -0.000217295241750382 -0.00063947399130848 0.000397649916995104 0.000139086546758006 0.000223387314282145 -0.000133847977086234 -0.000102007439652166 0.000357522203272166 0.000218571620051052 0.00024716964739998
"58" -0.000153576279756349 -0.000134756193450134 -0.000102581271599529 0.000114422608895049 -3.52662151823592e-05 -0.000319058135612234 -0.000120165337959231 -0.000603658767887749 0.000401550254097617 0.000141416509602916 0.000234537347642885 -0.000122094836564934 -7.27402604403885e-05 0.000351301503008441 0.000227375996133715 0.000260103988130298
"59" -9.56385812722272e-05 -5.62285375131479e-05 -6.03202208758078e-05 0.00013840864461806 3.89602798327463e-05 -0.000280834364906349 -2.64258779977895e-05 -0.000570373511935167 0.000403311096134594 0.000142374001800429 0.000244087704436988 -0.000111351863584508 -4.48541980841449e-05 0.000343401277746875 0.000234365749627639 0.000271222285439295
"60" -4.0138527555585e-05 1.73953776765125e-05 -2.06568073958676e-05 0.000160489139396197 0.00010912126560656 -0.00024371263510493 6.33330066702696e-05 -0.000539853259819726 0.000402936868050699 0.000141974741278675 0.000252015439711073 -0.000101634448625952 -1.84540455520373e-05 0.000333890463547685 0.000239538268470422 0.000280491061661885
"61" 1.26019138680596e-05 8.56290065491811e-05 1.61691450465061e-05 0.00018056013205409 0.000174647460365513 -0.000207823914886124 0.00014857380903977 -0.000512286651158827 0.000400436181347717 0.000140230034923367 0.000258297932576659 -9.295832026781e-05 6.37303828973923e-06 0.000322828850357974 0.000242893845529882 0.000287892196144959
"62" 6.23004296230957e-05 0.000148015715368253 4.99589942763866e-05 0.00019855342720498 0.000235014818426268 -0.0001732761092809 0.000228797698270714 -0.000487817799609174 0.000395843424654999 0.000137188176352418 0.000262931593785425 -8.5313862402472e-05 2.95514688668847e-05 0.000310313966015543 0.00024446347636224 0.000293426946111101
"63" 0.000108707735875213 0.000204158088378571 8.05332757820761e-05 0.000214398978585659 0.000289759175316414 -0.000140169798123278 0.000303559580158105 -0.000466563581750566 0.0003892122312068 0.000132901134609619 0.000265932643480249 -7.86810755568617e-05 5.10299243703125e-05 0.00029644146291735 0.000244281924286666 0.000297112718333015
"64" 0.0001516006943215 0.000253707224022905 0.000107763487138367 0.000228064615573092 0.000338470043019951 -0.000108589861156348 0.000372461332987117 -0.000448602375144166 0.000380602099670666 0.000127426102877914 0.000267317715733778 -7.30372585370468e-05 7.07547901525313e-05 0.000281319589502559 0.000242399955669771 0.000298978288041022
"65" 0.00019079940323924 0.000296394203281596 0.000131555541217218 0.000239538613768996 0.000380804054985367 -7.85999242039808e-05 0.000435178063797958 -0.000433964433085004 0.000370085388832731 0.000120836621823149 0.000267122224509464 -6.83461483719119e-05 8.86967790848542e-05 0.000265066587226437 0.000238882268069402 0.00029907012373345
"66" 0.000226158947417205 0.00033198644589791 0.000151842625053971 0.000248815458383348 0.000416489071486899 -5.0254317199285e-05 0.000491422748190068 -0.000422659154835505 0.000357762648182667 0.000113220513230304 0.000265395400676334 -6.45613524875898e-05 0.000104833973348154 0.000247819783210143 0.000233806321889586 0.000297449802147643
"67" 0.00025757769474845 0.000360351644770709 0.000168620434686191 0.000255938084996372 0.000445332776032823 -2.35788123432484e-05 0.000540995098859266 -0.00041463012193398 0.000343727068872419 0.000104665155666765 0.000262188884008576 -6.16309614477593e-05 0.000119156343553174 0.000229706994139806 0.000227258488460009 0.000294190288882947
"68" 0.000284986026856753 0.000381401635256679 0.000181899692414599 0.000260940496893091 0.000467208277117418 1.40055905924311e-06 0.000583746083109705 -0.000409803917043906 0.000328096804653673 9.5269741332832e-05 0.000257574136230933 -5.94901649429901e-05 0.00013167560158185 0.000210876494221811 0.000219336301945647 0.000289379915373192
"69" 0.000308355659182187 0.000395126602120898 0.000191734576734949 0.000263892712902372 0.000482071517191561 2.46766826268088e-05 0.000619595270824546 -0.000408064208720279 0.00031100167144593 8.51409103198388e-05 0.000251624932533682 -5.80762978097717e-05 0.000142399265391575 0.000191476768671788 0.000210147794872137 0.000283111663088183
"70" 0.000327705845124746 0.000401588457999668 0.000198233018701031 0.000264880222619927 0.000489968839282739 4.62702522341004e-05 0.000648541510905291 -0.000409251476125774 0.000292575223325387 7.43950234049423e-05 0.000244433520512026 -5.73132627046638e-05 0.00015136381084366 0.000171666040539576 0.000199813382628156 0.000275502537612545
"71" 0.000343078655003127 0.000400924798631343 0.000201508175492897 0.00026400080858825 0.00049099977893689 6.61936612053159e-05 0.00067064093767203 -0.000413176135976394 0.000272959496367279 6.31395238319537e-05 0.000236089223745386 -5.71258094835966e-05 0.000158609050122221 0.000151592245056282 0.000188451325984792 0.000266665783895165
"72" 0.000354569734687235 0.000393323647417119 0.000201733801375038 0.000261372356123725 0.000485364555013002 8.44872064066329e-05 0.000686011076059902 -0.000419619829012232 0.000252309709648216 5.1501923337613e-05 0.000226697725722395 -5.74314531295696e-05 0.000164178281893489 0.00013142632317503 0.000176198957288102 0.000256728808982722
"73" 0.00036230126792249 0.000379058407214101 0.000199095819541035 0.000257130061105856 0.000473321433364748 0.00010119897098689 0.00069485015381609 -0.000428333271759824 0.000230782670136004 3.95977399121533e-05 0.000216365698212271 -5.81480584932802e-05 0.00016813936856482 0.000111319518780995 0.000163188048279432 0.000245829113559392
"74" 0.000366428012592334 0.000358452738829268 0.000193817737136209 0.000251420459787555 0.000455200238489987 0.000116382000753403 0.000697402115300178 -0.000439040558465115 0.000208531908915567 2.7552019079753e-05 0.000205206505264092 -5.91968232049181e-05 0.000170554805155073 9.1434801287408e-05 0.000149558339723992 0.000234101824700914
"75" 0.000367146777911048 0.000331894304084264 0.000186143741999571 0.000244390202830898 0.000431405516927135 0.000130112788358564 0.000693977627774594 -0.000451430968496279 0.000185729889040854 1.54819260713399e-05 0.000193338587911126 -6.04849132307042e-05 0.000171510361566815 7.19209972969807e-05 0.000135451674570187 0.000221691466561205
"76" 0.000364673144139105 0.000299823697066487 0.000176341686873032 0.000236216138617518 0.000402390090103151 0.000142460580306624 0.00068494113950737 -0.000465198581137646 0.000162540055563183 3.50561097896619e-06 0.00018088164949653 -6.1936863962847e-05 0.000171083111483797 5.29397208747602e-05 0.000121011373609206 0.000208748847214008
"77" 0.000359248706561446 0.000262719930005887 0.000164685608533065 0.000227060878918994 0.00036865864887672 0.000153508694241874 0.000670695659676558 -0.000480004188537836 0.000139125477227721 -8.2642820943262e-06 0.000167957449948358 -6.34776637270456e-05 0.000169364418190512 3.46240063162819e-05 0.000106378052956957 0.00019541592832588
"78" 0.000351153309587507 0.0002211179437042 0.000151486808626739 0.000217110544301141 0.000330770333483538 0.000163354112470521 0.00065170278641083 -0.000495497308785728 0.000115659560689846 -1.97079359986209e-05 0.000154696843344886 -6.50128153523011e-05 0.000166460602380682 1.71284300841563e-05 9.16995175692891e-05 0.000181846036111636
"79" 0.000340666592038227 0.000175586968750999 0.00013704597919346 0.000206546662730064 0.000289309244779998 0.000172092365063966 0.000628450625992811 -0.000511317713758943 9.22923219835666e-05 -3.07336535406878e-05 0.000141212640282386 -6.64853652568328e-05 0.000162468663225522 5.71777930438192e-07 7.71091294415545e-05 0.000168184155549674
"80" 0.000328096118061922 0.000126701353932135 0.000121670699923211 0.000195546778319568 0.000244886598929611 0.000179813898347931 0.000601452794699511 -0.000527124521890338 6.9187364839208e-05 -4.12343943486728e-05 0.000127633894599513 -6.78230824861126e-05 0.000157495948619571 -1.49210103018253e-05 6.27415127438321e-05 0.000154570235695627
"81" 0.000313755653241169 7.50916518443389e-05 0.00010568219600644 0.000184302474582615 0.000198150346733304 0.000186633634964994 0.000571261941652829 -0.000542545320860502 4.64987133777383e-05 -5.11256881261246e-05 0.000114075219931359 -6.89616956760458e-05 0.000151650781581191 -2.92358292231942e-05 4.87284590721821e-05 0.000141149563241186
"82" 0.000297979204703694 2.13724620745251e-05 8.93839407357516e-05 0.000172984389502573 0.000149744443119273 0.000192652344800601 0.000538438215878039 -0.000557231720698765 2.4375386811118e-05 -6.03225982022816e-05 0.000100662349837584 -6.98424434303854e-05 0.000145052615174732 -4.22733003935388e-05 3.5196136812263e-05 0.000128054408582036
"83" 0.000281082642105183 -3.38228033648759e-05 7.30907314116691e-05 0.000161775604977231 0.000100313411851893 0.000197973541578577 0.00050354506430108 -0.000570844807715637 2.94670354888263e-06 -6.87541851670655e-05 8.74938129342328e-05 -7.04233024233612e-05 0.000137804989799401 -5.39531188538886e-05 2.22538458487475e-05 0.000115409254620938
"84" 0.000263401287336646 -8.98598339332733e-05 5.7089865390737e-05 0.000150841509245434 5.05115194090108e-05 0.000202707134483961 0.00046715782621211 -0.000583054379224531 -1.76533438654409e-05 -7.63600894834856e-05 7.46842206060868e-05 -7.06632787497557e-05 0.000130025815629029 -6.41984265403515e-05 1.00117481943297e-05 0.000103338987628913
"85" 0.000245260019199777 -0.000146134795479581 4.16668931187115e-05 0.000140341388977353 9.62960587037369e-07 0.000206950184203654 0.000429841340383444 -0.000593553691345156 -3.73013520554443e-05 -8.30833559461913e-05 6.23308748716356e-05 -7.05241142183508e-05 0.000121825682184409 -7.29489561874734e-05 -1.43185868772211e-06 9.19490852751896e-05
"86" 0.000226972728043467 -0.000202031188221256 2.70851518777137e-05 0.000130425927340063 -4.77265741259239e-05 0.00021080364514759 0.000392148759870255 -0.000602056224898559 -5.58917743453674e-05 -8.88890693076996e-05 5.05250483860765e-05 -6.999036516117e-05 0.000113315599262372 -8.01627139590953e-05 -1.19873876331878e-05 8.13457221849147e-05
"87" 0.000208850677379993 -0.000256973552603267 1.35950085024265e-05 0.000121233211368668 -9.49659096071174e-05 0.00021437150780615 0.000354619051094875 -0.000608294190976756 -7.3327015148849e-05 -9.3742847876539e-05 3.93566309204753e-05 -6.90358709012116e-05 0.000104605844012846 -8.58119151201239e-05 -2.157879791073e-05 7.1613719002587e-05
"88" 0.000191176925229012 -0.000310403280577766 1.40765678038756e-06 0.00011288878256441 -0.000140212470129243 0.000217739254409184 0.00031776665613169 -0.00061203139533553 -8.95267015452103e-05 -9.76288785082184e-05 2.88922358380629e-05 -6.76610522411837e-05 9.57970264662258e-05 -8.9888794428561e-05 -3.01465019285308e-05 6.28324887886629e-05
"89" 0.000174232831745954 -0.000361807953105687 -9.26868292479416e-06 0.000105501877243251 -0.000182956763054589 0.000220993906636506 0.000282069101930692 -0.000613074525130807 -0.000104406438682735 -0.00010053888642887 1.92076837880795e-05 -6.5864256329052e-05 8.69911784868474e-05 -9.23860809353038e-05 -3.76259522548306e-05 5.50731662399603e-05
"90" 0.00015826138346998 -0.000410697255029524 -1.82719019970264e-05 9.91655350035341e-05 -0.000222736068015296 0.000224212622349151 0.000247982798660157 -0.000611246011532397 -0.000117919824406224 -0.000102476997170004 1.03557312174057e-05 -6.36574591134388e-05 7.82804897678343e-05 -9.33333960781313e-05 -4.39858611023643e-05 4.83856969463197e-05
"91" 0.000143499916236361 -0.000456636138727073 -2.54458208489842e-05 9.39643136656692e-05 -0.000259137505853647 0.000227471528176977 0.000215913533504699 -0.000606410384266669 -0.000130015713981922 -0.000103454892032825 2.38841607494367e-06 -6.10566573398047e-05 6.97585980125947e-05 -9.27612559493499e-05 -4.91902047278866e-05 4.28158678005663e-05
"92" 0.000130145091778379 -0.000499241126104963 -3.06900437712705e-05 8.9951975509055e-05 -0.00029179841379749 0.000230826761494605 0.000186227075140288 -0.00059848037562692 -0.000140657545692897 -0.000103500391783848 -4.66134591343329e-06 -5.80888937008293e-05 6.14993347815394e-05 -9.07193116687565e-05 -5.32263813550856e-05 3.83901746922279e-05
"93" 0.000118370004870739 -0.000538163462961309 -3.39180984993909e-05 8.71696149418197e-05 -0.000320417743718964 0.000234337882037507 0.000159246454886075 -0.000587391314675541 -0.000149825343907251 -0.000102648117440265 -1.07607039254701e-05 -5.47851047891199e-05 5.35833367238239e-05 -8.72685841002091e-05 -5.6087878416682e-05 3.51252646575872e-05
"94" 0.000108330267921711 -0.000573103065011416 -3.50743586502936e-05 8.56518186959451e-05 -0.000344735449334643 0.000238045361854706 0.000135249932777372 -0.000573123003483687 -0.000157520480359056 -0.000100939693661385 -1.58942376143238e-05 -5.11866777591333e-05 4.60768466068225e-05 -8.24902954150823e-05 -5.77820805211446e-05 3.30292907619353e-05
"95" 0.000100135472033773 -0.000603830019510155 -3.41310838088753e-05 8.54027183014185e-05 -0.000364562985057132 0.000241985506319047 0.000114457585730664 -0.0005556990291424 -0.000163741344409183 -9.84286080649937e-05 -2.00537236014769e-05 -4.73387030965264e-05 3.90403915636919e-05 -7.64730996830749e-05 -5.83269260808758e-05 3.20917701964785e-05
"96" 9.38820745592043e-05 -0.000630154211064528 -3.11112954846432e-05 8.64086602842351e-05 -0.00037977125301521 0.000246185614647473 9.70469301779431e-05 -0.000535170407786707 -0.000168504495010181 -9.51695744549439e-05 -2.3234863531518e-05 -4.32800027619344e-05 3.25287872018261e-05 -6.93117515463331e-05 -5.77503266274174e-05 3.22933189038594e-05
"97" 8.96104718864884e-05 -0.000651943876235442 -2.60435489913308e-05 8.86457417746789e-05 -0.000390288580724267 0.000250647966328997 8.31321045863634e-05 -0.000511647423256286 -0.000171847554204973 -9.12355862812389e-05 -2.54562341677878e-05 -3.90829455313844e-05 2.65748663073531e-05 -6.11238641905192e-05 -5.6095703545252e-05 3.36064721259705e-05
"98" 8.73629409902436e-05 -0.000669112068059865 -1.89878558005485e-05 9.20776639547641e-05 -0.000396085079885373 0.000255390610859683 7.27996347812443e-05 -0.0004852430018582 -0.000173808741279814 -8.66911609791584e-05 -2.67310079769118e-05 -3.47857346149111e-05 2.12256084101236e-05 -5.20247643484705e-05 -5.34105000920179e-05 3.59888863504399e-05
"99" 8.71266824995557e-05 -0.000681630974762823 -1.00467915247935e-05 9.66334630779784e-05 -0.000397200497630219 0.000260400100279284 6.60664781135551e-05 -0.000456129286587812 -0.000174435495946276 -8.1615510333063e-05 -2.70863387081757e-05 -3.04547736518382e-05 1.65029444855019e-05 -4.21433060654119e-05 -4.97540392550661e-05 3.93917377513697e-05
"100" 8.88726592793699e-05 -0.000689526024844522 6.6768421991428e-07 0.000102250148381436 -0.000393730207609425 0.000265656837226055 6.29040350664534e-05 -0.000424514285259215 -0.000173789121953661 -7.60858418276491e-05 -2.65604549951332e-05 -2.61519675993425e-05 1.24224940577739e-05 -3.16072507715184e-05 -4.51909436564737e-05 4.37556293219394e-05
"101" 9.25469588382239e-05 -0.000692855322988054 1.30154263885423e-05 0.000108837483188747 -0.000385810738906084 0.000271143174761803 6.32465551623194e-05 -0.00039060983512843 -0.00017193721949673 -7.01826129566281e-05 -2.51885492190404e-05 -2.19323436499587e-05 9.00161715599082e-06 -2.0555636524294e-05 -3.97932525167397e-05 4.90147635045456e-05
"102" 9.80529055410114e-05 -0.000691732073211879 2.68313461337955e-05 0.000116300112723363 -0.000373632810770312 0.000276813649793905 6.69805211153499e-05 -0.000354680560339292 -0.000168961529506717 -6.39917202315663e-05 -2.30270796160169e-05 -1.78611500323204e-05 6.23603165913869e-06 -9.12572586473515e-06 -3.36452204110573e-05 5.50975951643364e-05
"103" 0.000105285542278559 -0.000686312624011011 4.19361250091939e-05 0.000124529626936315 -0.000357429012369673 0.000282628550977415 7.3948181684261e-05 -0.000316999098025186 -0.000164944403394338 -5.75956356231442e-05 -2.01279526359255e-05 -1.399745427723e-05 4.12138940516751e-06 2.54299016899265e-06 -2.68282708654861e-05 6.1923618537316e-05
"104" 0.000114115990180339 -0.000676784626417758 5.8137728332067e-05 0.000133410507154382 -0.000337471590863291 0.000288543264075516 8.39633941182326e-05 -0.00027786228515126 -0.000159967912546093 -5.10698908354157e-05 -1.65416703304284e-05 -1.0388505506058e-05 2.65280961955469e-06 1.43248293916484e-05 -1.9424373556493e-05 6.94181135746876e-05
"105" 0.000124395326898585 -0.000663376501848763 7.52274403250805e-05 0.000142815783650791 -0.000314062759140256 0.00029449560106211 9.67939302307354e-05 -0.000237577559385015 -0.000154129130047228 -4.44941153696164e-05 -1.23362321627082e-05 -7.09168566178365e-06 1.81142540463213e-06 2.60744564485171e-05 -1.15288857772427e-05 7.74899697996808e-05
"106" 0.000135950216439867 -0.000646345062855491 9.29843517116639e-05 0.000152618635676174 -0.000287548902543872 0.000300420352722184 0.000112192852020933 -0.000196478779660593 -0.000147524194600569 -3.79499553540546e-05 -7.57903009234627e-06 -4.16024608388267e-06 1.5686560981501e-06 3.7662322825096e-05 -3.23970985007064e-06 8.60474020073832e-05
"107" 0.000148606320503179 -0.000625969378089905 0.000111179752100305 0.000162687722070887 -0.00025829359906981 0.000306258330683581 0.000129875521522374 -0.000154886406258876 -0.00014024471295089 -3.15029457667334e-05 -2.3300693894236e-06 -1.63146029882729e-06 1.90294226341818e-06 4.89735870733773e-05 5.36258397616564e-06 9.50116238295711e-05
"108" 0.000162159147005842 -0.0006025617139546 0.000129585639899734 0.000172884366688056 -0.000226688614813671 0.000311928761528671 0.000149541020148038 -0.000113148125696219 -0.000132395552106663 -2.52235551215974e-05 3.3344667127281e-06 4.5406649053855e-07 2.77364961760427e-06 5.98860267408965e-05 1.41779708683877e-05 0.00010428743159716
"109" 0.000176417912148725 -0.000576444679935947 0.000147974106367783 0.000183076643658949 -0.000193127667180764 0.000317367703401856 0.00017087722861232 -7.15932451770399e-05 -0.000124067646680211 -1.91717907221309e-05 9.35231408980894e-06 2.06058945331357e-06 4.15047794732194e-06 7.02954286119681e-05 2.31199685662239e-05 0.000113789547610885
"110" 0.000191163812296113 -0.000547950005466221 0.00016611360951514 0.000193131834888649 -0.000158029756428378 0.000322501639618445 0.000193551201510246 -3.05507011830376e-05 -0.000115364493021622 -1.33998376729011e-05 1.56504451684498e-05 3.16939017553511e-06 5.9942507511546e-06 8.01057395884337e-05 3.21000719031167e-05 0.000123433338321066
"111" 0.000206185481807953 -0.00051743174074072 0.000183773889183877 0.000202916887675094 -0.000121822579094528 0.000327248976218818 0.00021722802267354 9.6475807770659e-06 -0.000106384404162445 -7.96281878251309e-06 2.21555702295765e-05 3.74740423657706e-06 8.25913581195855e-06 8.92202231192336e-05 4.10295352011719e-05 0.000133134369172585
"112" 0.000221277534902738 -0.000485245197098528 0.000200744238252368 0.00021230977480055 -8.49203316389553e-05 0.000331550139757467 0.000241562716814148 4.86914055118104e-05 -9.72073507461123e-05 -2.8944955144269e-06 2.88110962442004e-05 3.79506265589003e-06 1.09063712799206e-05 9.75741481275691e-05 4.9832572760343e-05 0.000142815605491831
"113" 0.000236220764159421 -0.000451747144325134 0.000216815747365921 0.000221184209218635 -4.77415777832854e-05 0.000335330255612198 0.000266219185922669 8.62852441992664e-05 -8.7929331183984e-05 1.77070329779367e-06 3.55463517757504e-05 3.29831225795262e-06 1.38912751344068e-05 0.000105100003370421 5.84298567524893e-05 0.000152403640195736
"114" 0.00025080714408917 -0.000417284133689736 0.000231785551805936 0.00022943298061436 -1.07046139109558e-05 0.000338525584155204 0.000290864056697126 0.000122142180220001 -7.86367634473955e-05 6.00296943339999e-06 4.22982043037125e-05 2.25705416803558e-06 1.71666753981204e-05 0.000111741594399235 6.67517204063017e-05 0.000161825266191854
"115" 0.000264844965240097 -0.000382216859407063 0.000245479509125685 0.000236952824180092 2.58025379869925e-05 0.000341075272866087 0.000315168031801561 0.000156004733560454 -6.94005108904597e-05 9.79152735802003e-06 4.90128834835181e-05 6.84519232266473e-07 2.06930651518853e-05 0.000117466975253355 7.47355598161757e-05 0.000171021005712842
"116" 0.000278132528492312 -0.000346877569008488 0.000257725037494444 0.000243644289001762 6.13944492022693e-05 0.00034292940866439 0.000338820267552193 0.000187635754322724 -6.02975703810422e-05 1.31230804334492e-05 5.56332485006417e-05 -1.40091912732901e-06 2.44261444398747e-05 0.000122249083477012 8.23215587240195e-05 0.000179933447523866
"117" 0.000290500430433258 -0.000311600330623387 0.000268383917942672 0.000249422993542032 9.57147833343544e-05 0.000344040617093261 0.000361520825912282 0.000216821298311048 -5.13894758395794e-05 1.60005857338881e-05 6.21132444689893e-05 -3.98335630621136e-06 2.83287723326316e-05 0.00012607489119489 8.9461905841204e-05 0.000188512405176226
"118" 0.000301778527009764 -0.000276704514655115 0.000277327719781077 0.000254214726611445 0.00012843116673698 0.000344369949990849 0.000382990180833465 0.000243377155222159 -4.2737124382335e-05 1.84331701523996e-05 6.84059355492526e-05 -7.02460638419787e-06 3.2362014975949e-05 0.000128941913599908 9.61132402270514e-05 0.000196709501750338
"119" 0.000311815143282571 -0.000242471033993489 0.000284449279349191 0.000257966260018239 0.000159240314249519 0.000343890559918269 0.00040297800697831 0.00026715666641044 -3.43899018581699e-05 2.04302361794001e-05 7.44703459444668e-05 -1.0489640069454e-05 3.64939613634642e-05 0.000130864720358486 0.000102238403358644 0.000204494973790801
"120" 0.000320478447003687 -0.000209193942014024 0.000289663287945347 0.000260620280359314 0.00018786889295803 0.000342576341509569 0.000421244408280316 0.000288021529593765 -2.63907150582503e-05 2.20190228739324e-05 8.02717487877177e-05 -1.43347143105079e-05 4.06918975945258e-05 0.000131864695847848 0.000107808575147651 0.000211833025231799
"121" 0.000327649923232323 -0.000177112851980457 0.000292912447998254 0.000262144316626464 0.000214075315679888 0.000340421812312528 0.00043759353614288 0.000305889767413181 -1.87804465959679e-05 2.32243945954059e-05 8.57829933953205e-05 -1.85101883093388e-05 4.493473935552e-05 0.00013197116263572 0.000112803585512983 0.000218705490527451
"122" 0.000333234033513364 -0.000146474426147979 0.000294159439808766 0.000262514843661961 0.000237658543275195 0.000337424617403385 0.000451841575604729 0.00032068744070124 -1.15771567202597e-05 2.40852347833196e-05 9.09797669827756e-05 -2.29596991081022e-05 4.91963922785028e-05 0.000131244720798465 0.000117215947565285 0.000225099849226736
"123" 0.000337154585114122 -0.000117478188406395 0.000293394459207166 0.000261718676816284 0.000258456736505721 0.000333597029775311 0.000463842797200783 0.000332390388200881 -4.80874097482156e-06 2.46474388344964e-05 9.58452240642218e-05 -2.76153445781437e-05 5.34626716378618e-05 0.000129722794102028 0.000121037312487038 0.000231001798175497
"124" 0.000339351935174291 -9.0316923653348e-05 0.000290617373101324 0.000259759235908697 0.000276334504054109 0.000328953676239094 0.000473480442231373 0.000340991376145637 1.52152247409513e-06 2.49544492914412e-05 0.000100368480103964 -3.24183997419618e-05 5.77225524186987e-05 0.000127477983493572 0.000124274228775135 0.000236415011346778
"125" 0.000339797006747051 -6.51326949582467e-05 0.000285871680386379 0.000256652300796329 0.000291211753383005 0.000323534953079589 0.000480666872313134 0.000346530979377639 7.40916734126737e-06 2.50602615764667e-05 0.000104542026207165 -3.72860761869206e-05 6.19701685904114e-05 0.000124579587306321 0.000126934398546065 0.000241342799659745
"126" 0.000338473627400918 -4.2059646840496e-05 0.000279205144935292 0.000252423024444314 0.000303037853077551 0.000317378107257312 0.000485353301424355 0.000349060793922495 1.28572315920917e-05 2.50233610362231e-05 0.000108366687427999 -4.21507388716363e-05 6.62072022365291e-05 0.000121110484458029 0.00012903927234241 0.000245803103116564
"127" 0.000335387016466767 -2.12040416013779e-05 0.000270691774857994 0.000247106403137728 0.000311795653084379 0.000310534470429179 0.000487510253501293 0.000348672078948002 1.78757754407235e-05 2.48985829678565e-05 0.000111848462447822 -4.69304414664725e-05 7.04372740278057e-05 0.000117141406214275 0.000130606692406662 0.000249805642023134
"128" 0.00033056840590225 -2.63333161987457e-06 0.000260428053422413 0.00024075411840054 0.000317513251786663 0.000303062230427172 0.000487150007994478 0.000345480796237781 2.24889907110162e-05 2.47491346793739e-05 0.000114995037646703 -5.15446510009348e-05 7.46709155566006e-05 0.000112766120573633 0.000131671984214589 0.000253376464998166
"129" 0.000324059006662708 1.3601990697303e-05 0.000248529707203813 0.000233423567805022 0.000320252061259233 0.000295038330271907 0.000484305604997713 0.000339627344842085 2.67153008163496e-05 2.46419713611398e-05 0.000117822600297179 -5.5907801131892e-05 7.89238596510943e-05 0.00010807658360353 0.000132269097112817 0.000256544859993039
"130" 0.000315938237402018 2.74751394398777e-05 0.000235131444105078 0.000225187647529523 0.000320117430526352 0.000286540738296915 0.000479046950135627 0.000331275150688823 3.05975321595029e-05 2.46446667745907e-05 0.000120353380361172 -5.99279782862313e-05 8.32237042989751e-05 0.000103169371433839 0.000132443474454052 0.000259343479499668
"131" 0.000306288418979033 3.8990160569903e-05 0.000220372213859711 0.000216114380903512 0.000317230205837006 0.000277655025381073 0.000471466750099497 0.000320608386316221 3.4167299004483e-05 2.48195544385592e-05 0.000122609133501842 -6.35287912847559e-05 8.75929448587571e-05 9.81384685027753e-05 0.000132239178899643 0.000261808671595833
"132" 0.000295211625496766 4.81826504394629e-05 0.000204414772773668 0.000206292916135363 0.000311756351862025 0.000268481807547563 0.00046168652221132 0.000307839342117227 3.7464272113803e-05 2.52309663214948e-05 0.000124618601128188 -6.66156124897795e-05 9.20643996749274e-05 9.30694425630228e-05 0.000131702949196984 0.000263977399110941
"133" 0.000282830193316447 5.50905268649479e-05 0.000187427146478921 0.000195813320061322 0.00030386976034232 0.000259112554259629 0.000449844455355312 0.00029317592391799 4.05380653427241e-05 2.59435351256974e-05 0.000126412121323405 -6.91091435145333e-05 9.66714748706026e-05 8.8064994831065e-05 0.00013089241113365 0.000265895142550323
"134" 0.000269281614547457 5.97895493263893e-05 0.000169593528703695 0.000184773838525965 0.000293787937248467 0.000249663949313189 0.000436109172422435 0.000276863260945021 4.34374170282015e-05 2.70151994212751e-05 0.000128021925282102 -7.0918936740331e-05 0.000101459097270788 8.32169374954696e-05 0.000129860468287957 0.000267605048266396
"135" 0.000254708357139265 6.23598084665214e-05 0.000151089836163837 0.000173259950959795 0.000281731310762068 0.00024023719222277 0.000420649999805662 0.000259135268762513 4.62184663929489e-05 2.85085561377703e-05 0.000129489943647891 -7.1969745964966e-05 0.000106467858165974 7.86115392132382e-05 0.000128666095236316 0.000269149837279784
"136" 0.000239274182507994 6.29116687010198e-05 0.00013211541507244 0.000161389713854886 0.000267955344946172 0.000230952983170222 0.000403678028505118 0.000240254388762164 4.89328451160524e-05 3.04747668913248e-05 0.000130845213933097 -7.21798508782997e-05 0.000111742781564336 7.433369853808e-05 0.000127364155542958 0.00027057536308697
"137" 0.00022314555422501 6.15647529642465e-05 0.000112861255463532 0.000149259074426021 0.000252705820140626 0.000221921347080287 0.000385399606006576 0.00022047434944331 5.16347472003439e-05 3.29645031507835e-05 0.000132132299422641 -7.14751002261448e-05 0.000117332787048358 7.04647451059855e-05 0.000126016328688479 0.000271930654899938
"138" 0.000206497401703653 5.84558603573694e-05 9.3518224681678e-05 0.000136972966244122 0.000236256017362188 0.00021326211571814 0.000366031900142068 0.000200055709260762 5.43800491667818e-05 3.60200453849141e-05 0.000133389829172186 -6.97874041766362e-05 0.000123287843765061 6.70765400824815e-05 0.000124678105357641 0.00027325652328545
"139" 0.000189516388104259 5.37235940256346e-05 7.42779900508263e-05 0.000124635847562135 0.000218879629683418 0.000205092013715029 0.000345806298492173 0.000179262197077108 5.72263071305465e-05 3.96822653802263e-05 0.000134656078465085 -6.70486633649373e-05 0.000129659406125855 6.42421761398499e-05 0.000123409839318301 0.000274597781154634
"140" 0.000172383104974253 4.75261640408258e-05 5.53319827818103e-05 0.000112351669971477 0.000200854116506532 0.000197523043328001 0.000324961868357953 0.00015835465643367 6.02250909349242e-05 4.39849871396695e-05 0.000135969419343519 -6.32039763727784e-05 0.0001364986283963 6.20134152305105e-05 0.000122260425054709 0.000275994583905931
"141" 0.000155283704904457 4.00158830721495e-05 3.68595691805085e-05 0.000100219371145922 0.000182446123077545 0.000190666342910173 0.000303721994369188 0.000137578205923144 6.34255547387118e-05 4.8947173298652e-05 0.000137365902771156 -5.82043656820236e-05 0.000143848107104062 6.04504165187681e-05 0.000121285054919795 0.000277486252444155
"142" 0.000138400931032473 3.13582123284257e-05 1.90258556460194e-05 8.8332161920086e-05 0.000163920811975864 0.000184626494874141 0.000282322157593592 0.000117177379012114 6.68741967655487e-05 5.45900667763301e-05 0.000138878604569137 -5.20042911641136e-05 0.000151760506758846 5.95931372769492e-05 0.00012052896093042 0.000279108047586162
"143" 0.000121919019076719 2.17198884094504e-05 2.00167323219995e-06 7.67805386886542e-05 0.000145548038166964 0.000179512705813401 0.000260997501688607 9.73876325631052e-05 7.06231343528964e-05 6.09260804620655e-05 0.000140548012314169 -4.456910087871e-05 0.000160282127409455 5.94821932815754e-05 0.00012004317739815 0.000280894825011727
"144" 0.000106015627138927 1.1269174410295e-05 -1.40643940453283e-05 6.56563849375511e-05 0.000127577816612477 0.000175417678122781 0.000239966957602344 7.84427520452266e-05 7.46989273806042e-05 6.79572788088201e-05 0.000142395308094709 -3.58691813121643e-05 0.00016945584059481 6.01352967796376e-05 0.000119859070297102 0.000282870443973865
"145" 9.08619002221198e-05 1.66206973894148e-07 -2.90285891471309e-05 5.50312884208014e-05 0.000110232817839836 0.00017242780550553 0.000219444386671014 6.05386209880233e-05 7.9143991025009e-05 7.56753010452406e-05 0.000144451698326999 -2.58893854585234e-05 0.000179316614260156 6.15762692951417e-05 0.000120014310875575 0.000285058429877854
"146" 7.66169292006472e-05 -1.14296612142225e-05 -4.27728159624323e-05 4.49820022159632e-05 9.37407051596705e-05 0.000170626548502125 0.000199636706124017 4.38677711536496e-05 8.39815857700498e-05 8.40678497667557e-05 0.000146739231824753 -1.46266932300539e-05 0.000189901610517602 6.38043283989007e-05 0.00012053747557338 0.000287480281228921
"147" 6.34370001595306e-05 -2.33629970048156e-05 -5.51798739618865e-05 3.55708160686765e-05 7.82993707828455e-05 0.000170082450635853 0.00018072697046947 2.86033942312379e-05 8.92329146602186e-05 9.31132563799197e-05 0.000149277702936896 -2.07637098404381e-06 0.000201236818579124 6.68202921010889e-05 0.000121453708161965 0.000290148864587155
"148" 5.14588733994537e-05 -3.54855564995115e-05 -6.61580349520802e-05 2.68594168402847e-05 6.40909564268486e-05 0.000170859493257275 0.000162889989450411 1.49038936408985e-05 9.49159550446297e-05 0.000102781529718527 0.00015207941340288 1.17493546450123e-05 0.00021334619883362 7.0612007431936e-05 0.000122777287232172 0.00029307263061232
"149" 4.081203761914e-05 -4.76516021460874e-05 -7.5631505342081e-05 1.88929352507962e-05 5.12657932820537e-05 0.00017300788621743 0.000146286501848401 2.90109183625095e-06 0.000101037023862802 0.000113035039239481 0.000155153904859091 2.68239069649985e-05 0.000226248170373964 7.51537480949894e-05 0.000124517674949249 0.000296255522326106
"150" 3.16113116384611e-05 -5.97413023091246e-05 -8.35327513551287e-05 1.17102742699774e-05 3.99600059108977e-05 0.000176569063935502 0.000131055011435351 -7.29156640520412e-06 0.000107594962238865 0.000123834706977847 0.000158511020649404 4.31185661783874e-05 0.0002399474157219 8.0411518006479e-05 0.000126680696925396 0.000299696873515151
"151" 2.39541539429367e-05 -7.16321030870159e-05 -8.9823154350688e-05 5.34009108485957e-06 3.02834362080304e-05 0.000181566160170031 0.000117308076709916 -1.55902481557926e-05 0.000114583179320755 0.000135121323817455 0.000162144997674869 6.05862310323844e-05 0.000254449731091208 8.63460025240935e-05 0.000129263594144048 0.000303386054198272
"152" 1.79211223627123e-05 -8.32120984722334e-05 -9.44752802850058e-05 -1.93099792720871e-07 2.23184477672111e-05 0.000188019041527811 0.000105157234385608 -2.19152308473342e-05 0.000121989369193358 0.000146840402083603 0.000166055618100224 7.91835703858373e-05 0.000269746696065719 9.29051588134335e-05 0.000132255031603652 0.000307314746462974
"153" 1.35772448750147e-05 -9.43866614667787e-05 -9.74801305498605e-05 -4.8735765171906e-06 1.61237535669034e-05 0.00019593096474069 9.46678820806095e-05 -2.62300498054143e-05 0.000129788662686374 0.000158929469368864 0.000170230511198542 9.88385322085677e-05 0.000285822437144689 0.000100032451095754 0.000135638848283591 0.000311465112085662
"154" 1.09780093677131e-05 -0.000105069506310976 -9.88419904608253e-05 -8.7019917155512e-06 1.17331734727348e-05 0.00020529253105741 8.59104947830007e-05 -2.85048840408855e-05 0.000137948986021786 0.000171321057190595 0.000174654663794614 0.000119486302206931 0.000302659044116843 0.000107658116092169 0.000139396194384508 0.000315814217168648
"155" 1.01426196481521e-05 -0.000115189781316276 -9.85836108548144e-05 -1.16728694382383e-05 9.14885424324313e-06 0.00021607876569122 7.89109270735828e-05 -2.87451178171519e-05 0.000146430976381035 0.000183931705016574 0.00017930631821849 0.000141040320043179 0.000320214057713978 0.000115709783722509 0.000143492557423091 0.000320333472871514
"156" 1.10967995485763e-05 -0.000124694614963177 -9.67465374592999e-05 -1.38115486575332e-05 8.35494047539918e-06 0.000228257187234391 7.36806870027059e-05 -2.69722739885954e-05 0.000155201970892888 0.000196698134959953 0.000184170194369482 0.000163414882360812 0.0003384560021014 0.000124114015696758 0.000147900749496151 0.000324996603328429
"157" 1.38312005160597e-05 -0.000133530253791795 -9.33864125484363e-05 -1.51284962442188e-05 9.31039847715865e-06 0.000241783356427121 7.02239023989433e-05 -2.32198742505098e-05 0.000164200085397607 0.000209528676031466 0.000189208068024415 0.000186512092299301 0.000357330976899974 0.000132773864021903 0.000152575920359544 0.000329763012343149
"158" 1.83232334470388e-05 -0.000141656905404946 -8.8564948363612e-05 -1.56511008148482e-05 1.19513665750558e-05 0.000256596933090158 6.85131682920794e-05 -1.7556517967552e-05 0.000173373122857745 0.000222344962953882 0.000194388965571197 0.000210225796228577 0.000376780430615822 0.000141613767056545 0.000157474762900565 0.000334597953631016
"159" 2.4541462658834e-05 -0.000149062500643216 -8.23638008118737e-05 -1.54140653476427e-05 1.61944147321972e-05 0.000272630478143424 6.84962453342139e-05 -1.00566150555611e-05 0.000182663431548774 0.00023506416972632 0.000199684444378602 0.000234451711298463 0.000396740996450674 0.000150538428629531 0.000162552751067708 0.000339462961364083
"160" 3.24304996954522e-05 -0.000155733175250021 -7.48774120174949e-05 -1.44602143699518e-05 2.19317689742523e-05 0.000289800867445913 7.01128619778651e-05 -8.28928109453907e-07 0.000192006936708753 0.000247600160315698 0.000205048178085969 0.000259063678394733 0.0004171322590188 0.000159451903999238 0.000167757713706653 0.000344308470740517
"161" 4.1917392873245e-05 -0.000161657747045341 -6.62040391454816e-05 -1.28270320588351e-05 2.90435236988081e-05 0.000308015614615567 7.32819638802667e-05 1.00255667144554e-05 0.000201326436610077 0.000259872198925005 0.000210442488432108 0.000283946308755921 0.000437873286350665 0.000168267321308547 0.000173033353226867 0.000349093866439825
"162" 5.29259021570746e-05 -0.000166851487059796 -5.64564280924718e-05 -1.05668738348674e-05 3.7391665888717e-05 0.000327178040862452 7.79111548099528e-05 2.23731092645626e-05 0.000210553024393553 0.000271793760288085 0.000215815625315787 0.00030897118987697 0.000458870933499881 0.000176878839315455 0.00017831751182563 0.000353767507855822
"163" 6.53564530646425e-05 -0.000171334237231826 -4.57537442918182e-05 -7.734449617837e-06 4.68212455893132e-05 0.000347171919617117 8.38846716732355e-05 3.60665559198904e-05 0.000219611148101571 0.000283283242486696 0.000221128954137891 0.000334008870833448 0.000480031603037999 0.00018520241288653 0.000183559721215623 0.000358282137134673
"164" 7.90979409088127e-05 -0.000175127261395697 -3.42163224889508e-05 -4.38820693648781e-06 5.71736649193463e-05 0.000367882255210807 9.1078991711976e-05 5.09636602638635e-05 0.00022842588113622 0.000294268468099208 0.000226331992939349 0.000358929029706409 0.000501243619391439 0.000193143491196575 0.000188691213986852 0.000362588423983678
"165" 9.40378245226905e-05 -0.000178251113514109 -2.19688223649302e-05 -5.74562810389144e-07 6.82834779556887e-05 0.000389188300436426 9.93717946167033e-05 6.69059696319288e-05 0.000236916343844373 0.00030466675356818 0.000231374145362522 0.000383602118150873 0.000522401888758641 0.000200616401549347 0.00019366057964757 0.000366641168457582
"166" 0.0001100421101343 -0.00018075402008149 -9.15127288206643e-06 3.63194694553463e-06 7.99671925057531e-05 0.000410950508643941 0.000108611392216044 8.37219793653835e-05 0.000245002479905611 0.000314416031606629 0.000236205787480987 0.000407895200737792 0.000543389238269622 0.000207535963582857 0.000198397946349141 0.000370386111888702
"167" 0.000126973351293289 -0.000182663722244607 4.10899482990567e-06 8.17575365614813e-06 9.20398149720171e-05 0.000433037588512248 0.00011865606446325 0.000101242019633074 0.000252615623311806 0.000323443739927273 0.000240779958977512 0.000431672322180493 0.000564088925516121 0.000213818741500421 0.000202849811966441 0.000373779279159815
"168" 0.000144690641359152 -0.000184046338103374 1.76811434960475e-05 1.29940678070921e-05 0.0001043273511859 0.000455309113962399 0.000129340532314325 0.00011928556760989 0.00025967934069009 0.000331697483248337 0.000245050370507172 0.000454808987015676 0.000584372121353025 0.000219406056154308 0.000206959737417691 0.00037677402566002
"169" 0.000163043598749071 -0.00018492905759189 3.14341917487734e-05 1.80293737170319e-05 0.000116640266167496 0.000477620858923856 0.000140521594385641 0.000137687169053426 0.000266119935253002 0.000339118303472417 0.000248966245588066 0.000477175605820046 0.000604119650059708 0.000224221859830971 0.000210670691320213 0.000379327424050573
"170" 0.000181876488307297 -0.000185361854675357 4.52358942751796e-05 2.32150895763268e-05 0.000128807617482188 0.000499829112792112 0.000152035908515461 0.000156274338540599 0.000271866701231033 0.000345657505172019 0.000252482858617815 0.000498648153708367 0.000623204230630591 0.000228204271136392 0.000213924972727956 0.00038139397496881
"171" 0.000201039290407703 -0.00018540060727067 5.89715168146233e-05 2.84980673222425e-05 0.00014064884565554 0.000521786911023943 0.000163724105069396 0.000174868410441402 0.000276859417284588 0.000351279796713519 0.00025555840051159 0.000519116107296072 0.0006414973021127 0.000231312864755343 0.000216683097056865 0.000382941669593017
"172" 0.000220369826014264 -0.000185093192353664 7.25158396529934e-05 3.38150351375485e-05 0.000152003596768071 0.000543347400469636 0.000175431477490294 0.000193302447558694 0.000281040177240384 0.000355950172287244 0.00025815359493175 0.000538453018809317 0.000658872264132404 0.000233501485971002 0.000218896489175263 0.000383930597970766
"173" 0.000239716852688045 -0.000184480806408151 8.57588479729741e-05 3.91165873156719e-05 0.000162712551968626 0.000564373804581695 0.000187011855778242 0.000211424989619947 0.00028435128944609 0.000359639808757272 0.000260229307964869 0.000556563685357737 0.000675207392036859 0.000234735736042899 0.000220522647453432 0.000384327828435106
"174" 0.000258925619523757 -0.000183606121576843 9.85961994452849e-05 4.4348791643192e-05 0.000172634840518059 0.000584723636394212 0.000198322551661232 0.000229086118228867 0.000286743685079301 0.000362329144169902 0.000261751885559451 0.000573344779203221 0.000690383445395797 0.000234985247846322 0.00022152700385778 0.000384106696817197
"175" 0.000277842003373988 -0.000182518500422621 0.000110929755166897 4.9464487678034e-05 0.00018163815877492 0.000604255238108588 0.000209217727536556 0.000246133583019168 0.000288179320816823 0.000364008391486253 0.000262690792446008 0.000588702400299379 0.000704274045016154 0.000234247126101909 0.000221881751935896 0.000383245221141904
"176" 0.000296322469395551 -0.000181257444261983 0.000122675968476347 5.44151831196471e-05 0.000189598940348145 0.000622843656739968 0.000219577146856428 0.000262444764596279 0.000288626739629335 0.000364669557345476 0.000263021500953976 0.000602556138844631 0.000716775681177638 0.000232510519251759 0.000221561149782522 0.000381720118314811
"177" 0.000314229329868423 -0.000179854831373425 0.000133754374596777 5.91666566901659e-05 0.000196418078248437 0.000640362685219593 0.000229275737079973 0.000277904110533029 0.000288052397022278 0.000364318109693393 0.000262718551889658 0.000614829786115803 0.000727780920985313 0.000229770288165984 0.000220544060153088 0.000379515530836641
"178" 0.000331422625103723 -0.00017834567771682 0.000144097758600538 6.36783599019026e-05 0.000202008992595967 0.000656692074443928 0.000238209178698569 0.000292400774357818 0.000286437351543385 0.000362963029205823 0.000261766212507443 0.000625458282924501 0.000737186389256713 0.000226051805339619 0.000218817786944908 0.000376621491437571
"179" 0.000347784439374453 -0.000176752388131269 0.000153649816362916 6.79145196964037e-05 0.000206305373919294 0.000671724011239924 0.000246280434199233 0.000305842494169465 0.000283774075091258 0.000360618971394005 0.000260154409544994 0.000634389207521389 0.000744904608494492 0.000221362005390171 0.000216377336830104 0.000373031043204187
"180" 0.000363197992921846 -0.000175106564619082 0.000162364459949257 7.18492756302214e-05 0.000209247390894771 0.000685357444359151 0.00025340914145954 0.000318153055270796 0.000280057121497744 0.000357308901244975 0.000257876636732576 0.00064157679503265 0.000750856336248795 0.000215744825740722 0.00021322394809714 0.000368744404202631
"181" 0.000377547055690455 -0.000173419198069967 0.000170201934673496 7.54583254306312e-05 0.000210802341712414 0.000697497446348554 0.000259520557996038 0.000329272729139717 0.00027528887028191 0.000353058664421423 0.000254923717199471 0.000646982514389231 0.000754963683821838 0.000209222837100971 0.000209358408119203 0.00036375977464127
"182" 0.000390743134238281 -0.000171709656478817 0.000177134832897052 7.87213644300729e-05 0.000210949092043037 0.000708065614938793 0.000264560342288006 0.000339148465662071 0.000269481977178579 0.000347901220966807 0.000251299997720196 0.000650586202672078 0.000757166713787068 0.000201849143589052 0.000204790249049992 0.000358087212616071
"183" 0.000402701582774962 -0.000169983541904989 0.000183153044667697 8.16196044056383e-05 0.000209693115071677 0.000716994609306693 0.000268489860990292 0.000347756715978532 0.000262657491793962 0.000341877670091779 0.000247015623508509 0.000652378334339633 0.000757421580419086 0.000193670179730071 0.000199543854293668 0.000351737818946188
"184" 0.000413347012428209 -0.000168251106020023 0.000188248072154107 8.41450619953318e-05 0.000207042698219798 0.00072422305784851 0.000271278327001415 0.000355077684198717 0.000254838647597504 0.00033502906316724 0.000242081092073333 0.000652355196982066 0.000755689652294537 0.000184746342331873 0.000193635956903033 0.000344727580359542
"185" 0.000422616600014155 -0.000166517767921611 0.000192424545767399 8.62814168078003e-05 0.000203029812824434 0.000729705324724047 0.00027290295838087 0.000361101147617769 0.000246063800254778 0.000327405075529191 0.000236510345407808 0.000650524395438619 0.000751938764934377 0.000175138137618803 0.000187095444871848 0.000337074102229256
"186" 0.000430466677115058 -0.00016476986530223 0.000195697968269924 8.80376404854231e-05 0.000197700842197811 0.000733412290913834 0.000273376033648178 0.000365857004354874 0.000236373230799434 0.000319052454649668 0.000230327130627812 0.000646908479885775 0.000746169036363664 0.000164914210417943 0.000179957012078793 0.000328805602345119
"187" 0.000436848955729753 -0.000163020813608405 0.000198081755773928 8.93990378879984e-05 0.000191110073158513 0.000735314925151565 0.000272698299101401 0.000369353007329487 0.000225812661065496 0.000310025480438555 0.00022355796684641 0.000641532836367179 0.000738373398948659 0.000154151280914267 0.000172258952606131 0.000319949739930177
"188" 0.00044175003588845 -0.000161243371816011 0.00019961912493138 9.03788511038125e-05 0.000183337457579155 0.000735414297102688 0.000270902139809078 0.000371645270131321 0.000214434764472897 0.000300381921269983 0.000216226371024539 0.000634444458437177 0.000728573016974272 0.000142916564157666 0.0001640409121786 0.000310534860831346
"189" 0.000445150827725 -0.00015944362867392 0.000200328797056805 9.09700741545631e-05 0.000174453008324289 0.000733709837221506 0.000268021446157779 0.000372774132266141 0.000202303948593564 0.000290175284852589 0.000208374240089149 0.000625691588908127 0.000716800679014009 0.000131292104939051 0.000155351851098883 0.000300597575962278
"190" 0.000447050601537622 -0.000157595022596856 0.000200265126057727 9.11953095541696e-05 0.000164556172054999 0.000730224079096615 0.000264107469982927 0.000372810526749568 0.000189476011166323 0.000279466328779243 0.000200028401151926 0.00061533136227382 0.000703095067353006 0.000119354879160616 0.00014623626656958 0.000290175707598654
"191" 0.00044746259624256 -0.000155698709720245 0.000199469513508046 9.10505922430801e-05 0.000153739792159678 0.000724983038615538 0.000259214140845556 0.00037182521347539 0.000176023061628855 0.000268311387659725 0.000191235893445867 0.000603435831580889 0.0006875157572291 0.000107183109574005 0.000136747597790501 0.000279304683277215
"192" 0.000446413690778205 -0.000153733296500992 0.00019800146367197 9.05576862582445e-05 0.000142120022755685 0.000718038057459504 0.000253410588636388 0.000369902897868889 0.000162022157039367 0.000256773572855428 0.000182038676192146 0.000590085052733973 0.000670136837883802 9.48688074041868e-05 0.000126949317434276 0.000268036941048617
"193" 0.000443926232005656 -0.000151689399559617 0.000195909843645185 8.97254448050493e-05 0.000129794268717836 0.000709435415949073 0.000246768551623416 0.000367128292834118 0.000147538315464009 0.000244908824320987 0.000172477478517177 0.000575357980866674 0.000651032529810522 8.24787473846194e-05 0.000116883177413429 0.000256405202376839
"194" 0.000440055475007819 -0.000149545107146096 0.00019325356351946 8.85757411376559e-05 0.000116884301283081 0.000699248713122987 0.000239378220652787 0.000363610450874794 0.000132655697366371 0.000232776336243388 0.00016260439646231 0.000559355337437109 0.00063031383764445 7.01014678755756e-05 0.000106617674029075 0.000244465100582781
"195" 0.000434848522370334 -0.000147287129327149 0.000190096201205483 8.71223469094105e-05 0.000103501050110439 0.000687550559538323 0.000231323893587232 0.000359445676703767 0.000117451484323082 0.000220428361143028 0.000152464616393188 0.000542167383836567 0.000608081317393811 5.78057414466176e-05 9.6206647440793e-05 0.000232259831771752
"196" 0.000428365861227474 -0.000144906703124659 0.000186493561106094 8.53790495167139e-05 8.97645919134246e-05 0.000674432610359286 0.000222693266146896 0.000354741080306129 0.000102003451044334 0.000207923553598124 0.000142108699567144 0.000523903783698818 0.000584449956419541 4.56718410397546e-05 8.57073754470695e-05 0.000219835877271531
"197" 0.000420681572586624 -0.000142379272212111 0.00018251105905525 8.33759677009001e-05 7.5787373282005e-05 0.000659993121210816 0.000213599954528701 0.000349615828091709 8.63896234262888e-05 0.000195312881650325 0.000131585731597051 0.000504673984840598 0.000559559816182155 3.37630982458934e-05 7.51786421414739e-05 0.000207247566930277
"198" 0.000411876377421435 -0.000139705455654797 0.00017820980813976 8.11238113793479e-05 6.16784542657602e-05 0.000644335547051614 0.000204126495120756 0.00034417352117815 7.06995662012581e-05 0.000182646685031076 0.000120951063640514 0.00048459744255067 0.000533544450412847 2.21534165748098e-05 6.46815528146572e-05 0.000194540343299903
"199" 0.000402024013392859 -0.000136878377006495 0.00017364039557301 7.86418267801114e-05 4.75478281219477e-05 0.000627569355960739 0.000194376201315879 0.000338524778011005 5.50009405157628e-05 0.000169975444631417 0.000110249786333105 0.000463786100273635 0.000506548532576059 1.09048856301745e-05 5.42666209502378e-05 0.000181762316266962
"200" 0.000391216248235413 -0.000133876053526726 0.000168868474295165 7.59555338271614e-05 3.34939499636396e-05 0.000609816595049917 0.000184457720003614 0.000332787127111805 3.93722945034774e-05 0.000157332742155675 9.95299256570289e-05 0.000442355611560318 0.000478726637204461 6.86692799113616e-08 4.3986029195472e-05 0.000168963810354163
"201" 0.000379547596022467 -0.000130704704541498 0.000163944908659089 7.3082509153064e-05 1.9612531366131e-05 0.000591199168363593 0.000174459350535499 0.00032706397509598 2.38857461149146e-05 0.000144766934867854 8.88454278447935e-05 0.000420436381764578 0.000450236630377541 -1.03004835768641e-05 3.38923855070576e-05 0.000156190124769225
"202" 0.000367113828430751 -0.000127361771169226 0.00015891769698663 7.00400615750129e-05 5.99308019562414e-06 0.000571844014304414 0.00016447938944328 0.000321462780564231 8.61830251080888e-06 0.000132313666411036 7.82387692498798e-05 0.000398148937336268 0.000421241293395818 -2.01539718524241e-05 2.40365462727686e-05 0.000143489304955771
"203" 0.000354005696643823 -0.000123847605722812 0.000153830448813856 6.68405720091948e-05 -7.29232705569385e-06 0.000551875341135128 0.000154609500973051 0.000316080351291688 -6.37167774842106e-06 0.000120001821226411 6.77554719335965e-05 0.000375609061580503 0.000391905621232961 -2.94627331722245e-05 1.44547526746312e-05 0.000130902811020517
"204" 0.000340331779846656 -0.00012015759306446 0.000148734211241067 6.35124141590073e-05 -2.01580910291466e-05 0.000531432049048602 0.000144943251182675 0.000311016618117256 -2.10162119546561e-05 0.000107864671495696 5.74402508374264e-05 0.00035294833995329 0.000362398289606329 -3.81801488201497e-05 5.19547374012296e-06 0.000118476578073894
"205" 0.000326186784538791 -0.000116313689011526 0.00014365622087174 6.00641613695377e-05 -3.25592556902227e-05 0.000510639435313126 0.000135555348349366 0.000306349403633284 -3.52545960543433e-05 9.59307424758459e-05 4.73359969708155e-05 0.000330280199836281 0.000332884283278772 -4.62818064344383e-05 -3.70464257707561e-06 0.000106252806237661
"206" 0.000311672334567536 -0.000112313153112037 0.000138640360448403 5.65147732380591e-05 -4.44314578371323e-05 0.000489628741539237 0.000126525519142013 0.000302173454412197 -4.90410704883618e-05 8.42193151065168e-05 3.74739606768353e-05 0.00030772818588627 0.000303531062600964 -5.37523300770895e-05 -1.22195594209243e-05 9.42682213663977e-05
"207" 0.000296882071526959 -0.000108167916565433 0.000133706994468158 5.28770568614894e-05 -5.57387710692148e-05 0.00046852651215115 0.000117929811189296 0.000298557062791297 -6.23286057538417e-05 7.27449626974358e-05 2.78879337192484e-05 0.000285399561335222 0.000274497574226748 -6.05815617861253e-05 -2.03193470161067e-05 8.25559611269547e-05
"208" 0.000281913498020223 -0.000103898703760565 0.000128877655052559 4.91609290570541e-05 -6.64464837251647e-05 0.000447455371414881 0.000109829079545804 0.000295557489049281 -7.50668902199623e-05 6.15302753469748e-05 1.86166481613116e-05 0.000263408314057453 0.000245944762826087 -6.67534593819949e-05 -2.79756659779109e-05 7.11555322541721e-05
"209" 0.000266852407858849 -9.95165699535247e-05 0.000124170546899095 4.53812730300853e-05 -7.65378671493618e-05 0.000426528711432145 0.000102269203786825 0.000293233648779893 -8.72279187578825e-05 5.05783825642835e-05 9.67608361556115e-06 0.000241856246272812 0.000218021530064204 -7.22808518702372e-05 -3.51796681021854e-05 6.00889834967843e-05
"210" 0.000251796205517244 -9.50408665141699e-05 0.000119605371601862 4.15470589171756e-05 -8.59890937633094e-05 0.000405870210906409 9.53109205602722e-05 0.000291636519703492 -9.87771173877336e-05 3.99029116758994e-05 1.10111305645851e-06 0.000220850139791112 0.000190883249350731 -7.71545259655043e-05 -4.19085819281124e-05 4.93928849523532e-05
"211" 0.000236824345898051 -9.05042988741237e-05 0.000115185862273452 3.76638542495556e-05 -9.48065427919551e-05 0.000385579015993147 8.89861971676737e-05 0.000290792070001362 -0.000109689749297049 2.9512906262441e-05 -7.09154420884953e-06 0.000200481661924995 0.00016465871797437 -8.13946656603589e-05 -4.81565996519279e-05 3.90888016819151e-05
"212" 0.000222014997889194 -8.59162828126631e-05 0.000110912717908627 3.37433552619999e-05 -0.000102988634760162 0.000365759445408266 8.33266719714674e-05 0.000290739996300597 -0.00011995283035566 1.94063002981801e-05 -1.48879901927296e-05 0.000180842705592287 0.000139487652881089 -8.50213619407942e-05 -5.39210335749596e-05 2.91958529962292e-05
"213" 0.000207441266126959 -8.13021337974015e-05 0.000106794970283315 2.9793368316718e-05 -0.000110549269765641 0.000346502136484046 7.83631825030105e-05 0.000291488617900107 -0.000129551711628219 9.58140086455211e-06 -2.22765215025492e-05 0.000162010720131823 0.0001154819291559 -8.80555795340311e-05 -5.92014390185552e-05 1.97333889896607e-05
"214" 0.000193165796791656 -7.66893488222626e-05 0.000102816375107489 2.58130981775546e-05 -0.000117507288380225 0.000327888969966868 7.41009537922289e-05 0.000293050749563481 -0.000138484699875644 3.81996128590144e-08 -2.92479392967204e-05 0.000144057496168901 9.2752334755968e-05 -9.05321511763209e-05 -6.40060644167715e-05 1.07160508388878e-05
"215" 0.000179257845074009 -7.21075047586621e-05 9.89727299195106e-05 2.18091670924135e-05 -0.000123890297548795 0.000309997291748242 7.05545697339769e-05 0.000295423264818082 -0.000146738752209363 -9.22500953329446e-06 -3.57929753972699e-05 0.000127058715439918 7.14036458518992e-05 -9.24702292204607e-05 -6.83354058629181e-05 2.15897526750402e-06
"216" 0.00016576744326639 -6.75812263909375e-05 9.52606381921553e-05 1.77870840510861e-05 -0.000129727561043957 0.00029289179000074 6.77217514137212e-05 0.000298593011036249 -0.000154334606077131 -1.82146614845307e-05 -4.19154409737414e-05 0.000111068295030298 5.15173111913914e-05 -9.39183885830191e-05 -7.22090215695069e-05 -5.93022449315679e-06
"217" 0.000152746714631264 -6.31284656783106e-05 9.16608067428034e-05 1.37496637499512e-05 -0.000135056129697344 0.000276633439413733 6.55954793280881e-05 0.000302550211119739 -0.000161274816850624 -2.69385954920562e-05 -4.7613240851835e-05 9.61375245543386e-05 3.31697204549055e-05 -9.49143316483578e-05 -7.56409111929761e-05 -1.35458606619176e-05
"218" 0.000140232974526966 -5.87919810230726e-05 8.81582938129434e-05 9.69329241162535e-06 -0.000139917420829365 0.00026125868136374 6.41547940923353e-05 0.000307250403894247 -0.00016757274346931 -3.54011064221207e-05 -5.28939009593485e-05 8.23088507330885e-05 1.64185901138086e-05 -9.54996068428928e-05 -7.86522151912678e-05 -2.06852695718876e-05
"219" 0.000128260313995719 -5.45853936633855e-05 8.47342979839705e-05 5.6287453424349e-06 -0.00014436057970246 0.00024681229854952 6.33838279295493e-05 0.000312667132252965 -0.000173255381955839 -4.36154154726634e-05 -5.77671220501295e-05 6.96168810169947e-05 1.31490737231613e-06 -9.5724415636392e-05 -8.12645175474404e-05 -2.73488287007215e-05
"220" 0.000116857217145385 -5.0539229798771e-05 8.13734907773004e-05 1.5493486114671e-06 -0.000148422867126018 0.0002333192055079 6.32546193859284e-05 0.000318755334710797 -0.000178342904057072 -5.15878992819963e-05 -6.22425738974192e-05 5.80865018082536e-05 -1.21120313391299e-05 -9.56351021520872e-05 -8.35034631045724e-05 -3.35401393301369e-05
"221" 0.000106052399105513 -4.66719116932654e-05 7.8052656533728e-05 -2.53737306700508e-06 -0.00015215597699278 0.000220798441121623 6.37366065843125e-05 0.000325466828892257 -0.000182858796558499 -5.93253764178958e-05 -6.63334322550665e-05 4.77370043478498e-05 -2.38306787839153e-05 -9.52777778406789e-05 -8.53955504199615e-05 -3.92603681593642e-05
"222" 9.58577649458652e-05 -4.30131809243879e-05 7.47619514839483e-05 -6.63246830889784e-06 -0.000155600746450679 0.000209260922347624 6.47892111837405e-05 0.00033274474148606 -0.000186834532481146 -6.68336709671212e-05 -7.00556859153092e-05 3.85806630997897e-05 -3.38425581439122e-05 -9.46969861191836e-05 -8.69657776721706e-05 -4.45172278130615e-05
"223" 8.62799100775753e-05 -3.9567113099224e-05 7.14769640245958e-05 -1.07307026397219e-05 -0.000158808388914276 0.000198705537554557 6.6374586548248e-05 0.000340533250923886 -0.000190308738940866 -7.41278855273171e-05 -7.34306880112086e-05 3.06144325431722e-05 -4.21466327987566e-05 -9.39515584517989e-05 -8.82522850766679e-05 -4.93225246908543e-05
"224" 7.73288947296222e-05 -3.63683295098279e-05 6.81795920351011e-05 -1.48369085405827e-05 -0.000161826131352349 0.000189123287635275 6.84417938583433e-05 0.00034875451801676 -0.000193309569703018 -8.12093903344358e-05 -7.64740081006745e-05 2.38378209761436e-05 -4.87644152204942e-05 -9.30812882962966e-05 -8.92771134407065e-05 -5.36869741380218e-05
"225" 6.90060126058912e-05 -3.3426428146085e-05 6.4854950604137e-05 -1.89413049890403e-05 -0.000164686418020411 0.000180502694632322 7.09449972054173e-05 0.000357351947398689 -0.000195873855169252 -8.80844025855444e-05 -7.92063185468728e-05 1.82321931591442e-05 -5.37223742633505e-05 -9.21393734908647e-05 -9.00769427045689e-05 -5.76249826264139e-05
"226" 6.130089254074e-05 -3.07590998280027e-05 6.14869478592205e-05 -2.30437424715651e-05 -0.000167438401481577 0.000172813472660189 7.38312368467118e-05 0.000366238643216982 -0.000198037601549113 -9.47547135577936e-05 -8.16492990746186e-05 1.37784849109408e-05 -5.70650328321107e-05 -9.11589302811809e-05 -9.06740854871528e-05 -6.11455365373375e-05
"227" 5.42073837847595e-05 -2.83673751872224e-05 5.8060319463604e-05 -2.71376799399754e-05 -0.000170115345050078 0.000166026346870746 7.7055802753015e-05 0.000375346320005221 -0.000199842434939008 -0.000101232013811851 -8.38319718670755e-05 1.04444807814193e-05 -5.88446370803949e-05 -9.01963739252614e-05 -9.11096507040827e-05 -6.42712962696879e-05
"228" 4.7708567037582e-05 -2.62670458700432e-05 5.45697851402111e-05 -3.12200522525596e-05 -0.000172747788521254 0.000160106927990625 8.05549393866282e-05 0.000384595327691181 -0.000201323870142441 -0.000107510946533684 -8.57711390632975e-05 8.20136102009319e-06 -5.9128780046602e-05 -8.92805958303189e-05 -9.1407891981611e-05 -6.70163056525338e-05
"229" 4.17940221239861e-05 -2.44557199781814e-05 5.10109178943455e-05 -3.52817553657533e-05 -0.000175359798333677 0.000155017401392445 8.4286099393544e-05 0.000393916062816636 -0.000202513138275316 -0.000113592056657071 -8.74909185081271e-05 7.0071795715807e-06 -5.79862039941392e-05 -8.84466744387459e-05 -9.15910690105265e-05 -6.939514723402e-05
"230" 3.64411866647249e-05 -2.29473171613228e-05 4.73682578203262e-05 -3.93226529383084e-05 -0.000177986414455953 0.000150699062146382 8.81835163114406e-05 0.000403209151627544 -0.000203449066815333 -0.000119477795488874 -8.90149527317773e-05 6.81177536483787e-06 -5.55038916963218e-05 -8.77331355868797e-05 -9.16912155294285e-05 -7.14316058004222e-05
"231" 3.16304395126893e-05 -2.17310162988635e-05 4.36419448535007e-05 -4.33275792421331e-05 -0.000180635910484674 0.000147105885775093 9.22023334939526e-05 0.000412409411962672 -0.000204170082733749 -0.000125161760909175 -9.03676426950955e-05 7.56098938278394e-06 -5.17721459721791e-05 -8.71661400063987e-05 -9.17323748775446e-05 -7.31437645475801e-05
"232" 2.73387645726399e-05 -2.08080166593672e-05 3.98425451187223e-05 -4.72909535738699e-05 -0.000183318449102014 0.000144182672904568 9.62871247239085e-05 0.000421436065815452 -0.000204698246155326 -0.000130634243136019 -9.15664049161251e-05 9.20879823394335e-06 -4.68917637702684e-05 -8.67666020963778e-05 -9.17331635708709e-05 -7.45486082335271e-05
"233" 2.35422606057276e-05 -2.01770248333881e-05 3.59642613869817e-05 -5.12071319553978e-05 -0.000186048772947735 0.000141867198290435 0.00010038622036285 0.000430211290170513 -0.000205065858343872 -0.000135892312041616 -9.26301797720991e-05 1.16855931798011e-05 -4.09612876889048e-05 -8.65509480005496e-05 -9.17110533787518e-05 -7.56649013628504e-05
"234" 2.02108572457196e-05 -1.98214175276862e-05 3.2020371588443e-05 -5.50580635096119e-05 -0.000188823425811345 0.000140097020502796 0.000104451855552499 0.000438652380965833 -0.000205303021783994 -0.000140929985282053 -9.35846936987004e-05 1.49255781158013e-05 -3.41027759304403e-05 -8.6541725501166e-05 -9.16883795230735e-05 -7.65140518097961e-05
"235" 1.73261464702775e-05 -1.97358374998984e-05 2.80166800410984e-05 -5.88378763631922e-05 -0.000191637918144123 0.000138808725691059 0.000108442260243349 0.000446698276395859 -0.000205429027988873 -0.000145731777369508 -9.44430716368909e-05 1.88681577071181e-05 -2.64231058576386e-05 -8.6743073586522e-05 -9.16699785626723e-05 -7.71122223670427e-05
"236" 1.48640680259588e-05 -1.9909129446133e-05 2.39667166622015e-05 -6.2538318647771e-05 -0.000194487846462591 0.000137939530243798 0.00011230672120764 0.000454267656583867 -0.000205455363921509 -0.000150282051536634 -9.52146338928169e-05 2.34394506352422e-05 -1.80384671585358e-05 -8.7151800995022e-05 -9.16634135354593e-05 -7.74738987966083e-05
"237" 1.27907909363174e-05 -2.03192989419801e-05 1.98939821217816e-05 -6.61389789502673e-05 -0.000197356752837573 0.000137416895689839 0.000116008394466812 0.000461307431087679 -0.000205418089847137 -0.000154576175661803 -9.59276667262048e-05 2.85640020367638e-05 -9.07768076292243e-06 -8.77862986264728e-05 -9.16884523328826e-05 -7.76262163217515e-05
"238" 1.10902191162703e-05 -2.09570332987842e-05 1.58118690465211e-05 -6.9638098590846e-05 -0.000200224008886857 0.000137183399919974 0.000119512205802452 0.000467744201285992 -0.000205313977533414 -0.000158593421199434 -9.65792404347805e-05 3.41741799277545e-05 3.42016580858841e-07 -8.86280185431057e-05 -9.17371046548948e-05 -7.75768601286015e-05
"239" 9.73907355804545e-06 -2.17985448100693e-05 1.17409806967676e-05 -7.30153883526749e-05 -0.000203068778962762 0.000137169345467001 0.000122790623645167 0.000473531785500113 -0.000205154682748588 -0.000162317825501326 -9.71868433012343e-05 4.01930809077981e-05 1.01015648453045e-05 -8.9671823357453e-05 -9.18090840829211e-05 -7.73436915902271e-05
"240" 8.71264692255667e-06 -2.28274835608892e-05 7.70392262421717e-06 -7.62617783196772e-05 -0.000205872016022978 0.000137305977055212 0.000125801727551711 0.000478605546651809 -0.000204952902557336 -0.000165736371495185 -9.77595823481352e-05 4.65421214269759e-05 2.00724819942202e-05 -9.09088957019696e-05 -9.19100663492073e-05 -7.69468014504017e-05
"241" 7.99919080082555e-06 -2.40197626008146e-05 3.73814309686971e-06 -7.93634011297376e-05 -0.000208593453439435 0.000137538900027266 0.000128532558038886 0.000482928948948743 -0.000204700464263091 -0.000168824731711265 -9.82947217007354e-05 5.31556690987741e-05 3.01450803867802e-05 -9.23098804082985e-05 -9.20208250057841e-05 -7.63893184519449e-05
"242" 7.57613752526736e-06 -2.53513012083586e-05 -1.39711580214549e-07 -8.23121183251905e-05 -0.000211206760443548 0.000137803958555394 0.000130954196996863 0.000486459075599997 -0.000204400619335587 -0.000171569789187944 -9.88010802616532e-05 5.99574256470754e-05 4.01968057203552e-05 -9.38671138789666e-05 -9.21391142991108e-05 -7.56900488153502e-05
"243" 7.42877541495482e-06 -2.68082970153627e-05 -3.90617815224495e-06 -8.50972634931852e-05 -0.000213681693671085 0.000138042728173535 0.000133055670833031 0.000489154397515516 -0.000204041838136124 -0.000173949921684579 -9.92749469256619e-05 6.68742856717208e-05 5.01221882296414e-05 -9.55481310804754e-05 -9.22490917452528e-05 -7.4860267458342e-05
"244" 7.54728039031313e-06 -2.83549777996975e-05 -7.52006550660968e-06 -8.77056453598488e-05 -0.000215973797128674 0.000138200248154817 0.000134822376909244 0.000490993019590294 -0.000203628358836744 -0.000175952731929392 -9.97206226135451e-05 7.38373483335636e-05 5.98104201502516e-05 -9.73300431816091e-05 -9.23427520659737e-05 -7.3910048332089e-05
"245" 7.91983880273732e-06 -2.99727891061144e-05 -1.09616312921377e-05 -9.01303102674637e-05 -0.00021805424933424 0.000138224373180866 0.000136249528667428 0.000491946283701375 -0.000203136288716453 -0.000177556879348892 -0.000100132576190302 8.07781278710663e-05 6.91634530676175e-05 -9.91793269640693e-05 -9.2393161805847e-05 -7.28436541537198e-05
"246" 8.54288120110504e-06 -3.1634376254321e-05 -1.41941609000814e-05 -9.23589837017328e-05 -0.00021988235691807 0.00013807459091222 0.000137333323064326 0.00049200305151602 -0.000202554383226034 -0.000178745603402109 -0.000100502354067125 8.7639856674221e-05 7.8092671026109e-05 -0.000101063899330502 -9.23845983930606e-05 -7.16719255251431e-05
"247" 9.40846159206577e-06 -3.33222744441816e-05 -1.71896962883744e-05 -9.43848875532524e-05 -0.000221420366703326 0.000137701671503095 0.000138067466874232 0.000491151221404411 -0.000201867949610314 -0.00017949817072739 -0.00010082871842538 9.43567083818189e-05 8.65034204326458e-05 -0.000102949345095871 -9.22951769409584e-05 -7.0401295598396e-05
"248" 1.05170582558418e-05 -3.49984280569334e-05 -1.99177556068728e-05 -9.62002565027259e-05 -0.000222632450282843 0.000137073010808943 0.000138470431773423 0.000489396394554102 -0.000201058035233113 -0.00017980752343719 -0.000101100309947057 0.000100878350287977 9.43248294904619e-05 -0.00010480677691035 -9.21039620900999e-05 -6.90367825280682e-05
"249" 1.18650208550041e-05 -3.66451054537984e-05 -2.23637383526241e-05 -9.7806843820911e-05 -0.000223488998175068 0.000136153812665825 0.00013854223492555 0.000486732226844175 -0.000200100242194037 -0.000179657885118107 -0.000101306268287142 0.000107149278516975 0.000101489634679105 -0.000106596063097069 -9.17847176928087e-05 -6.75811604024708e-05
"250" 1.34631074940438e-05 -3.82458010122484e-05 -2.44860781707981e-05 -9.91909300473391e-05 -0.000223949501351893 0.000134915376104763 0.000138296796538702 0.000483174126192296 -0.000198974445582108 -0.000179030243689368 -0.000101436212964896 0.000113125725937927 0.000107938232021814 -0.000108275253310186 -9.13102065779878e-05 -6.60386512882474e-05
"251" 1.53090378762505e-05 -3.97638064086728e-05 -2.62707552607323e-05 -0.00010035547765525 -0.000223989596828625 0.000133338325358408 0.000137752189330315 0.00047873957447459 -0.000197659525708242 -0.000177924885871878 -0.000101480580444398 0.000118762432950038 0.000113617974315938 -0.000109819412871357 -9.06593457441948e-05 -6.44131122165354e-05
"252" 1.74093192336211e-05 -4.11892707677999e-05 -2.7695423551409e-05 -0.000101299236567347 -0.00022358153466085 0.000131397295608513 0.000136922948309646 0.000473443846380651 -0.000196129127689789 -0.00017633153634553 -0.000101426871793822 0.000124023852255766 0.000118490797734365 -0.000111184492147222 -8.9808619848797e-05 -6.27035732474861e-05
"253" 1.9772186959998e-05 -4.24946167536521e-05 -2.87468080414326e-05 -0.000102023552369514 -0.000222705104178461 0.000129083330193495 0.000135836728637876 0.000467319440069387 -0.000194366522803732 -0.000174243952433418 -0.000101262141730895 0.000128877772264405 0.000122529936291708 -0.000112344439266325 -8.87327423244876e-05 -6.09141709567756e-05
"254" 2.24133618403905e-05 -4.36555286415363e-05 -2.94009528511026e-05 -0.000102522212419389 -0.000221330172971328 0.000126394538090926 0.000134514600982504 0.000460405736195354 -0.000192341090436502 -0.000171658934155728 -0.000100972387825903 0.000133301218640969 0.000125713333330845 -0.000113259837598867 -8.74037003267771e-05 -5.90424921540703e-05
"255" 2.53373631226432e-05 -4.46621217083909e-05 -2.96526822312243e-05 -0.000102810381079665 -0.000219448921559573 0.000123318933995585 0.000132984911275293 0.000452731464265416 -0.000190039499968774 -0.000168578375847011 -0.000100547598902271 0.000137269625098259 0.000128035405316156 -0.0001139094671956 -8.58026905419666e-05 -5.70928423245348e-05
"256" 2.85566293862152e-05 -4.5490065644669e-05 -2.94956414052949e-05 -0.000102884948406592 -0.000217052389777132 0.000119864197391988 0.000131273014031759 0.00044434662328304 -0.00018743540158778 -0.000165007935905952 -9.99745620939686e-05 0.000140766876278708 0.000129494462496004 -0.000114256076438757 -8.39090532675778e-05 -5.50607414928029e-05
"257" 3.2088859836095e-05 -4.61220222348785e-05 -2.89157424020104e-05 -0.000102751075521817 -0.000214117722873155 0.000116042359027243 0.000129419095211821 0.00043530054553275 -0.000184512472387884 -0.000160949582268178 -9.92413525471344e-05 0.000143789996666457 0.00013010385898392 -0.000114280180576432 -8.17021320765661e-05 -5.29496724637906e-05
"258" 3.5938297494568e-05 -4.65432731252303e-05 -2.79231385122746e-05 -0.000102421109086468 -0.000210657574509611 0.000111854805859822 0.000127447062116965 0.000425641856204634 -0.00018125643617401 -0.00015641405648287 -9.83372573822518e-05 0.000146329003954744 0.000129881445812177 -0.000113955217259241 -7.91664017757696e-05 -5.07551843282484e-05
"259" 4.0123716830137e-05 -4.67446984547791e-05 -2.65202402537702e-05 -0.000101898251065357 -0.000206668073331621 0.000107322054369916 0.000125387132299961 0.000415420803006719 -0.000177649674390382 -0.000151414940189326 -9.72546230831802e-05 0.000148381743604505 0.000128854087279578 -0.000113271880433455 -7.62905561688584e-05 -4.8483783760857e-05
"260" 4.46565212228069e-05 -4.67059394088808e-05 -2.47079749012072e-05 -0.000101196676105367 -0.000202150443908279 0.00010246656644303 0.000123280885061557 0.000404704294268369 -0.00017368144453635 -0.000145963916714755 -9.59820432856886e-05 0.000149962357865569 0.000127063906146705 -0.000112203615190687 -7.30579616200243e-05 -4.61303517302751e-05
"261" 4.95472636816341e-05 -4.64183072091746e-05 -2.25042229129912e-05 -0.000100322940217989 -0.00019712146013541 9.73064775040776e-05 0.000121156158399679 0.000393549195823136 -0.000169341830502407 -0.000140082975164598 -9.45160128320135e-05 0.000151074049302984 0.00012455249547734 -0.000110745164549844 -6.94614161465246e-05 -4.36966319518266e-05
"262" 5.48020966537698e-05 -4.58774782107594e-05 -1.99271062824684e-05 -9.92958675190389e-05 -0.000191593741084328 9.18655537372636e-05 0.000119045584907754 0.000382009482704773 -0.000164630290086311 -0.000133790965454848 -9.28500473370707e-05 0.000151731132637721 0.000121366238280843 -0.000108889338286156 -6.54968115107098e-05 -4.11888103502495e-05
"263" 6.04308332010511e-05 -4.50696114966086e-05 -1.6994192157716e-05 -9.81170775801019e-05 -0.000185588874364832 8.6170224587958e-05 0.000116978799076527 0.000370149347834103 -0.000159547485882141 -0.000127118764086751 -9.0983859626452e-05 0.00015194701681199 0.000117561397209133 -0.000106637139742509 -6.11657367491438e-05 -3.86055314507537e-05
"264" 6.64428896535212e-05 -4.39934713307388e-05 -1.37230777541273e-05 -9.68084296173127e-05 -0.000179122250532848 8.02544432867061e-05 0.000114988839291748 0.000358035205237636 -0.000154087486527891 -0.000120085977175687 -8.89122284770359e-05 0.000151751929573678 0.000113202695044197 -0.00010398130433066 -5.64634939603052e-05 -3.59487236050391e-05
"265" 7.28400132840057e-05 -4.26384656151898e-05 -1.01511762778694e-05 -9.53785244060242e-05 -0.000172228011563385 7.41472366552983e-05 0.000113108976735779 0.000345725752775948 -0.000148261774212727 -0.000112726423985944 -8.66393101795025e-05 0.000151164953741476 0.000108355633912668 -0.000100931376141435 -5.13983528641292e-05 -3.32227883962062e-05
"266" 7.96265729845823e-05 -4.10059939548321e-05 -6.29973517877198e-06 -9.38414540592161e-05 -0.000164928849012306 6.78810149910387e-05 0.000111362302185123 0.000333279055582471 -0.00014208081746134 -0.000105067860075013 -8.41655807329003e-05 0.00015021276307203 0.000103082781006446 -9.7492552334901e-05 -4.59770738675725e-05 -3.04322691062012e-05
"267" 8.67966665606774e-05 -3.90966075354838e-05 -2.21057517030087e-06 -9.2212886665612e-05 -0.000157268434179055 6.148505886193e-05 0.000109769930313126 0.000320754064949004 -0.000135556899665126 -9.71519967347332e-05 -8.14983113021172e-05 0.000148919596770595 9.74549612003854e-05 -9.36828230064463e-05 -4.02146240602934e-05 -2.75838808585431e-05
"268" 9.43533381732266e-05 -3.69114663387227e-05 2.07925656793857e-06 -9.05084367529415e-05 -0.000149272858140208 5.49927378214708e-05 0.000108364249742226 0.000308211571009048 -0.000128705198296032 -8.90124398826336e-05 -7.8642694044549e-05 0.000147321713181902 9.15445177979582e-05 -8.95154124825198e-05 -3.41236858412059e-05 -2.46848108591351e-05
"269" 0.000102290525969971 -3.44481919430394e-05 6.53885034882953e-06 -8.8737526285924e-05 -0.000140977119210553 4.84409819334887e-05 0.000107161615595607 0.000295710443741563 -0.000121544681747462 -8.06825183961596e-05 -7.56078272372633e-05 0.000145450166184009 8.54266111865631e-05 -8.500946401646e-05 -2.7721114209008e-05 -2.17393378664036e-05
"270" 0.000110596648372212 -3.17152821621452e-05 1.11182597034797e-05 -8.69222280564245e-05 -0.000132430247747034 4.18576845493283e-05 0.000106177254477665 0.00028329262278093 -0.000114102230381529 -7.22024437198103e-05 -7.24039841063965e-05 0.000143337436793286 7.91670830181514e-05 -8.01871230990953e-05 -2.10300893604972e-05 -1.87555458227792e-05
"271" 0.000119256056321107 -2.8709304104234e-05 1.57796927299429e-05 -8.50654713343811e-05 -0.000123669921212203 3.52749877457713e-05 0.000105435595583264 0.000271021739055936 -0.000106411397713039 -6.36251621543209e-05 -6.9049595337388e-05 0.000141012168528186 7.28352545783354e-05 -7.50812896103775e-05 -1.40783607074061e-05 -1.57467759602964e-05
"272" 0.000128261227302139 -2.54507639399184e-05 2.04745608417525e-05 -8.31869859104124e-05 -0.000114734019297679 2.87239515183881e-05 0.000104935624917917 0.000258927616959957 -9.84928110646437e-05 -5.49773795305473e-05 -6.5552877278334e-05 0.000138510805350219 6.6502087093115e-05 -6.97121459749637e-05 -6.8893173393743e-06 -1.27186451018101e-05
"273" 0.00013758485547249 -2.19425110183406e-05 2.51578748861481e-05 -8.12987452797888e-05 -0.000105669952273738 2.22301273219229e-05 0.000104692433008262 0.000247063478393621 -9.03841835791715e-05 -4.63090131896505e-05 -6.19350909582689e-05 0.000135863299482044 6.02261919279153e-05 -6.41114896140517e-05 5.07473231117087e-07 -9.68537730014775e-06
"274" 0.000147213144960957 -1.82004553471968e-05 2.97828417900574e-05 -7.94141137151885e-05 -9.65171706712833e-05 1.5822585190945e-05 0.000104713141575155 0.000235459978442586 -8.21173861276903e-05 -3.76606239606418e-05 -5.821107141708e-05 0.000133100758945656 5.40739919246419e-05 -5.83203379497791e-05 8.07804444495044e-06 -6.65655469392177e-06
"275" 0.000157117854332688 -1.42354015906207e-05 3.43060820921671e-05 -7.75445609407054e-05 -8.73143259758857e-05 9.53043337733447e-06 0.000104993542370202 0.000224156899728611 -7.37312140718157e-05 -2.90754231634779e-05 -5.43988039601323e-05 0.000130254661792181 4.80989121046369e-05 -5.23649302286767e-05 1.57911455112956e-05 -3.64660057304333e-06
"276" 0.000167272244990422 -1.00547386511929e-05 3.86779759038275e-05 -7.56934142541562e-05 -7.81074449972033e-05 3.37550072402477e-06 0.000105542811551411 0.000213188847450534 -6.52669757463607e-05 -2.05942603692845e-05 -5.05226900635575e-05 0.000127356473553483 4.23555753055373e-05 -4.62848734108189e-05 2.36088933874961e-05 -6.66439766681289e-07
"277" 0.000177642386369091 -5.68035018060288e-06 4.28594179455382e-05 -7.38751501525311e-05 -6.8931281825056e-05 -2.6224610941099e-06 0.000106345031712394 0.000202572795644482 -5.67663913278779e-05 -1.22613232881495e-05 -4.6603023575863e-05 0.000124427758683868 3.68843989236913e-05 -4.0116161111572e-05 3.14968496292173e-05 2.26962682906165e-06
"278" 0.000188195881916702 -1.12851221969496e-06 4.68006508244919e-05 -7.20971473482996e-05 -5.98305205729329e-05 -8.43974287200985e-06 0.000107398883237647 0.000192336918449228 -4.82724471601198e-05 -4.11498168246542e-06 -4.26629882365853e-05 0.000121494936617789 3.17334672213763e-05 -3.39000488218426e-05 3.94129608731454e-05 5.14460372670568e-06
"279" 0.000198903762119084 3.58133746231749e-06 5.04600503190895e-05 -7.03687964646464e-05 -5.08385974392428e-05 -1.40594227525086e-05 0.000108691137709347 0.000182495515411632 -3.98214816216791e-05 3.80600458572244e-06 -3.87210448931472e-05 0.000118579457359026 2.69360805274314e-05 -2.76718407917768e-05 4.73251590720798e-05 7.94932510239994e-06
"280" 0.000209718513900114 8.42663352880148e-06 5.38017383141233e-05 -6.86947595543379e-05 -4.19933554880006e-05 -1.94659903190985e-05 0.000110206565201037 0.000173059612906995 -3.14568018743339e-05 1.1462678179716e-05 -3.48020557748566e-05 0.000115705977110255 2.25185495703415e-05 -2.14671780433366e-05 5.51931618447428e-05 1.06683113882474e-05
"281" 0.000220609341092484 1.33935151612166e-05 5.67836497040425e-05 -6.70807017135642e-05 -3.33205508152415e-05 -2.46437769095244e-05 0.000111931377495868 0.000164038587998603 -2.32225652637159e-05 1.88173622989407e-05 -3.0927817427622e-05 0.000112885698931339 1.85075004564374e-05 -1.53243511993306e-05 6.2977367587345e-05 1.32850554115803e-05
"282" 0.000231521559597359 1.84590072240076e-05 5.93705326176672e-05 -6.55240136611384e-05 -2.48545062123079e-05 -2.95823314035833e-05 0.000113846102110216 0.000155446121163811 -1.51693114836434e-05 2.58367723461505e-05 -2.71265942358002e-05 0.000110132950502061 1.49171606815358e-05 -9.27899564135908e-06 7.06399147890961e-05 1.57884142816013e-05
"283" 0.000242428753513502 2.35981141740898e-05 6.15422753747359e-05 -6.40295348714381e-05 -1.6614825417751e-05 -3.42615512242485e-05 0.000115925591801308 0.000147276845376642 -7.32231012363434e-06 3.24934797407403e-05 -2.34116746881171e-05 0.000107468734276092 1.17641217701747e-05 -3.36493624336462e-06 7.81455711657015e-05 1.81631877203365e-05
"284" 0.00025327120154601 2.87837240221193e-05 6.3257027382801e-05 -6.26021636028356e-05 -8.64044068767358e-06 -3.86886804727909e-05 0.000118145219335078 0.00013952463590367 2.64664697652258e-07 3.87499170681427e-05 -1.98134189656196e-05 0.000104888436045851 9.04192966823642e-06 2.37650783577953e-06 8.54547672824256e-05 2.0393358530167e-05
"285" 0.000264012870722338 3.39997689101535e-05 6.44984858010722e-05 -6.12411316450649e-05 -9.38207109931546e-07 -4.28426885384587e-05 0.000120481897187256 0.000132188266191788 7.56026023043989e-06 4.45870465070051e-05 -1.63447017059842e-05 0.000102406011802816 6.76013575753904e-06 7.92860048007396e-06 9.25377304053314e-05 2.24725370919294e-05
"286" 0.000274609427837018 3.92226759370626e-05 6.52479788503881e-05 -5.99412852492395e-05 6.47180900440603e-06 -4.6718233634102e-05 0.000122910488985062 0.000125263425887593 1.45324007348471e-05 4.99795099522652e-05 -1.30272294972249e-05 0.000100025814626231 4.90660020293093e-06 1.32508384944647e-05 9.93611802757119e-05 2.43857324622416e-05
"287" 0.000285008664358924 4.44190309739157e-05 6.54842928523364e-05 -5.87031555959018e-05 1.35664669781029e-05 -5.03184014967066e-05 0.000125389449498917 0.000118725660331192 2.11402539210742e-05 5.49054865451885e-05 -9.8810596307095e-06 9.77398728995985e-05 3.46803284327328e-06 1.83204096266876e-05 0.000105889495824896 2.61207429882826e-05
"288" 0.000295167534240015 4.95783904479493e-05 6.52028171270993e-05 -5.75206879459265e-05 2.03458115315486e-05 -5.36334220270385e-05 0.00012790474810242 0.000112570109696947 2.73500638711804e-05 5.93452656241465e-05 -6.92453015353205e-06 9.55473825326661e-05 2.42430129646776e-06 2.31107822640542e-05 0.000112098392604941 2.76670576755455e-05
"289" 0.000305041929223675 5.46689952962783e-05 6.43936049650432e-05 -5.63918062394173e-05 2.67933311099873e-05 -5.66644784917872e-05 0.000130410394774539 0.000106774350197271 3.31399008514775e-05 6.32865381619178e-05 -4.16886722457713e-06 9.34443775743296e-05 1.75413070051863e-06 2.76002009407105e-05 0.000117958252813727 2.90194078300332e-05
"290" 0.000314589650016944 5.96672302316708e-05 6.30585940968831e-05 -5.53096203742575e-05 3.29022807990036e-05 -5.9410981308782e-05 0.000132878173966193 0.000101318538469418 3.84802282766692e-05 6.67184494224199e-05 -1.62957404285986e-06 9.1419532835824e-05 1.42720792365255e-06 3.17709253234125e-05 0.00012344567061217 3.01653378973823e-05
"291" 0.000323767508314175 6.45560663112674e-05 6.11993962706196e-05 -5.42706139688546e-05 3.86743796758697e-05 -6.18707270385205e-05 0.00013528316489425 9.61860278966874e-05 4.33536047933438e-05 6.9637176574935e-05 6.84273241548807e-07 8.9465956130292e-05 1.4168125410043e-06 3.56088291401856e-05 0.000128543776280382 3.11025090961794e-05
"292" 0.000332535685786217 6.93184633723011e-05 5.88279308258692e-05 -5.32621395707702e-05 4.41112112678838e-05 -6.40478229124747e-05 0.00013758783318916 9.13561727428629e-05 4.77313447332976e-05 7.20300786255779e-05 2.75807529428219e-06 8.75657761965573e-05 1.68111345521195e-06 3.90938742369332e-05 0.000133229019829392 3.18249314788373e-05
"293" 0.000340855244754806 7.39185687541633e-05 5.59498394534817e-05 -5.22832580343088e-05 4.92056305622026e-05 -6.59457515145548e-05 0.000139755277757713 8.6795498469119e-05 5.16114801362266e-05 7.39003215241678e-05 4.5888018448155e-06 8.57033757118141e-05 2.18396993756258e-06 4.22231046434722e-05 0.000137485843493688 3.23246684225892e-05
"294" 0.000348690259006776 7.83551286478063e-05 5.25887143971151e-05 -5.13242575187074e-05 5.39722019176315e-05 -6.75673208370682e-05 0.000141764025151392 8.24867672847396e-05 5.49717110334456e-05 7.52525230429381e-05 6.16967999508337e-06 8.38598672377991e-05 2.88369549663045e-06 4.49842348119102e-05 0.000141306949876085 3.26056198217151e-05
"295" 0.000356011624835623 8.26049318210785e-05 4.8764510659869e-05 -5.03733256899619e-05 5.84158458644493e-05 -6.89144145217634e-05 0.000143583424908886 7.84069562401925e-05 5.78130445652724e-05 7.6093870337319e-05 7.49817007007245e-06 8.20240024685852e-05 3.73911437191579e-06 4.73778536161642e-05 0.000144681278999849 3.26650974784849e-05
"296" 0.000362783991303694 8.66629543314321e-05 4.45083320415763e-05 -4.94248050811991e-05 6.25482368435588e-05 -6.99944029463121e-05 0.000145184007570609 7.45297601786791e-05 6.01199294764718e-05 7.64246011297822e-05 8.57089479942429e-06 8.01621819183633e-05 4.70096153638142e-06 4.93976216216729e-05 0.00014759684732118 3.25030012502485e-05
"297" 0.000368985461016462 9.05110090330798e-05 3.98437894446303e-05 -4.84712079114535e-05 6.63790996850949e-05 -7.08167886949242e-05 0.00014654291410231 7.08317894350461e-05 6.18977243108968e-05 7.62612843369698e-05 9.39012292287565e-06 7.82611972886602e-05 5.72504668202937e-06 5.10426206765324e-05 0.000150054127219169 3.21194648173553e-05
"298" 0.000374591324216202 9.41455297253497e-05 3.4814014865028e-05 -4.74991153368062e-05 6.99297341114121e-05 -7.13816559722936e-05 0.000147642758257438 6.72914075623547e-05 6.31503702192685e-05 7.56190316908427e-05 9.95762872559904e-06 7.62942293310695e-05 6.76534687766264e-06 5.23192128342179e-05 0.000152053128761354 3.15208275394569e-05
"299" 0.000379588366521746 9.75564581119821e-05 2.94568118100043e-05 -4.65059123353109e-05 7.32118951148873e-05 -7.16994298219491e-05 0.000148458656982347 6.38906388555102e-05 6.38874302239115e-05 7.4522012195978e-05 1.02842374560329e-05 7.42471287060834e-05 7.77998709288469e-06 5.32392843266859e-05 0.000153597930387458 3.07155430298233e-05
"300" 0.000383957258281834 0.000100747575090412 2.38096206376369e-05 -4.54779941975411e-05 7.62449920297297e-05 -7.17781648631619e-05 0.000148975041343227 6.06057728023407e-05 6.41116503996963e-05 7.29838912173748e-05 1.03678884985809e-05 7.20875664516605e-05 8.71873457385853e-06 5.38015277407749e-05 0.00015468979902312 2.970372535535e-05
"301" 0.000387687485187633 0.000103720579133122 1.79185394429477e-05 -4.4404994558694e-05 7.9050984585046e-05 -7.16241199377179e-05 0.000149183203842037 5.74204943095846e-05 6.38405495441993e-05 7.10325007841598e-05 1.0222671363777e-05 6.9796844499245e-05 9.54022802346958e-06 5.40203255219075e-05 0.000155334193884108 2.84969316105964e-05
"302" 0.000390779745435819 0.000106471782178225 1.18308640247881e-05 -4.3288138627798e-05 8.16485326934208e-05 -7.12453795331187e-05 0.000149070866974064 5.43223927271715e-05 6.30965396956052e-05 6.86898576263308e-05 9.86316265375899e-06 6.73598428636301e-05 1.02089789375583e-05 5.39114932383051e-05 0.000155551769726643 2.71050519786588e-05
"303" 0.000393227978135184 0.000109011455245412 5.59693324251444e-06 -4.21137367144091e-05 8.40624022072328e-05 -7.06542077860827e-05 0.000148630190958763 5.12945818930584e-05 6.1890094566447e-05 6.59891043818212e-05 9.29613860175559e-06 6.47486840308774e-05 1.06856056998172e-05 5.34825975027993e-05 0.000155342779810906 2.55371467993372e-05
"304" 0.000395035083575878 0.000111352087955324 -7.37562306811919e-07 -4.0877066462768e-05 8.63117878545691e-05 -6.9857549452759e-05 0.000147864048297486 4.83289289655755e-05 6.02521330560537e-05 6.29570589906059e-05 8.53686263374934e-06 6.19492815478184e-05 1.09306693414209e-05 5.2755682386563e-05 0.000154731134630704 2.38078348645665e-05
"305" 0.000396205877474279 0.000113512330656103 -7.12082884987339e-06 -3.95678510568058e-05 8.84190053676454e-05 -6.88663617105628e-05 0.000146772887053797 4.54211917674477e-05 5.81996424381495e-05 5.9624021506081e-05 7.5972998358486e-06 5.89407462017504e-05 1.09180053376652e-05 5.17409154592519e-05 0.00015372428490512 2.19248339670567e-05
"306" 0.00039675905226616 0.000115498709898074 -1.35014934858841e-05 -3.81860682392147e-05 9.04047142940717e-05 -6.76853774084536e-05 0.000145361945240147 4.25636114975725e-05 5.57711543890738e-05 5.60265884554103e-05 6.50206808453125e-06 5.5717717118925e-05 1.06241578444527e-05 5.04663121420331e-05 0.000152348937395139 1.99069547918463e-05
"307" 0.000396702677390732 0.000117338310643201 -1.98328889340819e-05 -3.67257068494489e-05 9.22963624434913e-05 -6.63267159921563e-05 0.0001436365864091 3.97582000831464e-05 5.29873882285639e-05 5.21976299049686e-05 5.26032571515059e-06 5.22624088870721e-05 1.00222890085118e-05 4.89383003763955e-05 0.000150619791275041 1.77656315134034e-05
"308" 0.000396055858666592 0.00011904704810304 -2.60636418497652e-05 -3.51821069864192e-05 9.41087124207604e-05 -6.48008623955786e-05 0.000141613633033054 3.70103163920722e-05 4.98778132418687e-05 4.81711793560395e-05 3.88992965200973e-06 4.85679484990613e-05 9.09585183555156e-06 4.71780514505203e-05 0.0001485537749861 1.55117715120516e-05
"309" 0.000394843537106612 0.000120650115696834 -3.21539331646345e-05 -3.35572626163343e-05 9.58627396378922e-05 -6.31171456142591e-05 0.000139305921714103 3.4316329600886e-05 4.6483141282132e-05 4.39869514025181e-05 2.41364792434645e-06 4.46311749597283e-05 7.83753107639896e-06 4.52164510665142e-05 0.000146180752580765 1.3169161736632e-05
"310" 0.000393089945739245 0.000122173970713155 -3.80501200466725e-05 -3.18433469958037e-05 9.75846117263518e-05 -6.12815016006744e-05 0.000136736535955824 3.16958287320418e-05 4.28326966133981e-05 3.96809547567803e-05 8.48228191963675e-07 4.04523445188384e-05 6.23870619675417e-06 4.30655657631775e-05 0.000143517425891862 1.07478299020962e-05
"311" 0.00039081904391026 0.000123649379358598 -4.37173616885621e-05 -3.00404806766457e-05 9.92833897206481e-05 -5.93084860437302e-05 0.000133927545427047 2.91528585762067e-05 3.89541576685551e-05 3.52822335167939e-05 -7.94363596489154e-07 3.60240823555369e-05 4.29434521625036e-06 4.07369417438423e-05 0.000140582346420359 8.2625734439871e-06
"312" 0.000388065061801517 0.000125091978126678 -4.91112307852919e-05 -2.81534909671685e-05 0.000100982633628608 -5.7202658137942e-05 0.000130896741052879 2.6703245838142e-05 3.48942746869634e-05 3.08383215175141e-05 -2.48514482401835e-06 3.13671933924588e-05 2.01649272543252e-06 3.82679302640494e-05 0.000137407956704074 5.73305381144491e-06
"313" 0.000384851704215268 0.000126547311338869 -5.42059922029097e-05 -2.61816648708316e-05 0.000102689739437177 -5.49767048672474e-05 0.000127680162773303 2.4366301134762e-05 3.06772064503306e-05 2.63722904882593e-05 -4.21523193207757e-06 2.64784452516596e-05 -5.91101882248926e-07 3.56669678973624e-05 0.000134010445735095 3.17135366684086e-06
"314" 0.000381221768815582 0.000128034054206972 -5.8965243572828e-05 -2.4128577075164e-05 0.000104420083222031 -5.26359209240542e-05 0.000124302135094467 2.21621979482076e-05 2.63445069301844e-05 2.19289535325969e-05 -5.96405691737902e-06 2.13801816849899e-05 -3.50711251206701e-06 3.29513830438769e-05 0.000130412355411036 5.94477967967739e-07
"315" 0.000377201519796186 0.00012958565968295 -6.3360940015484e-05 -2.19941139238064e-05 0.000106183554087454 -5.01915623666951e-05 0.000120795137616553 2.01145825372233e-05 2.19233960189144e-05 1.75372083322022e-05 -7.71606199530722e-06 1.60843971787103e-05 -6.71659595698115e-06 3.01418403654262e-05 0.000126633305010623 -1.98528590366388e-06
"316" 0.000372825647913839 0.000131229123873997 -6.73802361575851e-05 -1.97871630246581e-05 0.000107992183186969 -4.76530984551187e-05 0.000117187877533857 1.82393766636617e-05 1.7444285835296e-05 1.32278506555508e-05 -9.45867169669439e-06 1.06114129506171e-05 -1.01957096363073e-05 2.72571204341526e-05 0.000122696629093941 -4.55354732791145e-06
"317" 0.000368125943720972 0.000132987066877303 -7.10039009403736e-05 -1.75142801552154e-05 0.000109839774370503 -4.50305627746474e-05 0.000113513394081105 1.65613798844773e-05 1.29410820814632e-05 9.0326793802656e-06 -1.11750668829715e-05 4.98465640892713e-06 -1.39164634824118e-05 2.43061529358853e-05 0.000118618776426378 -7.09676188974457e-06
"318" 0.000363139363299156 0.000134887076515576 -7.4215357702331e-05 -1.51813790399578e-05 0.000111743795722079 -4.23297608528138e-05 0.000109803345235511 1.51141868334372e-05 8.44890739327651e-06 4.98424269861738e-06 -1.28537392035294e-05 -7.60765179439455e-07 -1.78397352958609e-05 2.13161280782557e-05 0.000114423039365459 -9.60268556196726e-06
"319" 0.000357897977501384 0.000136954903021681 -7.70137933076627e-05 -1.27956608571166e-05 0.000113700231098326 -3.95598199310733e-05 0.000106093021157993 1.39205868189187e-05 3.98307755341183e-06 1.10600206042596e-06 -1.44849370928172e-05 -6.59854599588445e-06 -2.19313985954876e-05 1.82876328755876e-05 0.000110121940582071 -1.20619252465001e-05
"320" 0.000352425039158731 0.000139210545343468 -7.94034980947632e-05 -1.03673300273773e-05 0.000115702415929865 -3.67329652355398e-05 0.000102413140740651 1.30071396349663e-05 -4.25021695132201e-07 -2.57953613928298e-06 -1.60599684080338e-05 -1.24981858704897e-05 -2.61562561478703e-05 1.52412861330905e-05 0.000105734595493047 -1.446452741997e-05
"321" 0.000346757701273319 0.000141662857636281 -8.1382302014804e-05 -7.90565206495274e-06 0.00011775463402798 -3.38573731323338e-05 9.87932693609298e-05 1.23963821864955e-05 -4.75188483628622e-06 -6.04484713868679e-06 -1.75669293011832e-05 -1.84184197250754e-05 -3.04670781090923e-05 1.21869660292897e-05 0.000101274796389292 -1.67982638815646e-05
"322" 0.000340920662245339 0.000144331711487046 -8.29615659218426e-05 -5.42401539232317e-06 0.000119845650104894 -3.09413017480914e-05 9.52597782117032e-05 1.21104805875337e-05 -8.97391524646613e-06 -9.2726775269909e-06 -1.90000295463236e-05 -2.43233434115026e-05 -3.4820490588474e-05 9.13667249491352e-06 9.67551886626727e-05 -1.90575183017255e-05
"323" 0.000334933622021904 0.000147223487316871 -8.41694924147342e-05 -2.93396488218356e-06 0.000121962563059883 -2.79977051818303e-05 9.18432095203548e-05 1.2181620850273e-05 -1.30786228620059e-05 -1.22477249014164e-05 -2.03614566576603e-05 -3.0174887813628e-05 -3.91753558828315e-05 6.09949693454608e-06 9.21848005603295e-05 -2.12382643103671e-05
"324" 0.000328825621549342 0.000150347461698415 -8.50089021353764e-05 -4.4388879905317e-07 0.000124107094224472 -2.50253463393878e-05 8.85728062874598e-05 1.26286929191927e-05 -1.70455142332552e-05 -1.49483437118656e-05 -2.16407171770573e-05 -3.59263133683195e-05 -4.34806810161294e-05 3.085726630371e-06 8.75819525843218e-05 -2.33304427369318e-05
"325" 0.000322606400419952 0.000153697089153099 -8.55207848184054e-05 2.02755712673656e-06 0.000126253308060108 -2.2049154123866e-05 8.54563091644664e-05 1.34635926277024e-05 -2.08659712005539e-05 -1.73704174729386e-05 -2.28436549625694e-05 -4.15424886311118e-05 -4.76951838728392e-05 9.37756077797615e-08 8.29416240935421e-05 -2.53377291712083e-05
"326" 0.000316300413889598 0.0001572611471606 -8.57259936597029e-05 4.46666693159885e-06 0.000128391208557601 -1.90706179169507e-05 8.25214625628815e-05 1.47119937612317e-05 -2.45231691071438e-05 -1.94995781261676e-05 -2.39675033247624e-05 -4.69723255863729e-05 -5.17685406308875e-05 -2.86215547048129e-06 7.82805426008898e-05 -2.72553469857282e-05
"327" 0.000309912133313731 0.000161041903503728 -8.56633181906887e-05 6.86348558464608e-06 0.000130503181704637 -1.60988364553412e-05 7.97809615571932e-05 1.63853234271074e-05 -2.80120937472702e-05 -2.1331859650863e-05 -2.50153471358951e-05 -5.21811149188909e-05 -5.56593343731339e-05 -5.77927538524442e-06 7.35989958608993e-05 -2.9079007672981e-05
"328" 0.000303459424234577 0.000165011057687226 -8.53688979996959e-05 9.20246408511708e-06 0.000132572308634457 -1.31458584568325e-05 7.72457100730347e-05 1.84930398322217e-05 -3.13229645205246e-05 -2.28561119531017e-05 -2.59912107000941e-05 -5.71132479544692e-05 -5.93185603353689e-05 -8.6450747520978e-06 6.89069495540706e-05 -3.08088255005902e-05
"329" 0.000296949874152485 0.000169150615754811 -8.48850014467103e-05 1.14614729265315e-05 0.000134577360818333 -1.02188717084561e-05 7.49266843091459e-05 2.10473481601312e-05 -3.44510094049818e-05 -2.40743425459746e-05 -2.6894857703704e-05 -6.17334104774183e-05 -6.2701804474841e-05 -1.14622916242813e-05 6.42063025631236e-05 -3.24479403923294e-05
"330" 0.00029038145073847 0.000173434357429181 -8.42516076346911e-05 1.36369504675138e-05 0.000136501289400898 -7.3268304537973e-06 7.28273127754626e-05 2.40478574712338e-05 -3.73999978140225e-05 -2.49851223645391e-05 -2.77420367777641e-05 -6.59968125084868e-05 -6.57780302937569e-05 -1.42253751570864e-05 5.94964908677301e-05 -3.39958356745188e-05
"331" 0.000283758715270042 0.000177834147406961 -8.35203175212832e-05 1.57070494679221e-05 0.00013831888423078 -4.47832842991169e-06 7.09470714888132e-05 2.7503033124041e-05 -4.01678474752634e-05 -2.55939226327684e-05 -2.85357487374339e-05 -6.98644690228318e-05 -6.85010033189456e-05 -1.69310644051894e-05 5.47783738745741e-05 -3.54584453555173e-05
"332" 0.000277081400238685 0.000182293127881414 -8.27363016091986e-05 1.76561967664351e-05 0.000140008362694193 -1.68419941222155e-06 6.92784698178712e-05 3.13954449512868e-05 -4.27486381071908e-05 -2.59021000690131e-05 -2.92815800680779e-05 -7.32927829227124e-05 -7.08415145741491e-05 -1.95717271272221e-05 5.00568612918714e-05 -3.68380308428308e-05
"333" 0.000270348817138825 0.000186785776951766 -8.19417963069866e-05 1.94745134520988e-05 0.000141547177135519 1.05472854396388e-06 6.78206456028882e-05 3.57334312186521e-05 -4.51508827812275e-05 -2.59143700644423e-05 -2.99925382917539e-05 -7.62423393125307e-05 -7.2759893578711e-05 -2.21484393361007e-05 4.53293167663966e-05 -3.81365708222176e-05
"334" 0.000263550393653765 0.00019125703904652 -8.1192880161428e-05 2.11485437467771e-05 0.000142910091712895 3.7253957775492e-06 6.65589191096386e-05 4.04985071396923e-05 -4.73812489509192e-05 -2.56421780613887e-05 -3.06777826889034e-05 -7.86777439642294e-05 -7.42337499033121e-05 -2.46543299002597e-05 4.0597319292705e-05 -3.93592768249565e-05
"335" 0.000256686963843999 0.000195649896516935 -8.05384399398785e-05 2.26576396394944e-05 0.000144076981444212 6.32945041985886e-06 6.54797872668703e-05 4.56770010328633e-05 -4.94361673261505e-05 -2.50936637541576e-05 -3.13425228113178e-05 -8.05672411731003e-05 -7.52321013728854e-05 -2.70819205911081e-05 3.58624282795319e-05 -4.05105110753405e-05
"336" 0.00024974568682483 0.000199909897886882 -8.00218118630272e-05 2.3997303488579e-05 0.000145019269307817 8.8595708637671e-06 6.45605595519994e-05 5.12494775159703e-05 -5.13284776331424e-05 -2.42805766346235e-05 -3.2001550001647e-05 -8.18755146375866e-05 -7.57368787591284e-05 -2.94293958552516e-05 3.11248086882569e-05 -4.15946430050926e-05
"337" 0.000242720543774065 0.000203977490561954 -7.96870192028498e-05 2.51533228061974e-05 0.000145721935091191 1.13172584679205e-05 6.3786375382622e-05 5.7199165211431e-05 -5.30603588742023e-05 -2.32122348550514e-05 -3.266322979163e-05 -8.2569919163624e-05 -7.57285990124839e-05 -3.16894433708679e-05 2.63839041979499e-05 -4.26171286033725e-05
"338" 0.000235594787366634 0.000207783567127414 -7.95858757456755e-05 2.61095244960718e-05 0.000146155103176124 1.36914859530087e-05 6.31238137271423e-05 6.34894723664442e-05 -5.46465054016234e-05 -2.19074173357809e-05 -3.33384267536079e-05 -8.26329611276392e-05 -7.51969277626411e-05 -3.38615517369664e-05 2.16407364527972e-05 -4.35820492582057e-05
"339" 0.000228363595710803 0.000211261960780746 -7.97556839915565e-05 2.68670753617831e-05 0.000146294529590297 1.59869824080587e-05 6.25497746907695e-05 7.00922776013186e-05 -5.60872327855749e-05 -2.03802912799878e-05 -3.40362589415773e-05 -8.20403234328577e-05 -7.41283399671223e-05 -3.59313783355121e-05 1.68965915130551e-05 -4.44938793904904e-05
"340" 0.00022102054709119 0.00021434941136442 -8.02400732390181e-05 2.74067714882076e-05 0.000146128723712165 1.82099198658531e-05 6.20326252159956e-05 7.69799126407228e-05 -5.73908001558065e-05 -1.86435467317493e-05 -3.47618663944102e-05 -8.07674387090358e-05 -7.25136305074544e-05 -3.78949563167243e-05 1.21566694778551e-05 -4.53524495814554e-05
"341" 0.000213554376441506 0.000216970918038861 -8.10642759309022e-05 2.77275233339609e-05 0.000145640199199505 2.03592878675846e-05 6.15400346361617e-05 8.41177299380083e-05 -5.85697763089049e-05 -1.67130879777116e-05 -3.55284328633772e-05 -7.88010739854093e-05 -7.03559195301943e-05 -3.97478358588451e-05 7.42013375651183e-06 -4.61680020310571e-05
"342" 0.000205952963201668 0.000219063514227261 -8.22678027234449e-05 2.78256241120281e-05 0.000144804226586497 2.24419313228508e-05 6.10452026957393e-05 9.14655780851053e-05 -5.96281044017629e-05 -1.46117280009632e-05 -3.63435968229584e-05 -7.61276885556614e-05 -6.76518234496511e-05 -4.14770282047358e-05 2.69598470230359e-06 -4.69350155849629e-05
"343" 0.00019821336140248 0.000220544473391727 -8.38725100181922e-05 2.7690661009953e-05 0.000143606546102578 2.44605561089038e-05 6.04982962329643e-05 9.89742800731539e-05 -6.05692481075398e-05 -1.23494901705214e-05 -3.72080369378031e-05 -7.27427321339195e-05 -6.44113486829209e-05 -4.30765766264226e-05 -2.01279305003546e-06 -4.76610755569067e-05
"344" 0.000190328946816466 0.000221361899656263 -8.59005436904375e-05 2.73259325498008e-05 0.000142032302407161 2.64304362183533e-05 5.98806290385999e-05 0.000106612757890477 -6.14102537758076e-05 -9.95177259521012e-06 -3.81333040399376e-05 -6.86396401304169e-05 -6.06384621857294e-05 -4.45400784260125e-05 -6.7030220134837e-06 -4.83470798804641e-05
"345" 0.000182293521403241 0.000221441455782369 -8.8365526394252e-05 2.67280683907219e-05 0.000140075937515239 2.83537374787693e-05 5.9145649552719e-05 0.000114325578021245 -6.21509128440016e-05 -7.43422058854365e-06 -3.911967406639e-05 -6.38217054690802e-05 -5.63503063958728e-05 -4.5848042061218e-05 -1.13614658558195e-05 -4.89886460706954e-05
"346" 0.000174109631362755 0.00022072179502107 -9.12819515539496e-05 2.58969080289516e-05 0.00013771654788871 3.02461927462515e-05 5.82640190082199e-05 0.000122073071059859 -6.27927554471592e-05 -4.81111604849969e-06 -4.01706091611372e-05 -5.82904175698525e-05 -5.15554043838142e-05 -4.69979569286875e-05 -1.59829903036181e-05 -4.95867311966587e-05
