"V1" "V2" "V4" "V5" "V7" "V8" "V10" "V11" "V13" "V14" "V15" "V17" "V18" "V20" "V21" "V23"
"1" -0.000218176977865938 -0.000238927577011869 -0.000496006563581308 -0.000197637363979921 -0.00033726633913226 -4.67965663082579e-05 9.96262308246234e-05 3.69724467850172e-05 1.13736770701877e-05 9.70221307903951e-05 3.01809164719033e-05 6.83044192647707e-05 -0.000279763441138199 5.80882516847024e-05 -0.000198150729761383 -0.00037366342537966
"2" -0.00021706976987213 -0.000238504823207913 -0.000495421533741925 -0.000196141908995769 -0.000327388137845903 -4.62868326900388e-05 0.000106634422879299 3.86515622704728e-05 1.28985783023439e-05 0.000102182065325239 3.48418658002348e-05 7.28704023072525e-05 -0.000277875415443346 6.11537482060188e-05 -0.000190832300536223 -0.0003711331874468
"3" -0.000215944166280222 -0.000238168178437671 -0.000494956722035015 -0.000194410549492582 -0.000317222578685279 -4.56832209211164e-05 0.000113991539378749 4.04487356636931e-05 1.4594182298593e-05 0.000107503161956403 3.99137603434932e-05 7.75731646993118e-05 -0.000275546976447793 6.422932810915e-05 -0.000183461793941446 -0.00036843881088918
"4" -0.000214818752562656 -0.000237951830014297 -0.000494635017360304 -0.000192466653270117 -0.000306819816911634 -4.49897088246914e-05 0.0001216702235976 4.23612518068777e-05 1.64550303836501e-05 0.00011300037757247 4.53901526747945e-05 8.23945510294872e-05 -0.000272791855555758 6.7305210434073e-05 -0.000176076430392251 -0.000365602511770651
"5" -0.000213726707591752 -0.000237895806768172 -0.000494498039060533 -0.000190351494702874 -0.000296257862591111 -4.42213562079025e-05 0.000129625559225405 4.43631412234985e-05 1.8467313154383e-05 0.000118665521627654 5.12589121267718e-05 8.73033755394087e-05 -0.000269636183516407 7.03557601323051e-05 -0.000168731725637284 -0.0003626521542201
"6" -0.000212686581806766 -0.000238042317018867 -0.000494575951199613 -0.00018809599963232 -0.000285594148520106 -4.33812169599868e-05 0.000137815141962135 4.64454280145478e-05 2.06255064233859e-05 0.000124503903054207 5.75112995303713e-05 9.227928937014e-05 -0.000266119466792708 7.33705301486468e-05 -0.000161461615388096 -0.000359628489685746
"7" -0.000211721688029658 -0.000238419374511004 -0.00049489003885268 -0.000185731941569227 -0.000274883515013108 -4.24777303331278e-05 0.000146198068919053 4.85963986402326e-05 2.29211405617107e-05 0.00013052700876564 6.4137149235024e-05 9.72962868072962e-05 -0.000262256796542382 7.63364142886895e-05 -0.000154301929021034 -0.000356546526288688
"8" -0.000210854707471035 -0.000239053493547467 -0.000495460307941994 -0.000183293570218692 -0.000264181956587621 -4.15199442242853e-05 0.000154730329232908 5.080409538707e-05 2.53614594749295e-05 0.000136744229021318 7.11265325945435e-05 0.000102328349021871 -0.000258089824657619 7.92544720365937e-05 -0.000147276721032354 -0.000353437617492696
"9" -0.000210104170410596 -0.000239980341165347 -0.000496312780242845 -0.000180811705828752 -0.000253557882036596 -4.05122991304176e-05 0.000163364520228703 5.30530005753571e-05 2.79309217425357e-05 0.000143160142763791 7.8461001927802e-05 0.000107345231434295 -0.00025366964388264 8.21115984221776e-05 -0.00014042165020878 -0.000350344765249067
"10" -0.00020948646721833 -0.000241217650533997 -0.000497454845080727 -0.000178320230112389 -0.000243052696812521 -3.94611936750507e-05 0.000172048789746995 5.53308311141988e-05 3.06367478710821e-05 0.000149785449221213 8.61298156000286e-05 0.000112322962785342 -0.000249028856738082 8.49129988120498e-05 -0.000133752955985613 -0.00034729013865858
"11" -0.000209019136919607 -0.000242782022095016 -0.000498896913134458 -0.000175843524151305 -0.000232730338968835 -3.8365666785006e-05 0.00018074059552519 5.76268869051033e-05 3.34803594354095e-05 0.000156635020827744 9.41182026526098e-05 0.000117235703470315 -0.000244214835000939 8.76627951344337e-05 -0.000127277097381685 -0.000344309426357403
"12" -0.000208708595055702 -0.000244684626316972 -0.00050063426676163 -0.00017340775448518 -0.000222618814252792 -3.72315500865795e-05 0.000189394079294175 5.99351065248516e-05 3.64687371033012e-05 0.000163726807682548 0.000102414601064246 0.000122062234051282 -0.000239266749899032 9.03785743342351e-05 -0.000120997693992241 -0.000341419537031037
"13" -0.000208572165158356 -0.000246934873409814 -0.000502670536554406 -0.000171041213874558 -0.000212778850827168 -3.60573881554907e-05 0.000197953964313482 6.2238216154448e-05 3.95966784459658e-05 0.000171061104974504 0.000110997142827162 0.000126765479800209 -0.000234247313413453 9.30580406839709e-05 -0.000114931283010587 -0.000338666243105355
"14" -0.00020861197383167 -0.000249533654853753 -0.000504991847498544 -0.000168764630397125 -0.000203251854274438 -3.48412321048132e-05 0.00020638161260421 6.45290490846335e-05 4.28749918839727e-05 0.000178653785050276 0.000119847723692796 0.000131327789468223 -0.000229193724897223 9.57166635306928e-05 -0.000109063935964308 -0.000336064064461363
"15" -0.000208830184499396 -0.000252475324593162 -0.000507580993284532 -0.000166593214294052 -0.000194061445875958 -3.35775999985572e-05 0.000214629473056547 6.68000130577691e-05 4.63132389047936e-05 0.000186520541119702 0.000128953498615236 0.000135723014458293 -0.000224158163039915 9.83769880563853e-05 -0.00010338413765764 -0.000333637732573461
"16" -0.00020922607644788 -0.000255742476078017 -0.000510415573973558 -0.000164540013509184 -0.000185255884783705 -3.22605858942586e-05 0.000222656438934291 6.90434702564994e-05 4.99202202870399e-05 0.000194667714543849 0.000138293200980394 0.000139932502400517 -0.000219188466938137 0.000101055031730784 -9.7877097144713e-05 -0.000331412629041912
"17" -0.000209797599687503 -0.000259324597750692 -0.000513470251651165 -0.000162618909554874 -0.000176851205389625 -3.08839213535731e-05 0.000230419235191546 7.1249329179618e-05 5.37007285249807e-05 0.000203100948531418 0.000147843471241843 0.000143930930806855 -0.000214326628356014 0.000103773117589418 -9.25225497418311e-05 -0.000329400072094118
"18" -0.000210525905377993 -0.000263187297500026 -0.000516700723683068 -0.000160826317025427 -0.000168870258127419 -2.94320176196406e-05 0.00023788867462858 7.34210503254786e-05 5.76781369013903e-05 0.000211839438711096 0.000157590688807226 0.000147709980353954 -0.000209610171869293 0.000106557956335109 -8.7286304637416e-05 -0.000327612453331405
"19" -0.000211400788939772 -0.00026729855639135 -0.000520062998418281 -0.000159163931802193 -0.00016132741023938 -2.78922528014429e-05 0.000245029372554252 7.55493966649949e-05 6.18593610800538e-05 0.000220886468676407 0.000167514795972337 0.000151254075586106 -0.000205081395361847 0.000109438857523027 -8.21369306825832e-05 -0.000326059095385377
"20" -0.00021240421273545 -0.000271620097771312 -0.000523514426080084 -0.000157631402504982 -0.000154239811184741 -2.62528891871517e-05 0.000251807628202735 7.76296700439725e-05 6.62544971194695e-05 0.00023023625092512 0.000177588173403501 0.00015454897930142 -0.000200764417874874 0.000112430004876046 -7.70436381601628e-05 -0.000324736801686773
"21" -0.000213515193193067 -0.000276103231427622 -0.000526994491039791 -0.000156218232113389 -0.00014760618732396 -2.44959741380129e-05 0.000258198313542257 7.96640833264217e-05 7.08818718176619e-05 0.000239895407407655 0.000187792580751481 0.000157591704317248 -0.00019668616878265 0.000115571692310054 -7.19598613913114e-05 -0.000323634123386806
"22" -0.000214703360360842 -0.000280699384703188 -0.000530441125460827 -0.000154909621369301 -0.000141430971224994 -2.26055327129728e-05 0.000264180448854486 8.16465178344249e-05 7.57524289924554e-05 0.000249854317957032 0.000198101416475286 0.00016037467064662 -0.000192865218440122 0.000118883304183672 -6.68477288368474e-05 -0.000322749504251369
"23" -0.000215935883651293 -0.000285341631013762 -0.000533784859907635 -0.000153682676492865 -0.000135706028024254 -2.05592152466985e-05 0.000269738384531891 8.35831940071065e-05 8.08803185400274e-05 0.000260110442511932 0.000208495264421385 0.000162904179731363 -0.000189305732204623 0.00012239510984194 -6.16544752741253e-05 -0.000322054018905294
"24" -0.000217182711271283 -0.000289974953308449 -0.000536960397916865 -0.000152516767161336 -0.000130424029961368 -1.83383914583374e-05 0.000274850884333978 8.54674782361095e-05 8.62761083912014e-05 0.00027064597975894 0.000218946910168538 0.000165183286721292 -0.000186010438181529 0.000126124475323179 -5.63468777635049e-05 -0.000321521833645592
"25" -0.000218399672881277 -0.000294521073154291 -0.000539884731695723 -0.000151381416851307 -0.000125560740182919 -1.59218925731231e-05 0.000279515405795594 8.7307591875795e-05 9.19523730086566e-05 0.000281448654506978 0.00022942954140627 0.000167216457319934 -0.000182973999757499 0.000130100264569386 -5.08657356146141e-05 -0.000321123057264601
"26" -0.000219544947859349 -0.000298909864957329 -0.000542470526158811 -0.000150242338553726 -0.00012108820879978 -1.32874382243183e-05 0.000283724312973067 8.91085227558823e-05 9.7921358771586e-05 0.000292496353568252 0.000239917121206509 0.000169023594029597 -0.000180166585632668 0.000134343378713398 -4.51670680643213e-05 -0.000320801235984149
"27" -0.000220579658880887 -0.000303071967710372 -0.000544656201447584 -0.000149073570982061 -0.000117003466193094 -1.04201199507754e-05 0.000287464035835101 9.08570594614085e-05 0.00010417771245483 0.00030374521669057 0.000250375107513667 0.000170607236110571 -0.000177578521640422 0.000138854408461418 -3.92234669691359e-05 -0.000320520423817357
"28" -0.000221452425583467 -0.000306919579603918 -0.00054633839807826 -0.000147827976078495 -0.000113256007821157 -7.29438631859638e-06 0.000290746803654041 9.25704007750351e-05 0.000110736181324612 0.000315174002678174 0.000260779845266735 0.000171999414341885 -0.000175157825403822 0.00014365656471777 -3.29785002940668e-05 -0.000320218371665687
"29" -0.000222119410206986 -0.000310380179271604 -0.000547441280124773 -0.000146470110388046 -0.000109820555326414 -3.89923858959576e-06 0.000293567203606699 9.42447101859729e-05 0.000117586978584729 0.000326728085815962 0.000271090674022777 0.000173210762002418 -0.000172863540491796 0.00014874234346936 -2.64108239238369e-05 -0.000319827166905698
"30" -0.00022251961289719 -0.000313363170123253 -0.00054787151860449 -0.000144943518965468 -0.000106647166409054 -2.07918296092599e-07 0.000295944681195192 9.58876456556348e-05 0.000124743837165375 0.000338377702809695 0.000281289140341702 0.000174283119856335 -0.000170627494177972 0.000154127507535871 -1.94717819907668e-05 -0.00031927126967931
"31" -0.000222619276606221 -0.000315803089064981 -0.00054755457026628 -0.000143221901689644 -0.000103712899584092 3.78365653963267e-06 0.00029787138280158 9.74923040340283e-05 0.000132175528555703 0.000350044270243669 0.000291319184775329 0.000175221330380246 -0.000168401448685793 0.000159783860828005 -1.21583709288443e-05 -0.000318486243400563
"32" -0.000222358543894975 -0.000317610396785966 -0.000546401203675479 -0.000141248126696837 -0.000100965674792577 8.09340606934905e-06 0.000299365501431111 9.90651801201218e-05 0.000139886506428047 0.000361678513805933 0.000301156659673397 0.00017606981157459 -0.000166096618972854 0.000165704975411278 -4.44234498616046e-06 -0.0003173777321067
"33" -0.000221701141436453 -0.000318725052210219 -0.000544346498679093 -0.000138989609674216 -9.83605364772165e-05 1.27224856082497e-05 0.000300436817155413 0.000100604021479711 0.000147850614508362 0.000373202703843664 0.000310757057129691 0.000176851452705358 -0.000163639996115726 0.000171863008566223 3.68560383588745e-06 -0.000315864619543627
"34" -0.000220594103235114 -0.000319066665853523 -0.000541302667988336 -0.000136394195054689 -9.58552554787989e-05 1.76824368075611e-05 0.000301097846318589 0.000102109306967794 0.000156051016596861 0.000384548229715256 0.000320078945499176 0.00017759956032896 -0.000160934108041949 0.000178230881139243 1.2225633633312e-05 -0.000313851688155902
"35" -0.000218999714996209 -0.000318578091146513 -0.000537214584320335 -0.000133429391477824 -9.34072506165266e-05 2.29666954597546e-05 0.000301359521353074 0.000103577592838566 0.000164457704325647 0.000395626674581271 0.000329078973376424 0.000178345859153878 -0.000157888311748113 0.000184770460601983 2.11677020105381e-05 -0.000311247101396521
"36" -0.000216876597687581 -0.000317202285500608 -0.000532021904678858 -0.000130056793416605 -9.09689801888284e-05 2.8573753466528e-05 0.000301236098911145 0.000105004743967776 0.00017303561623055 0.000406351773804054 0.000337713228749344 0.000179113447078489 -0.000154407146848149 0.000191432394279332 3.04982386774942e-05 -0.000307958333493497
"37" -0.000214200778089079 -0.000314895783853841 -0.000525669576614131 -0.000126247795631484 -8.85053871288254e-05 3.44877212289165e-05 0.00030073536169405 0.000106382287011034 0.000181750685655118 0.000416625999596976 0.000345932394431999 0.000179940511966963 -0.000150377021972625 0.000198166557962645 4.01895087484421e-05 -0.000303882509805839
"38" -0.000210933691193338 -0.000311607359158945 -0.000518114061881044 -0.000121966990858331 -8.5963934542854e-05 4.07027884045611e-05 0.000299875709715972 0.000107708781300628 0.000190562733533122 0.000426359958523131 0.000353694182975493 0.000180858499234277 -0.000145688525798006 0.00020491561859766 5.02136891026961e-05 -0.000298921172617095
"39" -0.000207063071868273 -0.00030731942842217 -0.000509331395708942 -0.000117203412821691 -8.33206609760509e-05 4.71867655775452e-05 0.000298655130293223 0.000108967150931637 0.000199419062432058 0.000435442510977676 0.00036094273735407 0.000181887291562753 -0.000140240873005155 0.000211604785600179 6.05159045997983e-05 -0.000292979786280743
"40" -0.000202566430033968 -0.000302004337395733 -0.000499293700287956 -0.000111933805108476 -8.05324858898092e-05 5.39181988725113e-05 0.000297090884654787 0.000110152312594371 0.000208274261006801 0.000443779742299162 0.000367633365118386 0.000183064897327468 -0.00013391452996511 0.000218171614489739 7.1053957844341e-05 -0.000285960533246681
"41" -0.000197442184277963 -0.000295662264682869 -0.000487995079467238 -0.000106154743129128 -7.75756646300052e-05 6.08645509963416e-05 0.000295184867572487 0.000111244450885497 0.000217074525728177 0.000451257853278201 0.000373717315653695 0.000184409928033771 -0.000126600144329005 0.000224539746365349 8.17687055603983e-05 -0.000277772761906289
"42" -0.000191686551490083 -0.000288289502236092 -0.000475428367224984 -9.98635836413944e-05 -7.44174721846427e-05 6.79833671109761e-05 0.000292937307315245 0.000112234873631219 0.000225761614168129 0.000457774306997142 0.000379146284969095 0.000185952537569113 -0.000118182601575782 0.00023063469435283 9.25889473499899e-05 -0.000268316774993021
"43" -0.000185311831197619 -0.000279913113694108 -0.000461625360124304 -9.30744474865765e-05 -7.10447845140408e-05 7.52294601338654e-05 0.000290350967243606 0.000113098146792325 0.000234275078419951 0.000463219082278872 0.000383870000503069 0.000187707360609565 -0.000108570038747057 0.00023637205040703 0.000103443709752541 -0.000257523415891525
"44" -0.00017832296259435 -0.00027054727850811 -0.000446587155791667 -8.57867519299398e-05 -6.74264858554506e-05 8.2559890129885e-05 0.000287431403891986 0.00011382851688582 0.000242566649600131 0.00046750519635731 0.000387852224685859 0.000189710333429836 -9.76389601578287e-05 0.000241683349356683 0.000114268482698707 -0.000245293729533892
"45" -0.000170745954953549 -0.000260237618784538 -0.000430363325528379 -7.80334280687691e-05 -6.35536077899048e-05 8.99141699334165e-05 0.000284170105406463 0.000114397396547618 0.000250571007215039 0.000470524046087665 0.000391045479494847 0.000191974356268308 -8.52898029439555e-05 0.000246488840179908 0.000124977496268455 -0.000231550900266571
"46" -0.000162611933294909 -0.000249035771863725 -0.000412996100800319 -6.98414714561831e-05 -5.94175650596147e-05 9.72361271628715e-05 0.000280560790582137 0.000114788143716078 0.000258233915287951 0.000472190163574108 0.000393411727259334 0.000194525065462808 -7.14283050191519e-05 0.000250709597932436 0.000135491536248465 -0.000216230414484473
"47" -0.000153950113268527 -0.000236999259116276 -0.000394547304384019 -6.12444376944938e-05 -5.50108209911587e-05 0.000104466299319072 0.000276605061935564 0.000114980930685615 0.00026550050634668 0.000472418541059785 0.000394918419484342 0.000197375145358398 -5.59648992292872e-05 0.000254282941590513 0.00014573117575039 -0.000199264671777534
"48" -0.000144805661258444 -0.000224199212427364 -0.000375076893157657 -5.22861747246851e-05 -5.03293573739357e-05 0.000111535953828217 0.000272287545276241 0.000114956659756704 0.000272318407700082 0.000471134315483035 0.000395536620673588 0.000200550312338106 -3.88074899570669e-05 0.000257139488489545 0.000155612760138637 -0.000180588777056807
"49" -0.000135225908692425 -0.000210720269292564 -0.000354670638032607 -4.30168805872716e-05 -4.53723742215618e-05 0.000118379989413117 0.000267606573038026 0.000114692374519424 0.000278639537268532 0.000468272269777736 0.000395243346880753 0.000204066012147268 -1.98850236991849e-05 0.000259224602823684 0.000165066092033382 -0.000160162995299533
"50" -0.000125265118976885 -0.000196653845565419 -0.000333415566311725 -3.34963289114063e-05 -4.015583023996e-05 0.000124927306631857 0.000262547874048115 0.000114168531755058 0.00028442034466589 0.000463773735119695 0.000394015703632735 0.000207932150759677 8.63551220538484e-07 0.000260486336084587 0.000174012586629813 -0.000137948306754405
"51" -0.000114974795789871 -0.000182089394332071 -0.000311391992023766 -2.37748808628746e-05 -3.46639144479929e-05 0.00013111457834987 0.000257108009683131 0.000113369949183887 0.000289625198695543 0.000457605789920952 0.00039184889476218 0.000212174482400483 2.35115961800089e-05 0.000260886111722952 0.000182388005970334 -0.000113899361447427
"52" -0.000104423348968855 -0.000167141543567861 -0.000288712932097183 -1.39287625587477e-05 -2.89290006467852e-05 0.000136867549909618 0.000251270473155682 0.000112273747184488 0.000294208975329953 0.000449727460555537 0.000388728843524327 0.000216793791710712 4.80945816568531e-05 0.000260383955011519 0.000190117162449437 -8.80084516560199e-05
"53" -9.36639563543053e-05 -0.000151908971187501 -0.000265471129200874 -4.01354422868231e-06 -2.29463280977478e-05 0.00014212724024592 0.000245041491367581 0.00011087148981316 0.000298158582039077 0.000440137932858979 0.000384667072306195 0.00022180949127501 7.46453571403839e-05 0.000258966483237122 0.000197160521139874 -6.02643261797778e-05
"54" -8.2765743759993e-05 -0.000136506048670389 -0.000241779180886022 5.89718258800945e-06 -1.67267301365862e-05 0.000146829012333843 0.000238405685093766 0.000109149569305977 0.000301447711762606 0.000428831057916117 0.000379671292237007 0.000227228082586492 0.00010318538768237 0.00025661846425196 0.000203463078829339 -3.0674138595397e-05
"55" -7.17986777364373e-05 -0.000121052210556083 -0.000217753615654442 1.57266635289893e-05 -1.02951047954541e-05 0.000150910959684897 0.000231360431960206 0.00010708837270093 0.000304056278530373 0.000415818896234627 0.000373752435448119 0.000233053163706568 0.000133708480569762 0.000253333725704352 0.00020898028321762 7.40934868420798e-07
"56" -6.08180123369278e-05 -0.000105655966407951 -0.000193499611676636 2.54119042333732e-05 -3.65589193909399e-06 0.000154322569990006 0.000223905480330316 0.000104692592276249 0.000305981849709418 0.000401136020367215 0.000366940473992866 0.000239291730029815 0.00016621812248854 0.000249118146676861 0.000213687129283734 3.39561298483023e-05
"57" -4.98980215386179e-05 -9.04394542488108e-05 -0.000169136220566418 3.48756683024679e-05 3.16198883397575e-06 0.000157015230479128 0.000216041570197878 0.000101943744359477 0.000307211527599353 0.000384821327848154 0.00035926060706138 0.000245928232998509 0.000200657014291767 0.000243982074134279 0.000217555006250199 6.89020697540292e-05
"58" -3.91002761390037e-05 -7.55136698764319e-05 -0.000144772312814727 4.4047489023837e-05 1.01469487651479e-05 0.00015894549855396 0.000207765153745039 9.88434793231973e-05 0.000307749748689 0.000366934065536376 0.000350746606146914 0.000252966352996805 0.000236990811215882 0.000237949708880837 0.000220564316444743 0.000105527608470314
"59" -2.84876995524692e-05 -6.09903291173803e-05 -0.000120528209345628 5.28593863559522e-05 1.72838216681396e-05 0.000160078389453734 0.000199093296440396 9.53934092458317e-05 0.000307601251572216 0.000347549873674829 0.000341444416900411 0.000260380466591837 0.000275131384095718 0.000231051891536096 0.000222718453523838 0.00014373291288356
"60" -1.81244536054761e-05 -4.69799679713911e-05 -9.65166702032771e-05 6.12392557956941e-05 2.4538646358228e-05 0.000160387615055222 0.000190022478564949 9.15881068603028e-05 0.000306771584695257 0.000326746688336388 0.000331394257275918 0.000268149738110677 0.000314979174402066 0.000223316721286136 0.000224006360624115 0.000183407102932182
"61" -8.05704039108518e-06 -3.35781226066118e-05 -7.28347566990694e-05 6.91368417030903e-05 3.18928437494558e-05 0.000159859959402967 0.000180573639014482 8.74362130912291e-05 0.000305272016190606 0.00030462863360115 0.000320652685329312 0.000276251110965137 0.000356421563764818 0.000214795196596704 0.000224445686244465 0.000224430702283273
"62" 1.65072147176078e-06 -2.08874200078518e-05 -4.95977871369643e-05 7.64788567213356e-05 3.93173832650136e-05 0.000158478539555548 0.000170757065968036 8.29427960909098e-05 0.000303118865683877 0.000281298808914958 0.000309272090830348 0.000284642048848989 0.000399308803560558 0.000205524823287065 0.000224048840106096 0.000266656483356038
"63" 1.09560486092168e-05 -8.9879855012223e-06 -2.69047445209057e-05 8.32221595576493e-05 4.67898663322956e-05 0.00015624908789337 0.00016059524731965 7.81178889387311e-05 0.000300332663445604 0.000256886629374119 0.000297311991046926 0.000293287783357382 0.000443478718927633 0.000195564586697939 0.000222847050516002 0.000309915901479379
"64" 1.97978369604354e-05 2.02486283247058e-06 -4.86437593392641e-06 8.92956636999596e-05 5.42574553787282e-05 0.000153172697939008 0.000150099873600766 7.29634839038634e-05 0.000296915699215145 0.00023149581940016 0.000284820912396611 0.000302113621921658 0.000488717370585822 0.000184951465834875 0.000220851744424811 0.000354006154075698
"65" 2.81446081360582e-05 1.20890946171817e-05 1.64426934316888e-05 9.46703950779687e-05 6.16948066060381e-05 0.000149271533087384 0.000139299351378697 6.74954293697577e-05 0.000292898628655795 0.000205278820383838 0.000271872424841817 0.000311082839069106 0.000534833722872124 0.000173747206948559 0.000218107549123314 0.000398739224202669
"66" 3.59515954197643e-05 2.11385374994761e-05 3.69180028781775e-05 9.92932723005979e-05 6.90568133238986e-05 0.000144570764829528 0.000128217376447448 6.1723799785819e-05 0.000288292612798875 0.000178369114076512 0.000258522338158209 0.000320112773004967 0.000581577652055411 0.000162009345375127 0.00021465327384086 0.000443880410994406
"67" 4.31856880238793e-05 2.9119167233823e-05 5.64815790835655e-05 0.000103136103911229 7.6292248824862e-05 0.000139103673950435 0.000116878510926699 5.56597171952883e-05 0.000283117876150103 0.000150908804162884 0.000244830961167567 0.000329140788651022 0.000628697913813573 0.000149785691056669 0.000210527170083712 0.000489191028315957
"68" 4.98126156934484e-05 3.59893787043354e-05 7.50568459727541e-05 0.000106161792026874 8.33530914694883e-05 0.000132914998203677 0.000105316546422952 4.93174806325935e-05 0.000277390656432784 0.000123049217745087 0.000230860154765419 0.000338080755211675 0.000675906125314751 0.000137141906952607 0.000205781187400598 0.000534408762609065
"69" 5.58013418962391e-05 4.171303706803e-05 9.25627678232095e-05 0.000108342034882976 9.01743434239195e-05 0.000126049099106402 9.35589130730498e-05 4.27083352711382e-05 0.000271124767406514 9.49348570013285e-05 0.000216670024835623 0.000346849390321694 0.000722915518800046 0.000124130865388697 0.000200460314802763 0.000579260856830902
"70" 6.11360821031637e-05 4.6277157476203e-05 0.000108946479143932 0.000109665651935541 9.67068213319278e-05 0.000118567834324202 8.16427052643563e-05 3.58480502475889e-05 0.000264344998914347 6.67252130666544e-05 0.000202320970887387 0.000355367175146487 0.000769426271882881 0.000110814232059655 0.000194627209321331 0.000623477487189304
"71" 6.57963135165031e-05 4.967006238441e-05 0.000124145580139686 0.000110119124479815 0.000102876134708798 0.000110534934762317 6.9600913220958e-05 2.87473978212618e-05 0.000257062717009559 3.85651867182369e-05 0.000187871950475413 0.000363544979893828 0.000815123788877896 9.72467863791459e-05 0.000188331165564282 0.000666770475581219
"72" 6.97672545381985e-05 5.18923340967055e-05 0.000138107439238599 0.000109692438507009 0.000108618443211202 0.000102016146877186 5.74685757354969e-05 2.14217372345201e-05 0.000249301392950976 1.06099607342351e-05 0.000173376611961369 0.000371301637719108 0.000859679005409223 8.35012245353966e-05 0.00018164191796955 0.000708844678237126
"73" 7.30417432999444e-05 5.29649779970193e-05 0.000150798494849693 0.000108390152483263 0.000113865670220471 9.30873163530288e-05 4.52881109875996e-05 1.38865429501585e-05 0.000241079371656916 -1.69915955267529e-05 0.000158893613536984 0.000378551635983774 0.000902775215235325 6.96358442939762e-05 0.000174618713339363 0.000749411600021578
"74" 7.56147575106901e-05 5.2912833603505e-05 0.00016217854618618 0.000106211850412036 0.000118538557441529 8.3822342564847e-05 3.30935307939929e-05 6.1504914998481e-06 0.000232411523272814 -4.40962331393886e-05 0.000144471216508341 0.00038521567119273 0.000944093035403844 5.57133815333094e-05 0.000167326818542056 0.000788189885991883
"75" 7.74877283138249e-05 5.17775224778133e-05 0.000172222607384362 0.000103180101014694 0.000122560891018516 7.43070744742482e-05 2.09277257401859e-05 -1.76630132760764e-06 0.000223322508836173 -7.05608620947527e-05 0.000130163099921371 0.000391220052103534 0.000983302276255101 4.18024756684121e-05 0.000159835144964973 0.000824886224283458
"76" 7.86671013595939e-05 4.96065126633213e-05 0.000180918261592951 9.93075632998254e-05 0.000125863488901114 6.46202257033305e-05 8.82719946386026e-06 -9.85639409796869e-06 0.000213830108785495 -9.62462844255929e-05 0.000116015360591178 0.000396494975265587 0.00102010635448876 2.79669041094259e-05 0.000152211235886957 0.000859239221505229
"77" 7.91660096443973e-05 4.64711382519655e-05 0.000188264181837047 9.46280881499759e-05 0.000128370944075435 5.48489849167065e-05 -3.15994617059184e-06 -1.80979471573718e-05 0.000203967171603819 -0.000121018595483638 0.000102078109337724 0.000400989081454481 0.00105420752450967 1.42873701543593e-05 0.000144536780131271 0.000890988644111018
"78" 7.90043112473799e-05 4.24448318690056e-05 0.000194265268426309 8.91776522859009e-05 0.000130013638539629 4.50805594975769e-05 -1.49900935874562e-05 -2.64791875523977e-05 0.000193752799608673 -0.000144753285309435 8.83953104505874e-05 0.000404652461122422 0.00108533003406101 8.29883132840177e-07 0.000136875102257377 0.00091989775432302
"79" 7.81990590495656e-05 3.76052336476886e-05 0.000198932630917043 8.2988349613268e-05 0.000130721057993109 3.53970941315321e-05 -2.66261673416338e-05 -3.49840405495289e-05 0.000183216776407698 -0.000167330715709599 7.50059480849895e-05 0.000407440033079394 0.0011132045536665 -1.23259011312081e-05 0.00012930133789358 0.00094573643862533
"80" 7.67852668594008e-05 3.20575868770263e-05 0.000202295591698545 7.61161641082868e-05 0.000130436534240538 2.5886854279511e-05 -3.80195412029374e-05 -4.35932043579657e-05 0.000172387328332096 -0.000188641327442401 6.19491906207707e-05 0.000409322834572765 0.00113759630974204 -2.51123683334201e-05 0.000121890174652223 0.000968306376749807
"81" 7.48000466824086e-05 2.59030044751284e-05 0.000204392374683098 6.86179630772208e-05 0.000129105674226487 1.66342704246014e-05 -4.91213446512449e-05 -5.22844245402862e-05 0.000161301950201337 -0.000208576061927398 4.92695877653643e-05 0.000410287048187715 0.00115828820955979 -3.74446931667491e-05 0.000114715926767172 0.000987425605910104
"82" 7.22798037247174e-05 1.92543513422918e-05 0.000205266175243395 6.05493722161184e-05 0.000126685656602986 7.71788119641275e-06 -5.98891832971605e-05 -6.10376009532712e-05 0.000149988191771251 -0.000227048500494769 3.69936772179213e-05 0.000410322378902458 0.00117509894839714 -4.92527472234825e-05 0.000107848281390761 0.00100294851679338
"83" 6.92775463290548e-05 1.22392209780356e-05 0.000204986854796988 5.19851002603047e-05 0.000123147537317025 -7.77534911076245e-07 -7.02730412305568e-05 -6.9825070453517e-05 0.000138487273843154 -0.000243964710399018 2.5162739894853e-05 0.000409435812362292 0.00118787865095896 -6.04569469380537e-05 0.000101360419539861 0.00101475460572845
"84" 6.58377837436655e-05 4.97849629267041e-06 0.000203609838754596 4.29863172638615e-05 0.000118451980485211 -8.78245508403784e-06 -8.02348400159007e-05 -7.86261895977372e-05 0.000126823354634802 -0.000259263189298864 1.37941821441705e-05 0.000407629168991682 0.0011964855745514 -7.0999229615486e-05 9.5301526489122e-05 0.0010227399778093
"85" 6.20366528979579e-05 -2.3850740005948e-06 0.000201229962232086 3.36525016105994e-05 0.000112605926902563 -1.62140257855361e-05 -8.97179708412985e-05 -8.74029825415062e-05 0.000115049500166741 -0.000272866045011754 2.92753444541957e-06 0.000404952773292458 0.00120085116119669 -8.07943021319691e-05 8.97521077726573e-05 0.00102685877810752
"86" 5.79180069087351e-05 -9.72397188936033e-06 0.000197922012320425 2.40482122092912e-05 0.000105609061923158 -2.30160134831011e-05 -9.86840649655631e-05 -9.61300317100798e-05 0.000103181587539544 -0.000284741149130246 -7.42795274446249e-06 0.000401408194700338 0.00120088848859355 -8.97993981217705e-05 8.47500253466725e-05 0.00102705102991403
"87" 5.35609579242723e-05 -1.68942238568193e-05 0.000193782728304992 1.42708425955631e-05 9.74739197176476e-05 -2.91183399584299e-05 -0.000107083076501065 -0.000104768440450957 9.12679612303597e-05 -0.000294840145282337 -1.72467480319517e-05 0.000397047897845496 0.00119657270893941 -9.79435663636107e-05 8.03508069062335e-05 0.0010233164912227
"88" 4.90441420711659e-05 -2.3750068916889e-05 0.000188931379650125 4.4172163736361e-06 8.82592415168694e-05 -3.44600282194615e-05 -0.000114869591381549 -0.000113272369164047 7.93393427633729e-05 -0.000303132766263871 -2.6511606844249e-05 0.000391922893794569 0.00118791939504751 -0.000105187625836416 7.65931482215106e-05 0.00101568897566326
"89" 4.44324478166421e-05 -3.01622362972024e-05 0.000183460350087198 -5.43362940033899e-06 7.79866438426979e-05 -3.89968389800161e-05 -0.000122007582909668 -0.000121609788553325 6.74188171797463e-05 -0.000309626546894327 -3.52211864366901e-05 0.000386071441288205 0.00117494190108817 -0.000111496022791963 7.35012248839269e-05 0.00100419907818142
"90" 3.98147106121121e-05 -3.59863653253389e-05 0.000177500123699923 -1.51719235972504e-05 6.67390375114466e-05 -4.26765712967368e-05 -0.000128453340753044 -0.000129733051072729 5.55375200686644e-05 -0.000314310527176164 -4.33657309449882e-05 0.0003795545400116 0.00115771922168997 -0.000116845847829098 7.10927520140649e-05 0.00098893655570777
"91" 3.52720167441419e-05 -4.10889335608996e-05 0.000171168434272246 -2.47064032761497e-05 5.46129244858755e-05 -4.54615429155107e-05 -0.000134161933333629 -0.000137584546595984 4.3727534868709e-05 -0.000317199237181855 -5.09423768485545e-05 0.000372427859712961 0.00113633674455025 -0.000121207733414665 6.93919934652443e-05 0.000969996768452836
"92" 3.08834642727195e-05 -4.53480321263296e-05 0.000164578207758287 -3.39417755384481e-05 4.16827422907533e-05 -4.73214712605275e-05 -0.000139108254657379 -0.000145128203272196 3.19917544135009e-05 -0.000318340702896282 -5.79645769091471e-05 0.000364741054259931 0.00111090544883574 -0.000124603212968891 6.83749087583356e-05 0.000947499733865985
"93" 2.67389248237056e-05 -4.86386386722111e-05 0.000157872268360823 -4.2782869626868e-05 2.80830533713692e-05 -4.82289106713718e-05 -0.000143257260472642 -0.00015230296719924 2.03548571628555e-05 -0.000317769291525694 -6.44396241217433e-05 0.000356559157584435 0.00108159402262231 -0.000127034958677324 6.80351644196979e-05 0.000921608264520694
"94" 2.29159084477348e-05 -5.08502107544911e-05 0.000151163011316703 -5.11422166989428e-05 1.39254605717999e-05 -4.81715948869074e-05 -0.000146586314379879 -0.000159060673909001 8.82024431101547e-06 -0.00031555574926351 -7.03867483279776e-05 0.000347926035445047 0.001048545954058 -0.000128541049705402 6.83332225391611e-05 0.000892471236106746
"95" 1.95034667535441e-05 -5.18828718359783e-05 0.000144583757575952 -5.89217355224646e-05 -6.31176165609075e-07 -4.71357415004008e-05 -0.000149064831070143 -0.000165342539941175 -2.60587902130074e-06 -0.000311767654342323 -7.58261357871764e-05 0.000338897739784657 0.00101196951957557 -0.000129160465680346 6.92361406750798e-05 0.000860285484534594
"96" 1.65713636562332e-05 -5.16525266424757e-05 0.000138245913116579 -6.60519778711477e-05 -1.54490174568187e-05 -4.51284290427779e-05 -0.000150682825896971 -0.000171097795166214 -1.39278836710763e-05 -0.0003065016645563 -8.07917930688492e-05 0.000329514659709717 0.000972065323683125 -0.00012895955493232 7.06807016404702e-05 0.000825246085652252
"97" 1.42017319695514e-05 -5.0078571036249e-05 0.000132278454093634 -7.24514401428889e-05 -3.03597736952892e-05 -4.21544414291454e-05 -0.000151426284207766 -0.000176271085604908 -2.51525341662805e-05 -0.000299862017303533 -8.53141347148844e-05 0.00031982445231754 0.000929074909465969 -0.000128014411303718 7.25947712608143e-05 0.000787579589554559
"98" 1.24672695220708e-05 -4.70992290952598e-05 0.000126787218243987 -7.80460862882237e-05 -4.52057386330055e-05 -3.8229466613437e-05 -0.000151296429593481 -0.00018081653758045 -3.62969260842723e-05 -0.000291961689431831 -8.94335904343545e-05 0.000309864450457462 0.000883244369556914 -0.000126418225589568 7.4893853592715e-05 0.000747513342335914
"99" 1.14193691387107e-05 -4.26820584878854e-05 0.000121869085766738 -8.27910444705701e-05 -5.98250860734521e-05 -3.33898901656237e-05 -0.000150296687004331 -0.000184689367061466 -4.73879328340421e-05 -0.000282944555657548 -9.32065911700255e-05 0.000299651191423581 0.000834817653299334 -0.00012429341255254 7.74739668591176e-05 0.000705278042958517
"100" 1.11259367764723e-05 -3.67861734180606e-05 0.000117630100589171 -8.66237388916968e-05 -7.40360491863022e-05 -2.76643106032702e-05 -0.000148439007779162 -0.000187838667698895 -5.8443786321423e-05 -0.000272938925697173 -9.66736788991601e-05 0.000289223565127261 0.000784088958273359 -0.000121745048528173 8.02353288228992e-05 0.000661137913123379
"101" 1.16396521328116e-05 -2.94055005697019e-05 0.000114156563734926 -8.95068091127051e-05 -8.76734785396667e-05 -2.10990002838239e-05 -0.000145733233431364 -0.000190225532018812 -6.9489535775599e-05 -0.0002621008914705 -9.98924399150695e-05 0.000278601352154825 0.00073133987139672 -0.000118909012723235 8.30577396928263e-05 0.000615348832521471
"102" 1.29955110806005e-05 -2.05506142451861e-05 0.000111513716459595 -9.14167660368987e-05 -0.000100578380061466 -1.37512982197604e-05 -0.000142220452888179 -0.000191821146364936 -8.05682622751857e-05 -0.000250592521477323 -0.000102926518931174 0.000267784964009937 0.000676856231604313 -0.000115944226169592 8.58081863242835e-05 0.000568170455913476
"103" 1.52338993189223e-05 -1.0238832856045e-05 0.000109785500705909 -9.23310476407294e-05 -0.000112586935369409 -5.68296027794491e-06 -0.000137924724090211 -0.000192592778720512 -9.17078123355308e-05 -0.00023857660933951 -0.000105829590586689 0.000256803044409451 0.000620964202344458 -0.000112984612312992 8.83567815993644e-05 0.000519894696800111
"104" 1.83777965511967e-05 1.4853577951531e-06 0.000109014571712151 -9.22434385194093e-05 -0.000123554739126389 3.03819954316447e-06 -0.000132891979906164 -0.000192523434058478 -0.000102946442963293 -0.000226227520090147 -0.000108669648038728 0.000245655481296391 0.000563969740871326 -0.000110196725338295 9.05620695631755e-05 0.000470789728463002
"105" 2.24418223939894e-05 1.45624917934886e-05 0.000109253101621328 -9.11628692284537e-05 -0.000133341840539198 1.23317086251129e-05 -0.000127175778054471 -0.000191598857986711 -0.00011431809628652 -0.000213718608206839 -0.000111510732555816 0.000234351932162186 0.000506196186455641 -0.000107737181006571 9.22851442276017e-05 0.000421142393223432
"106" 2.74310329792733e-05 2.89194336804076e-05 0.000110523506396114 -8.91076569854058e-05 -0.00014182705430795 2.21117032018769e-05 -0.000120836240728802 -0.000189815970821797 -0.000125865595505085 -0.000201232987267899 -0.000114417360378296 0.000222893339521788 0.000447972906949846 -0.000105775261967662 9.33768087182964e-05 0.000371242861886596
"107" 3.33402565011423e-05 4.446626309262e-05 0.00011284564799197 -8.61142636824654e-05 -0.000148899229217039 3.22832635542025e-05 -0.000113940329296912 -0.000187182595431993 -0.00013761681299767 -0.000188950499585255 -0.000117453257298969 0.000211291992221068 0.00038964485097044 -0.000104460825538474 9.37015033057294e-05 0.000321389815039735
"108" 4.01563194225003e-05 6.10915187988207e-05 0.000116230813608121 -8.22215012503608e-05 -0.000154473165366513 4.27486233033807e-05 -0.000106560087605202 -0.000183709649832282 -0.000149602440258389 -0.000177045456885346 -0.000120679593131575 0.000199553777350634 0.000331536661257336 -0.000103948833688112 9.31177168927653e-05 0.000271870753048249
"109" 4.78591421359852e-05 7.86833111487013e-05 0.000120675649948666 -7.74806676243723e-05 -0.000158462528560458 5.34084969682025e-05 -9.87750515559075e-05 -0.000179418814407909 -0.000161842192368408 -0.000165680804918585 -0.000124150674883328 0.000187693434798887 0.000274009139450576 -0.000104384466790024 9.15005140771533e-05 0.00022299232213156
"110" 5.64113665575561e-05 9.71032815042561e-05 0.000126157951408722 -7.19658966463964e-05 -0.000160822253867422 6.41527072084849e-05 -9.0677372276142e-05 -0.000174350052608449 -0.000174364548356763 -0.000155038915765277 -0.000127925197392737 0.000175720992911763 0.000217394571613459 -0.000105902302986389 8.87223316543661e-05 0.00017504250272766
"111" 6.57751096994652e-05 0.000116217351894961 0.000132656445929682 -6.57438316230674e-05 -0.00016151357443192 7.48714196771405e-05 -8.23533228629339e-05 -0.000168539230139915 -0.000187175405772008 -0.000145268506190813 -0.000132049885956255 0.000163665998231042 0.000162055123444485 -0.000108622519292979 8.46756983391915e-05 0.000128333337697468
"112" 7.59012976856409e-05 0.000135864372037415 0.000140129891578639 -5.89034760240036e-05 -0.000160516531745555 8.54548779789527e-05 -7.39025657709225e-05 -0.000162039600050081 -0.000200281173917164 -0.00013652434947082 -0.000136567790560753 0.000151547077523123 0.000108322871899176 -0.000112655212258954 7.92566996475422e-05 8.31441681252484e-05
"113" 8.67374369189698e-05 0.000155892291855758 0.000148536058639944 -5.15326978246236e-05 -0.000157831586059968 9.57909824887652e-05 -6.54175452319939e-05 -0.000154907485219466 -0.000213673774051294 -0.000128941364550182 -0.000141512772887694 0.000139406766616067 5.65552717722315e-05 -0.00011807479269941 7.23914066815976e-05 3.97808759754655e-05
"114" 9.82183946334237e-05 0.000176138213156726 0.000157826961732079 -4.37299550375235e-05 -0.000153471842032867 0.000105769902140936 -5.69982950542148e-05 -0.000147204841181914 -0.000227341385452443 -0.000122640060958093 -0.000146912042821228 0.000127281855210796 7.08086434680665e-06 -0.0001249505635033 6.40111812441142e-05 -1.47532496210851e-06
"115" 0.000110271766774325 0.000196428069813408 0.000167930012325398 -3.56067026822345e-05 -0.000147485468227572 0.000115277615159082 -4.87536077234644e-05 -0.000139012305353529 -0.000241271624694154 -0.000117750712755074 -0.000152793086578517 0.000115216279555838 -3.97589726534755e-05 -0.000133346370697261 5.40498161522557e-05 -4.03386336007951e-05
"116" 0.000122830951383134 0.000216596145960972 0.000178778121383875 -2.72634157542062e-05 -0.000139916982829499 0.000124214498217119 -4.07752395268082e-05 -0.000130399719208606 -0.000255428858526191 -0.00011435546690209 -0.000159165753449294 0.000103261527849212 -8.36596643353269e-05 -0.000143274334749833 4.24880774010181e-05 -7.65545454097059e-05
"117" 0.000135812989091116 0.000236473319938604 0.000190297101539834 -1.88163360224126e-05 -0.000130843224273998 0.000132474748126513 -3.31675160542301e-05 -0.000121454317380345 -0.000269780006442581 -0.000112549480168783 -0.000166039318644529 9.1472827672331e-05 -0.000124311498079239 -0.000154748461748971 2.93021463468225e-05 -0.000109859604122601
"118" 0.000149139716339927 0.000255886658397323 0.000202406871426543 -1.03774589536488e-05 -0.000120334391727089 0.000139966416805811 -2.60225927616517e-05 -0.00011225666076323 -0.000284276205002208 -0.000112392679372701 -0.00017340769723387 7.99127347211706e-05 -0.000161428448875724 -0.000167748424478754 1.45021686808161e-05 -0.000140015062252635
"119" 0.000162724823670869 0.000274672831418923 0.000215021302294856 -2.06130208662287e-06 -0.000108492570646013 0.00014660015100799 -1.94360459242671e-05 -0.000102891690744265 -0.000298878131334384 -0.000113942794060712 -0.000181270114617841 6.86283356018947e-05 -0.000194758397344979 -0.000182258545499602 -1.90717410009134e-06 -0.000166817624499438
"120" 0.000176485407217253 0.00029267444565062 0.000228054085517612 6.02188275298912e-06 -9.54108710976412e-05 0.000152297962346619 -1.34871159098256e-05 -9.34459772796501e-05 -0.000313524543381741 -0.000117230188415794 -0.000189608479284597 5.76882986229845e-05 -0.000224061265380215 -0.000198209348873814 -1.98740061067498e-05 -0.000190065868014903
"121" 0.000190332149503048 0.000309736121347673 0.0002414081341887 1.37567228646867e-05 -8.12104111355068e-05 0.000156986879538189 -8.26180615308142e-06 -8.4002266462982e-05 -0.000328162192074141 -0.000122278752055838 -0.000198402086873407 4.71421350530317e-05 -0.000249139949947921 -0.000215547107984401 -3.93595286066698e-05 -0.000209597383429132
"122" 0.000204182053937618 0.000325716156312412 0.000254994808563806 2.10438010899959e-05 -6.5998408369332e-05 0.000160613096446462 -3.82953812089436e-06 -7.46449453844321e-05 -0.000342728220223745 -0.000129083311663172 -0.00020762281767274 3.70462366528732e-05 -0.000269818922849902 -0.000234184015368069 -6.02871519091076e-05 -0.000225273847145023
"123" 0.00021793766338701 0.000340466441527935 0.000268705928537571 2.77655551150217e-05 -4.99037976875528e-05 0.000163118448492051 -2.55814009292037e-07 -6.54512326067155e-05 -0.000357167363572626 -0.000137641762280238 -0.000217246240922803 2.74329065024678e-05 -0.000285988462864156 -0.000254024416179962 -8.25841621209636e-05 -0.000237006733279919
"124" 0.000231520173618724 0.000353871834522715 0.000282458357428231 3.38388768008142e-05 -3.3041428333889e-05 0.000164473892139587 2.40835616827926e-06 -5.64879412405101e-05 -0.000371418221987939 -0.000147920144792101 -0.000227234835818394 1.83402145264251e-05 -0.000297552030433849 -0.000274970407987025 -0.000106150883450648 -0.000244724577030828
"125" 0.000244844132147143 0.000365811279162322 0.000296143997828148 3.9164816847906e-05 -1.55522857575324e-05 0.000164651334474843 4.11257428570014e-06 -4.7831524825146e-05 -0.000385425134063679 -0.000159879502145636 -0.000237556221139862 9.7952770098516e-06 -0.000304471398557734 -0.000296910059547696 -0.000130891819204117 -0.000248404030906932
"126" 0.00025781623601301 0.000376179852366908 0.000309659877033003 4.36569019338829e-05 2.45146614211237e-06 0.000163637490698401 4.82777110985485e-06 -3.95314763947315e-05 -0.000399138173600142 -0.00017346312995385 -0.000248169263762498 1.79952875569048e-06 -0.000306758741905534 -0.000319721710509686 -0.000156691198343565 -0.000248062297998231
"127" 0.0002703658314621 0.000384895924658434 0.000322917732436954 4.72446455887389e-05 2.08440022054563e-05 0.000161432076993185 4.5309667834713e-06 -3.16384508971411e-05 -0.000412501819993058 -0.000188604723832757 -0.00025903227841917 -5.63930834727968e-06 -0.000304456186608781 -0.000343283008443127 -0.00018343105503881 -0.000243750377472296
"128" 0.000282407143532338 0.000391873220336347 0.000335812153020669 4.98580511461113e-05 3.94997831415765e-05 0.000158050161103467 3.20751814879804e-06 -2.41978505765155e-05 -0.00042547622847073 -0.000205218128379981 -0.000270107051888628 -1.25389440756233e-05 -0.000297677217506876 -0.000367469185688184 -0.000210982651694456 -0.000235570756544195
"129" 0.000293854045823848 0.000397048089316192 0.000348237075796093 5.14285591513197e-05 5.8291627657814e-05 0.000153508878583396 8.56329305239141e-07 -1.72464451898828e-05 -0.000438029651504687 -0.000223224712311466 -0.000281360481951684 -1.8935764046458e-05 -0.000286577739911395 -0.000392166967522572 -0.000239223406445733 -0.000223666180442934
"130" 0.000304643590555348 0.000400380493418087 0.0003601106689979 5.19192570438237e-05 7.71169056645718e-05 0.00014785072847971 -2.51235859482792e-06 -1.0802858479714e-05 -0.000450122586781014 -0.000242512219713882 -0.000292743489227116 -2.48594617605598e-05 -0.000271333834293565 -0.000417241130663769 -0.000268013964524499 -0.000208198587382837
"131" 0.000314691546761082 0.000401823098263568 0.000371320236674602 5.12765672739384e-05 9.58497251775152e-05 0.00014111449362737 -6.8822265502761e-06 -4.88586587107522e-06 -0.000461739558730757 -0.000262980445814138 -0.000304224162326423 -3.03737606244074e-05 -0.000252203320167319 -0.000442576587273652 -0.000297225564237801 -0.000189394077228593
"132" 0.000323934015309902 0.000401363942515881 0.000381784529040448 4.94800941549596e-05 0.000114390806449013 0.00013336136408161 -1.22150397479297e-05 5.02449126660926e-07 -0.000472855287837506 -0.000284506455978683 -0.000315763059002486 -3.55352466721661e-05 -0.000229459515707835 -0.000468047574046844 -0.000326712808747901 -0.000167501336122463
"133" 0.000332312901829186 0.000398995517993562 0.000391410896831651 4.65136117649195e-05 0.000132626636397221 0.000124660227157366 -1.84757554762518e-05 5.365376553442e-06 -0.00048345952400585 -0.000306964815493518 -0.000327321509416715 -4.04128571515224e-05 -0.00020340872556177 -0.000493542656678751 -0.000356340072976529 -0.000142791335712273
"134" 0.000339750432467478 0.000394722967565525 0.000400104130029556 4.23524918256161e-05 0.000150462597985255 0.000115073943196044 -2.56135022267222e-05 9.70910044456856e-06 -0.000493546043358334 -0.000330224238335172 -0.000338866836811204 -4.50887417967884e-05 -0.000174406285751028 -0.000518942839587378 -0.000385970880174078 -0.000115569474229809
"135" 0.000346195181155216 0.0003885716743589 0.000407781372721937 3.70088530841515e-05 0.0001677856873846 0.000104689267313959 -3.35733272375766e-05 1.35525074815807e-05 -0.000503116160324749 -0.000354154703372501 -0.000350364965401876 -4.96417379073676e-05 -0.000142824325424397 -0.000544144707905278 -0.000415469982502901 -8.61678290652006e-05
"136" 0.000351595688985897 0.000380581016734992 0.000414367364585567 3.04920174240815e-05 0.000184506478660291 9.35910641093311e-05 -4.22890370504964e-05 1.69216135348401e-05 -0.000512173488600117 -0.000378611123020975 -0.000361784088314192 -5.4154090337921e-05 -0.000109044707384442 -0.000569039216878436 -0.000444699394285282 -5.49162381793629e-05
"137" 0.000355902345016621 0.000370798176188696 0.000419784511061575 2.2827283272103e-05 0.000200534710696614 8.18744688386461e-05 -5.16864380500863e-05 1.984988065174e-05 -0.000520718657040544 -0.000403446513380195 -0.000373086265983356 -5.87043195884056e-05 -7.34806450672296e-05 -0.000593516308371879 -0.000473514021214704 -2.21797378510237e-05
"138" 0.000359066528002115 0.000359289380151485 0.000423963180622469 1.40425408966039e-05 0.000215772624928939 6.96256209552804e-05 -6.16949988940047e-05 2.23687364534783e-05 -0.000528763911748936 -0.000428519257298823 -0.000384245044398857 -6.33715044709021e-05 -3.653691886273e-05 -0.000617475084666525 -0.000501793596453629 1.16901609783414e-05
"139" 0.000361049882817677 0.000346126025354801 0.000426833973364591 4.17958642053524e-06 0.000230117361416864 5.6946565624509e-05 -7.22333542735657e-05 2.4515291849592e-05 -0.000536324656801657 -0.000453680875197281 -0.000395229227040137 -6.82243990081437e-05 1.36250968940867e-06 -0.000640821404734632 -0.000529405678570106 4.63285496662949e-05
"140" 0.00036181979777632 0.000331405493899096 0.000428344453986508 -6.70867418781394e-06 0.00024349432573003 4.39332150295026e-05 -8.32130571256794e-05 2.63374499961284e-05 -0.000543408664811022 -0.000478782513130964 -0.000406005107351854 -7.33287779810198e-05 3.98094613058354e-05 -0.000663453731825309 -0.000556215658278258 8.13781181875695e-05
"141" 0.000361343562223544 0.000315218451353042 0.000428444225330829 -1.85625029356925e-05 0.000255799216818297 3.06832478288862e-05 -9.45550023307015e-05 2.78721007724799e-05 -0.000550038474430688 -0.000503680454852676 -0.000416547093415389 -7.87362573175003e-05 7.8390745180927e-05 -0.000685280803689699 -0.000582106264322105 0.00011648216860491
"142" 0.000359599941055137 0.000297678819237696 0.000427087195062773 -3.13124475987374e-05 0.000266952807719602 1.7294643492798e-05 -0.00010616712012235 2.91720238568095e-05 -0.000556220609035383 -0.000528223990947109 -0.000426819555239616 -8.44922010418319e-05 0.000116719444865373 -0.000706208909384317 -0.000606949127252826 0.000151308439437328
"143" 0.000356573099902231 0.000278909853784157 0.000424244902693688 -4.48861036873718e-05 0.000276851606128208 3.85858223518941e-06 -0.000117970860759926 3.02732608647029e-05 -0.000561982618918929 -0.000552284150172904 -0.000436802483558213 -9.06210883527826e-05 0.000154429553027757 -0.000726155213474391 -0.00063064315582417 0.000185542463068653
"144" 0.00035225521797685 0.000259040307585494 0.0004198903145321 -5.91893817664734e-05 0.000285420273681185 -9.52843429763139e-06 -0.000129873086400256 3.12279742290265e-05 -0.000567328894804434 -0.000575710200227065 -0.000446460000115117 -9.71449545907463e-05 0.000191162856207994 -0.000745031520224553 -0.000653067790516208 0.000218872965909587
"145" 0.000346644361590371 0.000238201769009184 0.000414011412933141 -7.41372837416881e-05 0.000292571826247115 -2.27785886257006e-05 -0.000141789566836909 3.20768892792822e-05 -0.00057228168162054 -0.000598374937893491 -0.00045576633754898 -0.000104065677064226 0.000226589090506956 -0.000762762234076942 -0.000674122633692119 0.000251020912132726
"146" 0.000339738732879833 0.000216540186158499 0.000406600579644912 -8.96325712797285e-05 0.000298220313208234 -3.58096454798504e-05 -0.000153643231777759 3.2861913116222e-05 -0.000576858937374647 -0.000620153027976721 -0.000464695939910289 -0.000111379575601947 0.000260408318644496 -0.000779274646529989 -0.000693714677327585 0.000281731326328716
"147" 0.000331556828762835 0.00019420296578449 0.000397670322359445 -0.000105572267875127 0.000302284253937605 -4.85407341457841e-05 -0.000165353233832593 3.36184915076902e-05 -0.000581078994678536 -0.000640925694331428 -0.000473221500353544 -0.000119061183656188 0.000292354537502482 -0.000794503741594696 -0.000711758481265103 0.00031078115612923
"148" 0.000322122379509303 0.000171348687234788 0.000387236699727834 -0.000121843997584665 0.000304710073647574 -6.08946527072023e-05 -0.000176844760516674 3.43951546566885e-05 -0.000584951796375582 -0.000660574788605097 -0.000481317251563336 -0.000127078748361244 0.000322189739208725 -0.000808384535790654 -0.000728168859383781 0.000337968370409091
"149" 0.000311459022446499 0.000148123031345894 0.000375330964015984 -0.000138341123754956 0.000305415409349363 -7.28057836152615e-05 -0.000188045150388039 3.52207155128325e-05 -0.000588497857329633 -0.0006789993907092 -0.000488962870677929 -0.00013538931009995 0.000349694257839344 -0.000820865447107812 -0.000742878173211596 0.000363112358104576
"150" 0.00029960373379617 0.000124691373063599 0.000361991069451652 -0.000154949584022112 0.000304349850266739 -8.42117081508138e-05 -0.000198895096678329 3.61240168791111e-05 -0.000591740201533775 -0.000696111702943965 -0.000496137242283554 -0.000143939088754102 0.000374705032245428 -0.000831906513453826 -0.000755837896807757 0.000386080345526263
"151" 0.000286607500413507 0.000101210094483837 0.00034728092988702 -0.000171550403350739 0.000301475205232238 -9.50544226451258e-05 -0.000209330710992935 3.71398069234426e-05 -0.000594695936951139 -0.000711822797154945 -0.000502821801905593 -0.000152670926132846 0.000397073629402269 -0.000841479290379183 -0.00076699497459135 0.000406750492786591
"152" 0.000272516664194504 7.7833395887409e-05 0.00033125443674136 -0.000188031988823982 0.000296747977450292 -0.000105286936594944 -0.000219299798160512 3.82912582654103e-05 -0.000597383434781113 -0.000726063402460963 -0.000509001383023632 -0.000161510467278565 0.000416691595305619 -0.000849557783844931 -0.000776320580649636 0.000425042468896399
"153" 0.000257402840741507 5.47172375560676e-05 0.00031400427874427 -0.000204270910010511 0.000290157664722952 -0.000114863692318046 -0.000228754154300303 3.9604011902791e-05 -0.00059982761151493 -0.000738773161259556 -0.000514664311429371 -0.000170380724430174 0.000433487786841739 -0.000856131461171532 -0.000783790331599595 0.000440900653210757
"154" 0.000241333774347893 3.20114844988076e-05 0.000295611933171315 -0.000220157099742084 0.00028170220636352 -0.000123751635292046 -0.000237652375457342 4.10981177211251e-05 -0.000602051402332421 -0.000749900700821766 -0.000519800881364061 -0.000179211392076451 0.000447407905142506 -0.000861207215599575 -0.000789399888157177 0.000454296429518871
"155" 0.000224386609239801 9.86547916786911e-06 0.0002761812180945 -0.000235575100822044 0.000271398643242326 -0.000131922148035693 -0.000245957637182048 4.27959033421478e-05 -0.000604077825048074 -0.000759410161517919 -0.000524405566364251 -0.000187919401913941 0.000458432896632896 -0.000864796857304217 -0.000793155611709655 0.000465219492806009
"156" 0.000206657295208346 -1.15824476392031e-05 0.000255834278560853 -0.000250410763685982 0.000259279614011157 -0.000139351743403835 -0.00025363806993986 4.4712053213954e-05 -0.000605933692124819 -0.00076727141583838 -0.000528478309670904 -0.000196418682000244 0.000466580671639128 -0.000866928810458958 -0.000795079154981814 0.000473696779738506
"157" 0.000188233659037759 -3.21938041445204e-05 0.000234684709434164 -0.000264563099361701 0.000245393137753343 -0.000146029875149108 -0.000260678301036965 4.68576440403463e-05 -0.000607651968347363 -0.000773482791860894 -0.000532023687488991 -0.000204631124782328 0.000471890764807119 -0.000867652803882358 -0.000795208643092965 0.000479778105479589
"158" 0.000169224103613907 -5.18485141880941e-05 0.000212877891274278 -0.000277924783374204 0.000229817715443944 -0.000151943828133969 -0.000267055600463698 4.92475769893705e-05 -0.000609257744566442 -0.00077803757302863 -0.000535046807145824 -0.000212481607443555 0.000474412912282375 -0.000867015269259609 -0.000793588936019644 0.000483515705945589
"159" 0.000149741606006944 -7.04209079489272e-05 0.000190557841562093 -0.000290399105804185 0.000212657687993855 -0.000157094786964966 -0.000272760117817063 5.18943236090139e-05 -0.000610780874954123 -0.000780947899948356 -0.000537559379494299 -0.000219889038221508 0.000474248078942702 -0.000865083078471364 -0.000790283301342054 0.00048500904875869
"160" 0.000129899825753207 -8.78099240784489e-05 0.000167877752360641 -0.000301898886642728 0.000194023409677406 -0.000161489135584899 -0.000277784966265413 5.48078801801794e-05 -0.000612249516166518 -0.00078223637585646 -0.000539575536033276 -0.000226780460802176 0.000471498506365086 -0.000861932293085536 -0.000785364689635075 0.000484357827971118
"161" 0.000109828302886125 -0.000103907755463711 0.000145000530877731 -0.000312335115957268 0.000174054678046872 -0.000165136946112547 -0.000282131081555891 5.79931508525813e-05 -0.000613693917989579 -0.000781936236489123 -0.000541115722754771 -0.000233087400699427 0.000466295574888564 -0.000857653835641288 -0.00077892139883247 0.000481687884639738
"162" 8.96424123828768e-05 -0.000118640327467532 0.000122089912146053 -0.000321645193966959 0.000152895665826458 -0.000168060680785581 -0.000285813078565872 6.14488411241527e-05 -0.000615154901167337 -0.00078010564645332 -0.000542210369962819 -0.000238756432992179 0.000458777167696077 -0.000852351342850981 -0.000771063258868669 0.000477128397226116
"163" 6.94858179498894e-05 -0.000131920566309219 9.93282413639839e-05 -0.000329751877411519 0.000130742978004474 -0.000170280666901719 -0.000288828891015838 6.51919436706004e-05 -0.000616644460849409 -0.000776784767381364 -0.000542876607462813 -0.000243721964389906 0.000449112471246616 -0.000846117971385346 -0.000761875933370873 0.000470832299714311
"164" 4.94908279777742e-05 -0.000143689438431754 7.68877844937808e-05 -0.000336603998438942 0.000107772246935434 -0.000171827255580939 -0.000291201195704284 6.92138409740802e-05 -0.000618201008390374 -0.000772047420445488 -0.000543150885810238 -0.00024794191897391 0.00043747051574725 -0.000839064987771988 -0.000751491752828896 0.000462958395907064
"165" 2.979384673457e-05 -0.000153897543878161 5.49462247721703e-05 -0.000342156985743512 8.41892242272135e-05 -0.000172733816359974 -0.000292952340885766 7.35179822196117e-05 -0.000619846080184679 -0.000765970545996226 -0.000543067772799229 -0.000251378002448406 0.000424037522956896 -0.000831318175189726 -0.000740033375100147 0.000453670888679076
"166" 1.05390318074513e-05 -0.000162500347228469 3.36930624325301e-05 -0.000346369158754138 6.02297929914382e-05 -0.000173041341870368 -0.000294097897731897 7.81086882019775e-05 -0.000621594694746012 -0.000758623004226995 -0.00054265753728909 -0.000253991011442922 0.000409017644210305 -0.000822976337958629 -0.000727616954194259 0.000443153659658396
"167" -8.14677265793035e-06 -0.000169472946762635 1.32971514826029e-05 -0.000349225291202354 3.60971268526426e-05 -0.000172794283230638 -0.000294678731754839 8.29714623684607e-05 -0.000623472570591396 -0.000750112561990123 -0.000541965531944983 -0.000255758294223281 0.000392612776942507 -0.000814169755687848 -0.000714389701500647 0.000431585733641425
"168" -2.61058811230227e-05 -0.000174797275540153 -6.04888564924937e-06 -0.000350695309876728 1.20477668115532e-05 -0.000172033031951099 -0.000294709290062568 8.81122887927086e-05 -0.000625481370886202 -0.000740510193253338 -0.0005410201497792 -0.000256654184414096 0.000375038514379869 -0.000805002209143704 -0.000700468857337206 0.000419154077994224
"169" -4.32209029120466e-05 -0.000178477246125156 -2.41759849736294e-05 -0.00035079105528846 -1.16842643980053e-05 -0.000170813139251599 -0.00029423079516862 9.35196528192471e-05 -0.000627634228556579 -0.000729929962054129 -0.000539870829572544 -0.00025667840096084 0.000356503774990115 -0.000795582235365387 -0.000685993420796198 0.000406045353236887
"170" -5.93494212441005e-05 -0.000180514490916909 -4.09194935367786e-05 -0.000349510103332544 -3.48688446541734e-05 -0.000169183675686243 -0.000293280181263406 9.91814121428176e-05 -0.000629930863242194 -0.000718467870201769 -0.000538553203949868 -0.000255818420954081 0.000337235841865155 -0.000786017321319457 -0.000671097087028359 0.000392447025704779
"171" -7.43693785076332e-05 -0.000180939848845241 -5.61166692625369e-05 -0.00034687998309067 -5.72696553797692e-05 -0.000167200389776635 -0.000291894051946285 0.000105086052352243 -0.0006323695828368 -0.000706231164362994 -0.000537109069235899 -0.000254083484816756 0.000317443644104436 -0.000776404625310333 -0.000655908888517652 0.000378543537772146
"172" -8.8151823029792e-05 -0.000179774937756193 -6.96065148731345e-05 -0.000342916406213037 -7.86399944555341e-05 -0.000164913553299983 -0.000290101578436267 0.000111227398939152 -0.000634931444797505 -0.000693314653387128 -0.000535570427304722 -0.000251476824669317 0.000297355778455022 -0.000766820076372448 -0.000640539913356018 0.000364520859804071
"173" -0.000100590200055275 -0.000177071110791349 -8.12613668147794e-05 -0.000337670784199634 -9.87726352177375e-05 -0.00016238311049946 -0.000287949780468888 0.00011758187650712 -0.000637601502934695 -0.000679829020412033 -0.000533978204417413 -0.000248019003708431 0.000277179083516272 -0.000757336988439384 -0.00062511061629758 0.000350552759453917
"174" -0.000111572341772969 -0.000172876019567693 -9.09413593124678e-05 -0.000331186393247223 -0.000117450504284428 -0.000159660104483708 -0.000285476600064406 0.000124135483857827 -0.000640352651861848 -0.000665878040398926 -0.000532366569117987 -0.000243728294724506 0.000257130180183 -0.000748018643135631 -0.000609728744309411 0.000336817893807509
"175" -0.000120999752471633 -0.000167254322642269 -9.85308974419348e-05 -0.000323518385852732 -0.000134478942452113 -0.000156798422600732 -0.000282717577140957 0.000130863305667933 -0.000643158637288956 -0.000651562123219327 -0.000530764301759078 -0.000238633088058396 0.000237407479161661 -0.00073891172159152 -0.000594485836400828 0.000323474506074946
"176" -0.000128788222298038 -0.000160274951742492 -0.000103933463073517 -0.000314733447565972 -0.000149675812712032 -0.000153851152233205 -0.00027970898989037 0.000137751163329607 -0.000645974873949516 -0.000636969831188336 -0.000529198185457253 -0.000232766081470623 0.000218206606228514 -0.000730046680733117 -0.000579462255391417 0.00031067758857589
"177" -0.000134858258512534 -0.000152024462634994 -0.000107062986445264 -0.000304904679962009 -0.00016288174871918 -0.000150864104528282 -0.000276487405241624 0.000144774005226637 -0.00064875584844636 -0.000622195634539608 -0.000527689917814693 -0.000226164219643981 0.000199700215808208 -0.000721432973607954 -0.000564736091673587 0.000298557496132914
"178" -0.00013914982474356 -0.000142583216412184 -0.000107857165437833 -0.000294116239930916 -0.000173959253689925 -0.000147887261914497 -0.000273091255595291 0.00015190254921456 -0.000651463946469051 -0.000607338397547373 -0.000526266254937748 -0.000218871377458411 0.00018207137867387 -0.000713083688588894 -0.000550375648602252 0.000287257566041071
"179" -0.000141611405732475 -0.000132046462002154 -0.000106265125516275 -0.000282450009971752 -0.000182789815762332 -0.00014496267225665 -0.000269553476160429 0.000159110520360925 -0.000654043833118971 -0.000592475073499182 -0.000524941974399688 -0.000210935796026706 0.000165467094625572 -0.00070499410914936 -0.000536426806140223 0.000276882466044274
"180" -0.000142199743629394 -0.000120511041564976 -0.000102254876375283 -0.000269995223279784 -0.000189275633457722 -0.000142124616725526 -0.000265902221174957 0.00016637929413322 -0.000656432356611071 -0.00057767534910663 -0.000523720801441759 -0.000202406557172791 0.000150031707852301 -0.000697129549153758 -0.000522926736587665 0.000267532516045545
"181" -0.00014090115403426 -0.000108090679280432 -9.58304773215273e-05 -0.000256854157828678 -0.000193353610931276 -0.000139414489806667 -0.000262172028525307 0.000173674153007814 -0.000658579354239558 -0.000563018830829434 -0.000522620078737698 -0.000193347461137822 0.000135873500256011 -0.00068946304001614 -0.000509904928182107 0.000259276818228547
"182" -0.000137702908366768 -9.48838285298925e-05 -8.69998504457846e-05 -0.000243116659204085 -0.000194984608606181 -0.000136852733537478 -0.000258386979094129 0.000180966282221768 -0.000660430421045377 -0.00054856811261476 -0.000521642090660742 -0.000183814282225843 0.000123101268441702 -0.000681949593331289 -0.000497378331405815 0.000252185399676274
"183" -0.000132617521204004 -8.10078362593617e-05 -7.58045032310692e-05 -0.000228891377668783 -0.000194150812865444 -0.000134471816707077 -0.000254575908600054 0.000188231676943077 -0.000661923192080239 -0.000534382013559591 -0.000520783513776736 -0.000173873531228179 0.000111797841632025 -0.000674541544065243 -0.000485356953307601 0.000246301554359349
"184" -0.000125657738389006 -6.65715899164273e-05 -6.22939428553293e-05 -0.000214270109244625 -0.00019085373255985 -0.000132280008471226 -0.000250750977742608 0.000195443904275577 -0.000663000787110434 -0.000520505078060296 -0.000520039493015898 -0.000163593274722269 0.00010202244503566 -0.000667170376967109 -0.000473829216687584 0.000241647579948016
"185" -0.000116879127718679 -5.17021426610801e-05 -4.65604024025031e-05 -0.000199366079953124 -0.00018514700743144 -0.000130300022341845 -0.000246947062267081 0.000202569736337562 -0.00066361915861775 -0.000506995346884539 -0.000519412200629997 -0.000153056768676877 9.38039101336884e-05 -0.000659781921610437 -0.000462794990667853 0.000238220171585246
"186" -0.000106318794495348 -3.65047315456095e-05 -2.86945706873883e-05 -0.000184265125613774 -0.000177079566684113 -0.000128528833790599 -0.000243171825031225 0.000209590266706676 -0.000663721596483174 -0.000493878721757722 -0.000518883145102855 -0.00014232471414815 8.71834800019065e-05 -0.000652309411745065 -0.000452234112957892 0.000236022315528918
"187" -9.40613124135385e-05 -2.11067489665358e-05 -8.82822401206541e-06 -0.000169079779235495 -0.00016675965893699 -0.00012697467315231 -0.000239447567966273 0.000216472995310033 -0.000663270998463576 -0.000481201663502794 -0.000518444751941793 -0.000131495593658916 8.21260543457021e-05 -0.000644685607834755 -0.000442129007363941 0.000234995418067449
"188" -8.01889916054075e-05 -5.62209122280412e-06 1.28892794466252e-05 -0.00015390425442821 -0.000154294045235114 -0.000125632497176048 -0.000235789248271551 0.000223194248796168 -0.000662227833261115 -0.000468985094913489 -0.00051808296770938 -0.000120639658904583 7.86327341458318e-05 -0.000636852278629607 -0.00043245249475493 0.000235108517290799
"189" -6.48072018011464e-05 9.83179476319285e-06 3.62942915481323e-05 -0.000138831800375908 -0.00013983161396734 -0.000124492734008647 -0.000232205684060791 0.000229732880514937 -0.000660562463154578 -0.000457256646732055 -0.000517779173894953 -0.000109849111724733 7.66398211203959e-05 -0.000628735858218004 -0.000423173787071183 0.000236281137685587
"190" -4.80283055486103e-05 2.51412620487434e-05 6.12067040982298e-05 -0.000123949198588174 -0.000123525366332711 -0.000123537866501117 -0.000228709801423581 0.000236067591077224 -0.00065825313741019 -0.000446028419048192 -0.00051751628744645 -9.92104365656584e-05 7.60884896648042e-05 -0.000620286009536225 -0.000414260043331901 0.000238423264206447
"191" -2.9995713368745e-05 4.01869725597164e-05 8.74015522253578e-05 -0.000109356258638336 -0.000105583975912138 -0.000122757300865726 -0.000225317650469793 0.000242171154274119 -0.000655293645376632 -0.000435329277643935 -0.000517284209437017 -8.88239928764867e-05 7.68774402830212e-05 -0.000611461719263073 -0.000405694238937316 0.000241427901675947
"192" -1.08445129194069e-05 5.48666491206917e-05 0.000114676136805452 -9.51219436785633e-05 -8.62060424294743e-05 -0.000122122858345503 -0.000222034080883863 0.000248027369422018 -0.000651671997069093 -0.000425160283364167 -0.000517056233088602 -7.87664978171354e-05 7.89254392240881e-05 -0.000602215557014971 -0.000397441495016048 0.000245195100931176
"193" 9.25040058819228e-06 6.90611913008239e-05 0.000142769023241273 -8.13383018027094e-05 -6.56316685693729e-05 -0.000121616354282747 -0.000218878549794621 0.000253614457007963 -0.000647396423482566 -0.000415541803126932 -0.000516821495746359 -6.91448268863816e-05 8.20949460175805e-05 -0.000592513209453555 -0.000389474432462211 0.00024958119682495
"194" 3.01346535287689e-05 8.26741553970133e-05 0.000171440943256184 -6.80612122258778e-05 -4.41022799987725e-05 -0.000121201235284603 -0.000215848793027122 0.000258921234132629 -0.000642480032911054 -0.000406469336635278 -0.000516556846781585 -6.00420703027312e-05 8.62613828798926e-05 -0.000582334008111031 -0.000381769534004811 0.000254449058756579
"195" 5.16143247618545e-05 9.56020527436168e-05 0.000200415526617755 -5.5371471563892e-05 -2.18886050219305e-05 -0.000120856937582158 -0.000212966667937252 0.000263921375969334 -0.000636948730516899 -0.000397959224105946 -0.000516247599311376 -5.15525030443746e-05 9.12777944823443e-05 -0.000571664541361708 -0.000374307235539794 0.000259655774510418
"196" 7.34977131510954e-05 0.00010774429685745 0.000229421213536097 -4.33260405987382e-05 7.33555067979145e-07 -0.000120548597852925 -0.000210238147364044 0.000268608289528331 -0.000630826310415619 -0.000390007868628931 -0.000515874838687532 -4.37659396974146e-05 9.69896785910817e-05 -0.000560504197190795 -0.000367067040709652 0.000265051928585261
"197" 9.55828809113052e-05 0.000119014250009224 0.000258159984957009 -3.19807631754508e-05 2.3452411539123e-05 -0.00012024560366761 -0.000207683165686886 0.000272957010074914 -0.000624167148613967 -0.000382627075016894 -0.000515429700079499 -3.6773537027848e-05 0.000103228701016486 -0.000548867246820426 -0.000360049879238186 0.000270467752181069
"198" 0.000117657162266606 0.000129317927559382 0.000286345250401593 -2.13925470804454e-05 4.59860502187626e-05 -0.000119921105310979 -0.000205312170530249 0.000276959910812758 -0.000617008728205497 -0.000375815809574151 -0.000514894480365389 -3.06597671648397e-05 0.000109827913813687 -0.000536763176575815 -0.000353234865087817 0.000275754790947676
"199" 0.000139520676989572 0.000138582063983067 0.000313684179106888 -1.15884281670979e-05 6.80177665214096e-05 -0.000119537009037978 -0.000203135953529099 0.00028060345607164 -0.000609401373747155 -0.000369569215004872 -0.000514252134574814 -2.54933428965942e-05 0.000116626683298666 -0.000524225053001507 -0.000346619709172096 0.000280755420071552
"200" 0.000160945500133352 0.000146729980225241 0.000339877019753413 -2.61864906487566e-06 8.92430839069306e-05 -0.000119067698484269 -0.000201174722529674 0.000283878454150391 -0.000601411501742536 -0.000363890040410246 -0.000513492696770451 -2.13594272562731e-05 0.000123438677240844 -0.000511293133939059 -0.000340206345051249 0.000285309334270924
"201" 0.000181720691312179 0.000153688873490445 0.000364630436739299 5.49039029418098e-06 0.000109333478264955 -0.000118485854406895 -0.000199449541272594 0.000286764140563887 -0.000593105088441561 -0.000358782105255107 -0.000512605736050864 -1.83234916309793e-05 0.000130108607875456 -0.000498016069661489 -0.000333999430403292 0.00028927408398815
"202" 0.00020162323136698 0.000159399618140103 0.000387657005317021 1.27107444174939e-05 0.000127992213446038 -0.000117766082491683 -0.000197978266476722 0.000289257717289324 -0.000584554970784818 -0.000354244545427542 -0.000511583808443986 -1.6454598322597e-05 0.00013645151275049 -0.000484450355779493 -0.000328009549073762 0.00029249813823711
"203" 0.000220441806473801 0.000163804542083447 0.000408680149177315 1.90224218593832e-05 0.000144909631543292 -0.000116888501485882 -0.000196781506782343 0.000291345958226824 -0.000575820039816585 -0.000350270737224765 -0.000510411299156368 -1.57999185802172e-05 0.000142327623608647 -0.000470652219336337 -0.000322239104264582 0.000294858321814948
"204" 0.000237960659223158 0.00016685805330131 0.000427427974780365 2.44120567592164e-05 0.000159792595540257 -0.000115833170721498 -0.000195887229245898 0.000293019982105103 -0.000566987807328134 -0.000346868061159037 -0.000509084001087246 -1.64194535776228e-05 0.00014755940562927 -0.000456702167587448 -0.000316711357941416 0.000296215040054651
"205" 0.000253986660705066 0.000168522954268115 0.000443658737761587 2.88776578658259e-05 0.000172376260554644 -0.000114581058070443 -0.000195306421531625 0.000294279324997703 -0.000558114115028982 -0.000344015009603979 -0.000507585990439817 -1.83330027144325e-05 0.000152033750105368 -0.000442656177654322 -0.00031142354078939 0.000296481721301929
"206" 0.00026831805551351 0.000168763571519168 0.000457139684398438 3.24088755756376e-05 0.000182384193569541 -0.000113129497841036 -0.000195077049872555 0.000295111024547845 -0.000549289639046415 -0.000341718973622097 -0.000505916794798702 -2.15845317797269e-05 0.000155605057175623 -0.000428602559185069 -0.000306403869567412 0.000295551908789378
"207" 0.000280780152288746 0.000167565701591638 0.000467661623351266 3.50210174636685e-05 0.000189579458280945 -0.000111460797264086 -0.000195218539716073 0.000295515203678774 -0.000540573394371648 -0.000339966329385899 -0.000504060047583433 -2.61797325024295e-05 0.000158168790919408 -0.000414612854424977 -0.000301659182622375 0.00029335023264449
"208" 0.000291199081292849 0.000164914401183672 0.000475038239011018 3.67100450235319e-05 0.000193761397101966 -0.000109582926677604 -0.000195754941809619 0.000295490152408039 -0.000532033601632207 -0.000338746451272565 -0.000502008854805212 -3.21344482963551e-05 0.000159617446227884 -0.000400766820889666 -0.000297204152976409 0.000289813789290782
"209" 0.000299422311370914 0.000160803269289459 0.000479115017069656 3.74985888861651e-05 0.000194727414822017 -0.000107491497218598 -0.000196713974202667 0.000295036395423376 -0.000523735625960118 -0.000338048621933918 -0.000499753777321751 -3.94408772444048e-05 0.000159873333421764 -0.000387139010580834 -0.000293047810979345 0.000284903323359597
"210" 0.000305318884570978 0.000155247779919715 0.000479768246316309 3.74062051141852e-05 0.000192334404362057 -0.000105195522535289 -0.000198116561734903 0.000294153662722136 -0.000515735117743455 -0.000337856560261571 -0.000497283287563417 -4.80774107447556e-05 0.000158873486725142 -0.000373798192678537 -0.0002891954314304 0.000278593542514528
"211" 0.000308770328864229 0.000148262916944619 0.000476911527849209 3.6454672970463e-05 0.000186465421327248 -0.000102707482491752 -0.000199985943001805 0.000292852573506158 -0.000508073540477979 -0.000338145502441435 -0.000494580373107415 -5.80149100760563e-05 0.000156581240428424 -0.000360819038505092 -0.000285648003160413 0.000270894119091517
"212" 0.000309680872357101 0.000139881670261369 0.000470483333987706 3.46786012032998e-05 0.000177029959584357 -0.000100039987070171 -0.000202346609801787 0.000291138213288032 -0.00050080458230734 -0.000338895992872121 -0.000491640274383147 -6.92153865826042e-05 0.000152962268891874 -0.000348272535024428 -0.000282411769800817 0.00026180803506868
"213" 0.000307985966085684 0.000130144222453346 0.000460468110970665 3.21109850089001e-05 0.000164003951295076 -9.72158156429498e-05 -0.000205210443391407 0.000289025888594751 -0.000493951271928145 -0.000340072119961573 -0.000488436523999221 -8.16089094580443e-05 0.000148030638136475 -0.000336197859228064 -0.000279469299190192 0.000251393034719379
"214" 0.000303631031000432 0.000119099293589997 0.000446878938778112 2.87885485660176e-05 0.000147368401040648 -9.42605449174916e-05 -0.000208601597709244 0.000286524440538715 -0.00048754364234147 -0.000341650448046938 -0.000484963467053237 -9.51341511969818e-05 0.000141795439418054 -0.000324660738079861 -0.000276816935930218 0.000239696853633338
"215" 0.000296595875899381 0.000106814183957345 0.000429778846060495 2.47562159141352e-05 0.000127169357907976 -9.12018889243197e-05 -0.000212532292670951 0.000283654026013055 -0.00048159991474768 -0.000343597250816271 -0.000481203206605467 -0.000109707491315231 0.00013429731999782 -0.00031370632206934 -0.000274436516503089 0.000226807208497953
"216" 0.000286885831152113 9.33661417259932e-05 0.000409268440327541 2.00608092658876e-05 0.000103502549505822 -8.80720396984235e-05 -0.000217010226752434 0.000280433802381083 -0.000476115859541145 -0.000345864114421948 -0.000477131644452231 -0.000125222277413829 0.00012561472630544 -0.000303361411483465 -0.000272301842304488 0.000212834866450781
"217" 0.000274533589582478 7.88408517482055e-05 0.000385478989603602 1.47551352611405e-05 7.64947741952216e-05 -8.49083233919613e-05 -0.000222039883630672 0.000276896297333251 -0.000471088267508822 -0.000348401904704989 -0.000472730959891427 -0.00014156731620236 0.000115824001311764 -0.000293646355796725 -0.000270371897679079 0.000197899284443604
"218" 0.000259597154785922 6.33375186882379e-05 0.000358594535478308 8.89241462441894e-06 4.63185789920912e-05 -8.17494954935887e-05 -0.000227624324740756 0.000273062989006275 -0.000466504006405569 -0.000351164694656741 -0.000467984158799514 -0.000158618355265839 0.000105036514912082 -0.00028458023366138 -0.000268614895313805 0.000182146639717204
"219" 0.000242157927204471 4.69654651987589e-05 0.000328817596236689 2.52864760681623e-06 1.31798452921658e-05 -7.86403299243171e-05 -0.000233764355331032 0.00026896188406654 -0.000462340478773782 -0.000354103130530655 -0.000462872637200111 -0.00017623796143103 9.33803126820917e-05 -0.000276168788521503 -0.000266990620935363 0.00016574053264256
"220" 0.000222326076333232 2.98425594656274e-05 0.000296403547699636 -4.28017318122572e-06 -2.26650817528254e-05 -7.56229224785045e-05 -0.000240455686585579 0.000264625649743626 -0.000458561916586901 -0.0003571620483616 -0.000457377983795199 -0.000194280198605575 8.09951970997265e-05 -0.000268411291822208 -0.000265453500539137 0.000148854062494159
"221" 0.000200234967323652 1.20947030187822e-05 0.000261625991804403 -1.14729577476567e-05 -6.0928072192115e-05 -7.27498447697376e-05 -0.000247686536705174 0.000260088415175439 -0.000455129656377853 -0.000360287265719436 -0.000451489714389509 -0.000212592022201457 6.80381080590143e-05 -0.000261297511575277 -0.000263951165698647 0.000131675460910784
"222" 0.000176051693478618 -6.13599475305208e-06 0.000224803427960625 -1.89834621162633e-05 -0.000101286626590356 -7.00636582674017e-05 -0.00025543986379668 0.000255389025295096 -0.000451996434851718 -0.000363412826450746 -0.000445188155904381 -0.000231002242731231 5.46892757094649e-05 -0.000254800857755813 -0.000262425704321292 0.000114412640102244
"223" 0.000149957441519644 -2.47052359556669e-05 0.000186275812274698 -2.67535796167402e-05 -0.000143380020062672 -6.76179440801071e-05 -0.000263700068195245 0.000250562849123701 -0.000449104564494747 -0.000366481306124806 -0.000438465871323333 -0.00024934484770304 4.11380440997088e-05 -0.000248892155843407 -0.000260817853466582 9.72781738746574e-05
"224" 0.000122156322007371 -4.34598217325162e-05 0.000146407634799168 -3.47173562474707e-05 -0.000186832681436912 -6.54588047455443e-05 -0.000272439615567382 0.00024565024291152 -0.000446399025114273 -0.000369436668424692 -0.000431319309887203 -0.000267445957373718 2.75657019704957e-05 -0.000243543536404057 -0.000259075195172443 8.04798905379509e-05
"225" 9.28709572243161e-05 -6.2248833351172e-05 0.000105575547522573 -4.28196411638746e-05 -0.000231247841347883 -6.36427046070799e-05 -0.000281637946493486 0.000240682415997236 -0.000443826799069724 -0.000372229989231788 -0.000423749167702199 -0.000285135230829338 1.41747032084386e-05 -0.000238717849582652 -0.000257147704337608 6.42395981937019e-05
"226" 6.23438418813668e-05 -8.09082559596059e-05 6.41839141470615e-05 -5.09979621029421e-05 -0.00027619572877329 -6.22146890303122e-05 -0.000291259678138754 0.000235704928011556 -0.000441315023399533 -0.000374799015834307 -0.000415760385980383 -0.000302239006665054 1.16078732713435e-06 -0.000234369082063043 -0.000254969799196047 4.87717607262525e-05
"227" 3.08292976222501e-05 -9.92739290695457e-05 2.26411505202065e-05 -5.92031993314218e-05 -0.000321252866377434 -6.12294088199435e-05 -0.000301277980510714 0.000230745866156568 -0.000438817981911263 -0.000377109204581818 -0.000407372674207069 -0.000318590513277085 -1.1272604894297e-05 -0.000230463354936754 -0.000252508372786861 3.42953381721507e-05
"228" -1.40143158180716e-06 -0.000117182868863835 -1.86314959405262e-05 -6.73663584134671e-05 -0.000365970443959145 -6.0723279880948e-05 -0.000311647825688312 0.00022584637285989 -0.000436267427216745 -0.000379107116360371 -0.000398601955080774 -0.00033402575078478 -2.29411465962618e-05 -0.000226949558170643 -0.00024971077785964 2.10053629804411e-05
"229" -3.40806183100502e-05 -0.00013447702661424 -5.92308408971946e-05 -7.54574038748299e-05 -0.000409922207020998 -6.07517534552544e-05 -0.000322345471072602 0.000221027969272474 -0.00043362950632852 -0.000380780621189744 -0.00038949660928695 -0.000348409355187018 -3.36706586727716e-05 -0.000223803078461626 -0.000246558136360144 9.09166173525418e-06
"230" -6.69176652836019e-05 -0.000150991445637647 -9.87205232694357e-05 -8.34188917531231e-05 -0.000452646348969974 -6.13480861779483e-05 -0.000333313887550516 0.000216333325088189 -0.000430842042165454 -0.000382085280239499 -0.000380083280148079 -0.000361592522106575 -4.32851885489655e-05 -0.000220970907792609 -0.000243011798820726 -1.2637321515872e-06
"231" -9.96329816642263e-05 -0.000166575385596733 -0.00013670732820728 -9.12142295610723e-05 -0.000493733569182971 -6.25536265523658e-05 -0.000344521068865371 0.00021177709178607 -0.000427878325591919 -0.000383018629708021 -0.000370425780534517 -0.000373461478928771 -5.1649005265308e-05 -0.000218432949472485 -0.000239068036014358 -9.919159828016e-06
"232" -0.000131934949916829 -0.000181077172265806 -0.000172787511403483 -9.88055657531161e-05 -0.000532749912611624 -6.43972844184616e-05 -0.00035591657277805 0.000207390741480626 -0.000424705177912451 -0.00038357085678708 -0.000360584024259371 -0.000383909587764546 -5.86190848247849e-05 -0.000216157983473634 -0.000234723141487683 -1.67274586279028e-05
"233" -0.000163556446374384 -0.000194363512388467 -0.000206592181290841 -0.000106173982200817 -0.00056930758714269 -6.6911294465137e-05 -0.000367465246624843 0.000203183740830552 -0.00042131373685757 -0.000383756156366229 -0.000350638194626052 -0.000392858630815224 -6.41049175072736e-05 -0.00021413041715729 -0.000229993052631453 -2.15953728391215e-05
"234" -0.000194209165368201 -0.000206300660614806 -0.000237760554906503 -0.000113288336329733 -0.000603008490338226 -7.01152269662474e-05 -0.000379109394999885 0.00019918063500855 -0.000417689372566293 -0.000383583091089842 -0.000340667173046375 -0.000400247185096269 -6.80263352850115e-05 -0.000212335005351207 -0.000224896369084076 -2.44404290154168e-05
"235" -0.000223642429949467 -0.000216771426881675 -0.000265965727085546 -0.000120143756106417 -0.000633524067273057 -7.4028450474127e-05 -0.00039081482011637 0.000195381487039515 -0.000413848792999926 -0.000383095087505822 -0.000330774614200638 -0.000406036799826825 -7.03294760174513e-05 -0.000210782059396834 -0.00021948190257924 -2.52118754879768e-05
"236" -0.000251599745002846 -0.000225673575060773 -0.000290908163682972 -0.000126727027104968 -0.00066051047453751 -7.86607438727719e-05 -0.000402524878447291 0.000191802561917958 -0.000409801471268754 -0.000382322314085985 -0.000321060208243243 -0.000410213465191057 -7.09931038661217e-05 -0.000209459850812859 -0.000213789424791639 -2.38938680739809e-05
"237" -0.000277841694439508 -0.000232917271053552 -0.000312316464667673 -0.000133033616414386 -0.000683685570283431 -8.40136500869027e-05 -0.000414199170492959 0.000188443985941446 -0.00040557440073817 -0.000381311873008228 -0.000311633868635677 -0.000412777225992663 -7.00206841288324e-05 -0.00020839042834846 -0.000207889297791465 -2.04943260362087e-05
"238" -0.000302160071193444 -0.000238427540413383 -0.000329969088300784 -0.000139076908035489 -0.000702794985061265 -9.00876094076719e-05 -0.000425786913375442 0.000185303030236971 -0.000401213221342725 -0.000380133283900733 -0.00030261581934024 -0.000413772436226688 -6.74577387844856e-05 -0.000207592958817071 -0.000201855736244952 -1.50651456847622e-05
"239" -0.000324358839179037 -0.000242154726785883 -0.000343682095629071 -0.000144865792273008 -0.000717629845496699 -9.68686051176354e-05 -0.000437243776277513 0.000182377453178985 -0.000396769381765501 -0.000378853298639899 -0.000294133819335272 -0.000413249285596305 -6.33756658664597e-05 -0.000207094234670514 -0.000195775897586603 -7.6918508957572e-06
"240" -0.000344269169759679 -0.000244062159376059 -0.00035330279776269 -0.000150419705071384 -0.000728018161814872 -0.000104343267075547 -0.000448524281941352 0.000179657987762398 -0.000392299457931894 -0.000377547711028366 -0.00028630702099175 -0.000411284559924625 -5.78625522485059e-05 -0.000206925726057423 -0.000189742229801829 1.52819604889124e-06
"241" -0.000361743175356999 -0.000244126061352317 -0.000358738311963543 -0.000155761417839737 -0.000733826218532555 -0.000112485420378208 -0.000459576894180207 0.000177139492570218 -0.000387865366663965 -0.00037629175599819 -0.000279263214919241 -0.000407967888028988 -5.10412519633165e-05 -0.000207116891865714 -0.00018385609670786 1.24546649690379e-05
"242" -0.000376672895995377 -0.000242360162233742 -0.000359935185512636 -0.000160924434495983 -0.00073499113479914 -0.000121262997701186 -0.000470360109507568 0.00017480086845038 -0.000383546297212327 -0.000375181354070562 -0.000273128683140241 -0.000403418211000023 -4.30571800320204e-05 -0.000207714513275688 -0.0001782319631952 2.49194513324762e-05
"243" -0.000388956314873841 -0.000238770388323505 -0.000356882378983127 -0.000165933011873923 -0.000731454099786526 -0.000130632374109006 -0.000480818766485325 0.000172645005486385 -0.000379402013479129 -0.000374285453420674 -0.000268012729737025 -0.000397754903008446 -3.40735260383732e-05 -0.0002087426574892 -0.000172952445823003 3.87405149890467e-05
"244" -0.000398555686967242 -0.000233420029578036 -0.000349642117629085 -0.000170835568245931 -0.000723252924991857 -0.000140555800475499 -0.000490915365549975 0.000170639782990216 -0.000375525438302132 -0.000373704008336586 -0.000264037391528337 -0.000391125702732568 -2.42834258481445e-05 -0.000210250994109981 -0.000168153677309578 5.36984623247218e-05
"245" -0.000405437969516033 -0.000226360417493545 -0.000338305827289678 -0.000175669204211714 -0.000710453479358555 -0.000150976044989745 -0.000500598939349995 0.000168774747764332 -0.000371987539474412 -0.000373519429463434 -0.000261306811149043 -0.000383676871953341 -1.38862692275737e-05 -0.000212270176824171 -0.000163934150536529 6.95627953575516e-05
"246" -0.000409618987436257 -0.000217683623305932 -0.000323025947245396 -0.000180476563306259 -0.000693173549154009 -0.00016183671650237 -0.000509828528220498 0.000167029303383554 -0.000368865395193681 -0.000373809163659071 -0.000259907044569713 -0.000375567638672993 -3.08783727842672e-06 -0.000214834801024268 -0.000160394943445403 8.60958906176437e-05
"247" -0.000411136156198042 -0.000207486251940649 -0.000303995774282857 -0.000185297188264589 -0.000671581847342529 -0.00017306701228028 -0.000518548814892465 0.000165390667701377 -0.000366227775355079 -0.000374646587790343 -0.000259924045456046 -0.000366955992211507 7.88272761015842e-06 -0.000217966857788361 -0.000157632988794948 0.000103029717093126
"248" -0.000410074498723469 -0.00019590117771616 -0.00028147758536509 -0.000190184736972367 -0.000645910531365676 -0.000184605199271758 -0.000526725010121145 0.000163830541199165 -0.000364150024356849 -0.000376105222619404 -0.000261423120882022 -0.000358016355171486 1.87992140872574e-05 -0.000221703778120578 -0.000155748231205431 0.000120098984399679
"249" -0.000406535621903842 -0.000183065969501305 -0.000255761179949135 -0.000195174900456089 -0.000616427754358235 -0.000196369573598053 -0.000534304450941007 0.000162339123059555 -0.000362687023799205 -0.000378235819319728 -0.000264449008960574 -0.000348903516351181 2.943768697134e-05 -0.000226051546556656 -0.000154815390185827 0.000137038059563288
"250" -0.000400674048887443 -0.000169142821078978 -0.000227204009185705 -0.000200320759151206 -0.000583466527535177 -0.00020828733148434 -0.000541253706791326 0.000160886441464312 -0.000361898597842146 -0.000381095750153458 -0.000269039033260154 -0.000339786456641598 3.95671373596994e-05 -0.000231028906964512 -0.00015491379132035 0.000153561492998672
"251" -0.000392666386655739 -0.000154314945506392 -0.000196196756546783 -0.000205666558554286 -0.000547403943133637 -0.00022027691704202 -0.000547528896431731 0.000159455386220279 -0.00036183719665971 -0.000384727131210674 -0.000275213242137429 -0.000330835641925531 4.89561347360815e-05 -0.000236651082426299 -0.000156112766053841 0.000169394104769667
"252" -0.000382713911308815 -0.000138769688954651 -0.000163175816597396 -0.000211247976105499 -0.00050866543616683 -0.000232252259248706 -0.000553086119105118 0.0001580260613604 -0.000362532518408314 -0.000389148575657461 -0.000282958527998548 -0.000322187584690638 5.73948847143207e-05 -0.000242907104377408 -0.000158455442121844 0.000184270308324682
"253" -0.000371063666862173 -0.000122720944953315 -0.000128622707304578 -0.000217108381380438 -0.000467731135526886 -0.000244124477610275 -0.000557897361845242 0.000156569333498024 -0.000364030266094202 -0.000394390199431295 -0.000292263730282892 -0.000314009001636491 6.46608092572654e-05 -0.000249816696631797 -0.00016199465435947 0.00019791282518298
"254" -0.0003579814362347 -0.000106387054927069 -9.30479872666412e-05 -0.000223287479780824 -0.000425115452846363 -0.00025581450312063 -0.000561927179947932 0.000155065444172392 -0.000366349507229941 -0.000400452654030084 -0.000303087480442562 -0.00030643527095753 7.05627296556113e-05 -0.000257364472698788 -0.000166759554581214 0.000210074596565289
"255" -0.000343749468426569 -8.99945786394193e-05 -5.69931337709926e-05 -0.000229812218208476 -0.000381366184388464 -0.000267229707289924 -0.000565140672572046 0.00015349429156401 -0.000369499570528656 -0.000407327261454851 -0.000315371806833319 -0.000299596928052866 7.49111012652692e-05 -0.000265539688303493 -0.00017276551660452 0.000220507317041686
"256" -0.000328695160081714 -7.37922437935252e-05 -2.10376917269513e-05 -0.000236719743934406 -0.000337081126238877 -0.000278287356263703 -0.000567514932903441 0.000151825821600357 -0.000373500405208401 -0.00041500790309757 -0.000329050385722186 -0.000293632909997315 7.75221297435667e-05 -0.000274347561025299 -0.000180033561430514 0.000228966290589522
"257" -0.00031314137603339 -5.80242255645894e-05 1.42351018654364e-05 -0.000244035343824393 -0.000292878479791343 -0.000288900206174358 -0.000569025387389268 0.000150040579753578 -0.000378344342380403 -0.000423461131267529 -0.000344027953822646 -0.000288650378511551 7.82429869034619e-05 -0.000283774572889751 -0.000188562038815255 0.000235246126641036
"258" -0.000297452124122632 -4.29452622349833e-05 4.82081883738775e-05 -0.000251786849721797 -0.000249400191069398 -0.000298993342614524 -0.000569657928234028 0.000148105654662198 -0.000384026624996624 -0.000432655707719351 -0.000360211726731451 -0.000284762306565349 7.69229396144262e-05 -0.00029380545979223 -0.000198341105621609 0.000239136877108478
"259" -0.000281981651989844 -2.88083306983965e-05 8.027404675604e-05 -0.000259993430765142 -0.000207307477282755 -0.000308482084389199 -0.00056939278054605 0.000145998438439624 -0.000390537041006483 -0.000442549551620195 -0.000377483194857733 -0.000282067206932802 7.34370520389628e-05 -0.000304446930029113 -0.00020935939250694 0.000240459660167764
"260" -0.00026710221930788 -1.5868818213666e-05 0.000109817977785431 -0.000268668439582076 -0.00016726502490259 -0.000317295753734263 -0.000568221647747755 0.000143690405273716 -0.000397849824301845 -0.000453082839098605 -0.000395712185327726 -0.000280647997050254 6.76776803985957e-05 -0.00031567380704157 -0.000221581266049011 0.000239055929944301
"261" -0.000253197430362787 -4.38499885177922e-06 0.000136222048076592 -0.000277832679830536 -0.000129945136878557 -0.000325366041179113 -0.000566139799723775 0.00014115558856772 -0.000405946921185503 -0.000464205380935085 -0.000414768669553866 -0.000280592398586598 5.95438772223374e-05 -0.000327491480995645 -0.000234988191376458 0.000234772628243066
"262" -0.000240634438030205 5.40682120662543e-06 0.000158908617771037 -0.000287485650373144 -9.59873962661703e-05 -0.000332624579796016 -0.000563140993709816 0.000138368649063295 -0.00041478526109814 -0.000475838235528997 -0.000434502983939937 -0.000281953266606942 4.89806089251133e-05 -0.000339888144133699 -0.000249523114893586 0.000227504390310304
"263" -0.000229789819961977 1.32583996521998e-05 0.00017729891945578 -0.000297637444644829 -6.60354134998795e-05 -0.000339016081936853 -0.000559228291701207 0.000135309222596087 -0.000424329146296638 -0.000487911117841864 -0.000454759847344544 -0.000284799659230209 3.59229875351877e-05 -0.000352855687143309 -0.000265144296835808 0.000217152651860343
"264" -0.000221023296580472 1.89471377384591e-05 0.000190853069665217 -0.000308290623848089 -4.07003037150496e-05 -0.000344490936513298 -0.000554410397666863 0.000131943060711269 -0.000434538019612917 -0.000500352072594065 -0.00047538575616651 -0.000289169814878912 2.03479331383647e-05 -0.000366398650279554 -0.000281800853377309 0.000203654975276963
"265" -0.000214681698946965 2.22536093851272e-05 0.000199075808606891 -0.000319437411497583 -2.05489151823946e-05 -0.000348997341562101 -0.00054868849303578 0.000128256329404357 -0.000445360295278235 -0.000513069040118734 -0.000496212207007041 -0.000295097570532949 2.24218470587142e-06 -0.000380506835764921 -0.000299425462414704 0.000186960624726563
"266" -0.000211092850840122 2.29843432766891e-05 0.000201512371110523 -0.000331072651529004 -6.10451492631794e-06 -0.000352504284587172 -0.000542083114997578 0.000124224498148936 -0.000456743084345313 -0.000525985120298751 -0.000517076162334362 -0.000302602752163548 -1.83792614332237e-05 -0.000395184218032032 -0.000317958148251734 0.000167060193434464
"267" -0.000210562701524777 2.09584087602751e-05 0.000197767027782938 -0.000343188166865483 2.17080438658761e-06 -0.000354978390481458 -0.000534603158112737 0.000119831506001159 -0.000468624156002816 -0.000539006007379647 -0.000537804496503014 -0.000311690671886576 -4.14761486226138e-05 -0.000410410019805927 -0.000337311559220839 0.000143975054427527
"268" -0.00021336738597977 1.60151019047105e-05 0.000187497933519732 -0.000355765797982188 3.87570790357418e-06 -0.000356399222763969 -0.000526265440595487 0.000115066446538585 -0.000480933306737905 -0.000552037072918133 -0.000558226061994482 -0.000322356785511719 -6.69951006032536e-05 -0.000426182444536104 -0.000357411700568133 0.000117737594737681
"269" -0.000219753398160983 8.01991219573352e-06 0.000170432109408826 -0.000368785762949744 -1.31765704719328e-06 -0.000356750648118104 -0.000517089412091408 0.000109913877607459 -0.000493598081337522 -0.000564986744418133 -0.000578169291692691 -0.0003345752228723 -9.48504539861096e-05 -0.000442485192880328 -0.000378165669654645 8.84215027765171e-05
"270" -0.000229924279098675 -3.1296043243019e-06 0.000146374770237235 -0.000382219537157042 -1.36511869300997e-05 -0.000356021655015529 -0.00050708952743095 0.000104375467263671 -0.000506535544506001 -0.000577751960384195 -0.00059745962456947 -0.000348309111257548 -0.000124929152169026 -0.000459294105111336 -0.000399472146746648 5.61331811378919e-05
"271" -0.00024405387907917 -1.75192486614135e-05 0.000115196470244094 -0.000396044403604469 -3.33087682566905e-05 -0.000354217622434789 -0.000496289931815952 9.84436189711583e-05 -0.00051966575059676 -0.000590239880623781 -0.000615930851439853 -0.00036350327528005 -0.000157098690857676 -0.000476585776075772 -0.000421233760366524 2.10038953028508e-05
"272" -0.000262272367147407 -3.5200258356364e-05 7.68497738754325e-05 -0.000410223272298661 -6.03591417154562e-05 -0.000351343690795034 -0.000484705210791053 9.21257377933915e-05 -0.000532885466616635 -0.000602346438005585 -0.000633407058100254 -0.000380088747212546 -0.000191214485475328 -0.000494321443118334 -0.000443327286966347 -1.68188513990262e-05
"273" -0.000284660189244453 -5.61861860126051e-05 3.13707144213392e-05 -0.000424714378722951 -9.47970913862054e-05 -0.000347416934182033 -0.000472357295441466 8.54295460383825e-05 -0.000546092520147138 -0.000613970748545515 -0.000649720072942022 -0.000397966387840626 -0.000227071913903803 -0.000512451791585468 -0.000465638976246403 -5.7124737345648e-05
"274" -0.00031125175447093 -8.04690688158064e-05 -2.11266579044352e-05 -0.000439469290445677 -0.000136510001114431 -0.000342453224846676 -0.000459250806386917 7.83815639929634e-05 -0.000559169488586599 -0.00062498977427167 -0.000664697030078349 -0.000417029281197588 -0.00026447287130171 -0.000530907127079362 -0.000488015451294639 -9.97076852277954e-05
"275" -0.000342040580521437 -0.000108000842459151 -8.04528883733143e-05 -0.000454439020552292 -0.000185331162947007 -0.00033648373583579 -0.000445414882448019 7.09916988442344e-05 -0.000571999081530984 -0.000635309241625001 -0.000678177411918106 -0.000437146832758308 -0.000303177091139484 -0.000549623301615872 -0.000510331633103547 -0.00014431399480083
"276" -0.000376974024584662 -0.00013870738449178 -0.000146341612817833 -0.0004695733536677 -0.000240983797518059 -0.000329545999929742 -0.000430857560388188 6.32888397241062e-05 -0.000584455345099589 -0.000644824377787514 -0.000690002177312138 -0.000458178301287198 -0.000342943135288042 -0.000568512322127108 -0.000532428251681841 -0.000190685711505964
"277" -0.00041593204129955 -0.000172472245579112 -0.000218438415068964 -0.000484790735407079 -0.000303096133787739 -0.000321669893807664 -0.000415581039949559 5.53176919057592e-05 -0.000596389945277859 -0.00065340088381259 -0.000700002561141849 -0.000479947117167498 -0.000383475960994479 -0.000587457336806041 -0.000554138001889043 -0.000238510208637802
"278" -0.00045876974614385 -0.000209151091677575 -0.000296332073042982 -0.00050003500997314 -0.000371246742436913 -0.000312906740532857 -0.000399604122013677 4.71107425655167e-05 -0.000607661920921157 -0.000660941260809649 -0.000708027414379515 -0.000502267584714129 -0.000424474753702373 -0.000606352316949372 -0.000575296964930896 -0.000287472353493719
"279" -0.000505290346563158 -0.000248571625414555 -0.000379542902012435 -0.000515228232451733 -0.000444937146469148 -0.00030330647166757 -0.000382929797753288 3.87113527057993e-05 -0.00061811740680258 -0.000667324580284074 -0.000713929692819075 -0.000524938420513087 -0.000465624804236977 -0.000625057047455299 -0.000595718467521108 -0.000337233474699147
"280" -0.000555237533487987 -0.000290523257100332 -0.000467526843245125 -0.000530276585263829 -0.000523585878890299 -0.000292918659954883 -0.000365555539234619 3.01751710741513e-05 -0.000627589139892983 -0.000672425416698018 -0.000717555205161148 -0.000547725286976231 -0.00050656981444693 -0.00064342048282668 -0.000615211816296403 -0.000387423622649959
"281" -0.000608331805039821 -0.000334767784277235 -0.000559686863203384 -0.000545100980740766 -0.000606574470076312 -0.000281802041730484 -0.000347489599644029 2.15544407671908e-05 -0.000635911239304811 -0.000676132008227672 -0.000718766712050633 -0.000570392679886554 -0.000546961441190473 -0.000661272284370321 -0.000633579617142719 -0.000437668747165273
"282" -0.000664236206317687 -0.000381039154231026 -0.000655375335757611 -0.000559595908587014 -0.000693223097668441 -0.000270013580091187 -0.000328724566280136 1.29125027886909e-05 -0.000642913922168134 -0.000678324040145999 -0.000717433418718147 -0.000592685874751837 -0.000586429544343245 -0.000678438081470132 -0.000650622918689945 -0.000487580720680774
"283" -0.00072258588903061 -0.000429052042230829 -0.000753911797977059 -0.000573664383880383 -0.000782817545702079 -0.000257616334979032 -0.000309261890129043 4.30958421944189e-06 -0.000648416725148638 -0.000678876883439912 -0.000713426024911722 -0.000614333451669929 -0.000624587458081088 -0.000694726089329867 -0.000666131377571986 -0.000536755692274299
"284" -0.000782981706685749 -0.000478490074712872 -0.000854576116688158 -0.000587194985474578 -0.000874612269176745 -0.000244674251672713 -0.000289097753184254 -4.19069838762144e-06 -0.000652249457878696 -0.000677682288022885 -0.000706634929765194 -0.000635061106598936 -0.000661054287464781 -0.000709931364815721 -0.000679895679529833 -0.00058479318731112
"285" -0.000844987067583634 -0.000529019938573099 -0.000956625338845759 -0.000600072591409981 -0.000967825442763221 -0.000231251354756597 -0.000268222762457565 -1.25113950471601e-05 -0.000654227228282466 -0.00067461564573779 -0.000696948422183273 -0.000654576860068602 -0.000695431728331172 -0.000723841462454544 -0.000691701503777513 -0.000631277985953299
"286" -0.000908141981446384 -0.000580288244166539 -0.00105929176778907 -0.000612178723165082 -0.0010616845382444 -0.000217409094377749 -0.000246634517754282 -2.05949752679072e-05 -0.000654185881189825 -0.000669578859610621 -0.00068428144168201 -0.000672598930452304 -0.000727340192674168 -0.000736254047671843 -0.000701345959974348 -0.000675811260621344
"287" -0.000971966295669573 -0.000631930069721171 -0.00116180521255297 -0.00062339001656352 -0.00115538077174826 -0.000203214523330163 -0.00022432745160195 -2.83613591437816e-05 -0.000651954536501397 -0.000662460600432317 -0.000668553782386726 -0.000688833818119373 -0.000756394331707452 -0.000746940784674675 -0.000708622098160701 -0.00071799094375193
"288" -0.00103595217583525 -0.00068356607180781 -0.00126337955310138 -0.000633575610219248 -0.00124811281917031 -0.000188730420185138 -0.000201294942199394 -3.5739748611992e-05 -0.000647367711577324 -0.000653156168693441 -0.00064969702875259 -0.000702991529532296 -0.000782213699571876 -0.000755677358562777 -0.000713323185347102 -0.000757422243290464
"289" -0.00109958907908581 -0.000734809574832788 -0.00136324150531263 -0.000642611366417204 -0.00133910748630337 -0.000174018827317591 -0.000177538623020065 -4.26669742483543e-05 -0.000640282525228666 -0.000641587256350343 -0.000627674507786608 -0.000714795403445425 -0.000804451196224526 -0.000762267431901693 -0.000715269979045567 -0.000793734790206522
"290" -0.00116234494413715 -0.000785267608596072 -0.00146061886258459 -0.00065036192908211 -0.00142757759883223 -0.000159140950872874 -0.000153057525088895 -4.90717461324111e-05 -0.000630564954681387 -0.000627672681119101 -0.000602458874830864 -0.000723978726883073 -0.000822763980031664 -0.000766502000007679 -0.000714282193926614 -0.000826572963961359
"291" -0.0012236863635733 -0.000834547092577024 -0.00155475607861956 -0.00065669540641596 -0.00151277354859134 -0.000144150129736316 -0.000127852956385307 -5.48909294394495e-05 -0.000618096678008734 -0.000611348376332347 -0.000574047981296467 -0.000730286633999176 -0.000836844761493265 -0.000768190208584477 -0.000710201957754614 -0.000855607226754351
"292" -0.00128308099134465 -0.00088226041118295 -0.00164491888611177 -0.000661484285098467 -0.00159395988761889 -0.000129104342975779 -0.000101936263000901 -6.00623518390352e-05 -0.00060277467518143 -0.000592562175640539 -0.000542459990121956 -0.000733490114652406 -0.00084640902868202 -0.000767150782209121 -0.000702881104625778 -0.000880528988129194
"293" -0.00133999540209404 -0.000928017762423649 -0.00173039729991475 -0.000664599019627237 -0.00167043844540319 -0.000114055454568882 -7.53194378142256e-05 -6.45274948936758e-05 -0.000584525091928328 -0.000571280251170497 -0.000507740614396762 -0.000733379580720965 -0.000851209666753732 -0.000763223875296458 -0.000692200236251228 -0.000901068230747477
"294" -0.00139390373275808 -0.000971437278056243 -0.0018105068146182 -0.000665911069487493 -0.00174152359030839 -9.90474769645877e-05 -4.80129632133371e-05 -6.82290864715784e-05 -0.000563286472635008 -0.00054747632679025 -0.000469952075578373 -0.000729774748484787 -0.000851032035706213 -0.000756272981515249 -0.00067805350564817 -0.00091698206649741
"295" -0.00144429147076561 -0.00101215534318123 -0.00188459874084611 -0.000665300046829312 -0.00180659634201823 -8.41247762687525e-05 -2.00445202553508e-05 -7.11200919252325e-05 -0.000539032723284645 -0.000521156504382594 -0.000429195395916925 -0.000722520592779125 -0.000845703937615971 -0.000746187840035651 -0.000660368318773128 -0.000928065102257687
"296" -0.00149066180473126 -0.00104981620442681 -0.00195206900508839 -0.000662655404960079 -0.0018650638680733 -6.93286883786693e-05 8.55601276652111e-06 -7.31578746493105e-05 -0.000511768993496908 -0.00049234668720816 -0.000385595033435569 -0.000711514583194694 -0.000835110468234354 -0.000732885358169921 -0.000639103067221648 -0.00093416369014119
"297" -0.00153253674147339 -0.00108408745410401 -0.00201234696998063 -0.000657870876520464 -0.00191637555991015 -5.46910478388429e-05 3.77565770213417e-05 -7.43037014124562e-05 -0.000481515887634165 -0.000461085168525726 -0.000339301138756525 -0.000696674872401582 -0.000819169116124734 -0.000716305195415649 -0.000614230648385482 -0.000935155085299135
"298" -0.00156945124201151 -0.00111464767613041 -0.00206490766714536 -0.000650844151105823 -0.00196002606264683 -4.02380597226495e-05 6.75121669802342e-05 -7.45243215547316e-05 -0.000448331082712434 -0.000427436896169765 -0.000290494043847096 -0.000677960017551948 -0.000797844677260619 -0.000696424595725798 -0.000585768217964768 -0.000930956651575921
"299" -0.0016009828870943 -0.00114120509795945 -0.00210927930330471 -0.000641491633984328 -0.00199555772464618 -2.59955121428888e-05 9.77766391950515e-05 -7.37943528020196e-05 -0.000412302576948206 -0.000391484753328942 -0.000239380443580743 -0.000655373951115999 -0.000771171641648171 -0.000673244760703634 -0.000553748599585761 -0.000921542788911332
"300" -0.00162673273712222 -0.00116349009499135 -0.00214503628245732 -0.00062973999992091 -0.00202256706079205 -1.19853219269714e-05 0.000128490046606245 -7.20921588791675e-05 -0.000373549414484663 -0.000353344186351002 -0.000186198443653419 -0.000628968398754983 -0.000739212294413443 -0.000646814174612469 -0.000518252665406392 -0.000906919122503941
"301" -0.00164633442479452 -0.00118126323483936 -0.00217180824651265 -0.00061552664573748 -0.00204070340028419 1.78117904035336e-06 0.00015958552556115 -6.94147430358257e-05 -0.000332224875645005 -0.000313152882565603 -0.000131211790679785 -0.000598832039910356 -0.000702107353491607 -0.000617205585707337 -0.000479387215988698 -0.000887155601250951
"302" -0.00165945171058432 -0.0011943053922635 -0.00218927039902497 -0.00059880279831238 -0.00204965124638826 1.52981584053202e-05 0.000191000137343122 -6.574327739086e-05 -0.000288494853396766 -0.000271057030523388 -7.47021711543636e-05 -0.00056509080497004 -0.000660010363420874 -0.000584517003423919 -0.000437279789189809 -0.000862335622688546
"303" -0.00166579950722891 -0.00120243469793703 -0.00219717236826697 -0.000579538297277855 -0.00204917214045696 2.85587491526756e-05 0.000222649946445764 -6.1088220990486e-05 -0.000242572908438325 -0.000227239399024193 -1.69810180419987e-05 -0.000527920218040352 -0.000613166156581596 -0.000548888862806312 -0.000392099752737095 -0.000832614941222409
"304" -0.00166513318535129 -0.00120550101996223 -0.00219530241073579 -0.000557720554830681 -0.0020390712905751 4.15634042117944e-05 0.000254445439206918 -5.54577284975094e-05 -0.000194689425223143 -0.000181902291653482 4.16156358444762e-05 -0.000487541068259285 -0.000561843646472852 -0.000510493322108465 -0.000344047279342895 -0.000798175399524123
"305" -0.00165724516493533 -0.0012033882812077 -0.00218352345085062 -0.000533350957036159 -0.00201921273313627 5.43175492122469e-05 0.000286300255418915 -4.88688525731912e-05 -0.000145103098419377 -0.00013526365364623 0.000100742958647009 -0.000444206432020867 -0.000506363434518542 -0.000469524068823337 -0.000293348186247136 -0.000759243913872163
"306" -0.00164198487735082 -0.00119601045006639 -0.0021617543791619 -0.00050645140113971 -0.0019895196224247 6.68307129462333e-05 0.000318109174397035 -4.13457344905856e-05 -9.40897461320319e-05 -8.75603620434856e-05 0.00016003486519509 -0.000398204052567651 -0.000447090376839425 -0.000426207223077639 -0.000240246953740566 -0.000716081851861
"307" -0.00161923967665133 -0.00118331504058518 -0.00212996395595053 -0.000477057064870664 -0.00194995680099128 7.91179380533178e-05 0.000349777864967032 -3.291608662841e-05 -4.19423114976756e-05 -3.9041661917538e-05 0.000219118652566131 -0.000349859458095372 -0.000384419255917681 -0.000380782687987513 -0.000185017876713784 -0.000668980371589186
"308" -0.00158895660483104 -0.00116529329910741 -0.00208820802939042 -0.000445234412893306 -0.00190058873510531 9.11924829285181e-05 0.000381186626401916 -2.36287089222908e-05 1.10183031008866e-05 1.00177547671629e-05 0.000277605468300159 -0.000299527588648836 -0.000318798625871542 -0.00033352573452324 -0.000127963576066563 -0.000618276515595057
"309" -0.00155112901985218 -0.00114196613709003 -0.00203658160729228 -0.000411051804060193 -0.00184149751000876 0.000103079477012368 0.000412229493892812 -1.35221423495761e-05 6.44716490534833e-05 5.93447128093119e-05 0.000335114696879501 -0.000247592610458917 -0.000250697207436842 -0.000284717911585261 -6.93927342691285e-05 -0.000564320213633857
"310" -0.00150580683328663 -0.00111339271291976 -0.00197525749561017 -0.000374611659142855 -0.00177285755042823 0.000114794689645247 0.000442784904259989 -2.65443291749953e-06 0.000118081377351703 0.00010865501060361 0.000391257816747375 -0.000194457848242594 -0.0001806032373596 -0.000234662029040436 -9.64013267020333e-06 -0.000507489704394116
"311" -0.00145309343175618 -0.00107967129062241 -0.00190446944659339 -0.000336030231164363 -0.00169489105714224 0.000126366052249806 0.000472735497152137 8.9140800094438e-06 0.000171507364851955 0.000157649808987013 0.000445650125444473 -0.000140550654109579 -0.000109054790963612 -0.000183667134754392 5.09534801490281e-05 -0.000448198165156554
"312" -0.00139314799778337 -0.00104093631243937 -0.00182452225756235 -0.000295442315507869 -0.0016079036019353 0.000137814963331727 0.000501954895117076 2.1107799998162e-05 0.000224404207887104 0.000206035050563506 0.000497918048001356 -8.63078000355321e-05 -3.65859340793286e-05 -0.000132059777015115 0.000112029445479674 -0.000386865836412108
"313" -0.00132617693887719 -0.000997348947725093 -0.00173577076645547 -0.000252993015911519 -0.0015122427639171 0.000149174433704432 0.000530324801670475 3.38541799037895e-05 0.000276433775189022 0.000253519525427622 0.000547705351056773 -3.21766477977811e-05 3.62516985982751e-05 -8.01640634240011e-05 0.00017323010093727 -0.000323930578330538
"314" -0.00125244931251738 -0.000949111628957274 -0.00163863478600123 -0.000208853962065904 -0.00140833661912882 0.000160465552336413 0.000557721291675275 4.7071422892063e-05 0.0003272641906986 0.000299812180962275 0.000594672445670796 2.13961667710542e-05 0.000108905471607801 -2.83037612279239e-05 0.000234189352062439 -0.000259827395155374
"315" -0.00117228711558298 -0.000896467598759988 -0.0015336112715063 -0.000163213908369597 -0.00129667287597325 0.000171716035091864 0.00058402282130365 6.06654676555474e-05 0.000376564271162739 0.000344627332167343 0.000638492825505834 7.39477933193142e-05 0.000180794956227441 2.31905538966036e-05 0.000294547106980259 -0.000195031470026329
"316" -0.00108605704512181 -0.000839681938226638 -0.00142124373877223 -0.000116264330657435 -0.00117780958167522 0.000182952227656076 0.000609110648333437 7.45441830684723e-05 0.000424025549153345 0.000387694682342851 0.000678875686634124 0.000125039682876706 0.000251369825787188 7.40056696217329e-05 0.000353939226022503 -0.000129992023718312
"317" -0.000994184145336111 -0.000779054755193979 -0.00130214108904518 -6.82217669633098e-05 -0.00105236578220283 0.000194195570832799 0.000632869831948958 8.86040784529518e-05 0.000469350919243237 0.000428751160859335 0.000715556163042535 0.000174234593510407 0.000320077946626037 0.000123829960755048 0.000412015840539626 -6.51718230757496e-05
"318" -0.000897129701738181 -0.000714911870730158 -0.00117695155016523 -1.92963664822865e-05 -0.000921005833765244 0.000205475234949179 0.000655192704968659 0.000102747120071593 0.000512270120514085 0.000467568472248658 0.000748304977081489 0.0002211165718054 0.000386384978549071 0.000172362940295666 0.000468440245461776 -1.02248618793656e-06
"319" -0.000795419942220122 -0.000647618869938541 -0.00104640209578692 3.02655761339513e-05 -0.00078449274132271 0.000216804458079705 0.00067596880042818 0.000116852952571279 0.000552521967231089 0.000503905923166368 0.000776919218088378 0.000265276027802422 0.000449760116139125 0.000219313941220237 0.000522870486488166 6.19941814198457e-05
"320" -0.000689604634974066 -0.000577553614482967 -0.000911247580818126 8.02360117725385e-05 -0.000643605942884012 0.000228201553249845 0.00069510508537885 0.000130818555701942 0.000589884424562409 0.00053757339220957 0.000801243331023737 0.000306344386181477 0.00050971471786911 0.000264428115464969 0.000575008624013657 0.000123449054326158
"321" -0.000580279242030676 -0.000505122179353224 -0.000772291019997171 0.000130368561993883 -0.00049918783769922 0.000239681542406647 0.000712507654799307 0.000144529898838686 0.000624158913989183 0.000568395925268802 0.000821156022538031 0.000343972585684412 0.000565790599637474 0.000307443347763964 0.000624555174000011 0.000182924996717438
"322" -0.000468080239642523 -0.000430746439245857 -0.000630385270439829 0.000180410057836828 -0.000352147612320813 0.000251246980445358 0.000728095948207314 0.000157867433492335 0.000655165864742339 0.000596214046362428 0.00083657329419309 0.000377839373765381 0.000617539177473931 0.00034814073726655 0.000671240468529076 0.000240000734219492
"323" -0.000353648987691065 -0.000354866074699305 -0.000486386611299133 0.000230127000428342 -0.000203380992106768 0.000262911354041643 0.00074180824845503 0.000170731743712811 0.000682789748512075 0.000620921621552925 0.000847464760430199 0.000407677823393618 0.000664590573691424 0.000386331913946537 0.000714837240439972 0.000294315339857464
"324" -0.000237677886556254 -0.000277935079725895 -0.000341204749890913 0.000279262321382164 -5.38785399340624e-05 0.000274668499580438 0.000753570655151825 0.000182998594414108 0.00070690652204359 0.000642414917335154 0.000853829155299632 0.000433242809707535 0.000706581592808853 0.000421825369690107 0.000755111010874423 0.000345499286591245
"325" -0.000120867891143547 -0.000200419498568734 -0.000195755815634415 0.000327571073872043 9.53846714571656e-05 0.000286509581629456 0.000763342085634386 0.000194563664939429 0.000727452517798244 0.000660631000410409 0.000855704162441007 0.000454329614024734 0.000743210958694712 0.000454477018299681 0.000791885080751518 0.000393225111151107
"326" -3.91886364466801e-06 -0.000122777781592429 -5.09536952735291e-05 0.000374823983446208 0.000243419670565884 0.000298428920874407 0.000771086822384215 0.000205324994843153 0.00074438990577237 0.000675541774360029 0.00085317967598079 0.000470790069134653 0.000774231724248037 0.000484172138676778 0.000825002248610092 0.000437203672723299
"327" 0.000112448715792239 -4.54873785116541e-05 9.226772979581e-05 0.000420785046785763 0.000389223737096976 0.000310404845997556 0.000776781080018143 0.000215183853798372 0.000757720766567936 0.000687142422073991 0.000846374620237147 0.00048251326924687 0.000799440257420326 0.000510820980032389 0.000854340256260458 0.000477174002098988
"328" 0.000227528434989073 3.09918732990288e-05 0.000233007876220437 0.00046524034626341 0.000531808026987456 0.000322419814585969 0.000780415415476262 0.000224052125808646 0.000767477960283886 0.000695465368815448 0.00083544683840597 0.000489433624284052 0.00081869123165437 0.000534366165363023 0.000879816607736078 0.000512912113454814
"329" 0.000340609934148209 0.000106195902915999 0.00037036465169198 0.00050797246773898 0.000670198645806949 0.000334438908160701 0.000781988815241593 0.000231840091116524 0.000773720267370014 0.000700556935084891 0.00082058425773033 0.000491532064252566 0.000831891408123322 0.00055477602645815 0.000901369902966462 0.000544234267197593
"330" 0.000451010204976351 0.000179683346597925 0.000503477403573614 0.000548792666387976 0.000803457641413638 0.000346431161631525 0.000781524790887379 0.000238478520898672 0.000776551197977653 0.000702509796526986 0.000802013602094351 0.000488834749146731 0.000839002429781544 0.00057205836156095 0.000918983132370542 0.000570993441760241
"331" 0.000558066534507925 0.000251020113035553 0.00063152335642123 0.000587519359169517 0.000930698729267035 0.000358356861765431 0.00077905096083293 0.000243900049343744 0.00077609507297818 0.000701430111325108 0.000779982283213953 0.000481414099647414 0.000840054938313437 0.000586248112522563 0.000932673661434188 0.000593102133945595
"332" 0.000661144893589181 0.000319792733810515 0.000753728463316123 0.000623985642107047 0.00105108011105232 0.000370170231797181 0.000774613589555412 0.000248052446182525 0.00077251331794255 0.000697456440886382 0.000754770018174399 0.000469383599893708 0.000835107622579184 0.000597405848634317 0.000942489805018898 0.000610486244933178
"333" 0.000759644243935778 0.000385612701489738 0.000869368639031352 0.000658040342117208 0.00116382372286858 0.000381817757821872 0.000768262459298323 0.000250890049902443 0.000765976644808496 0.000690733446366177 0.000726662552860375 0.000452892243991293 0.000824295192556247 0.00060561360588459 0.000948503306962295 0.000623138989310389
"334" 0.000853014470364179 0.000448123371386535 0.000977800906110424 0.000689557101452477 0.00126824487988047 0.000393248103133322 0.00076007511512666 0.000252382953824853 0.000756694383131331 0.000681443762921774 0.000695981438111435 0.000432135456171677 0.000807790990756899 0.000610995360237052 0.00095083060992474 0.000631082924277615
"335" 0.000940738750177229 0.000506981206542591 0.00107843237843251 0.0007184164229654 0.00136372600303822 0.000404395823594932 0.000750120989584634 0.00025250792754485 0.000744886269960146 0.000669766722932334 0.000663043889723553 0.00040733489016643 0.000785807903271001 0.000613678600054378 0.000949600672246969 0.000634378001750572
"336" 0.0010223788973736 0.000561907008402192 0.00117078938840608 0.000744539817033183 0.00144977978312328 0.000415205438515192 0.000738508092370367 0.000251269462494219 0.000730807082656629 0.000655930706460851 0.000628201422090866 0.000378763086721054 0.000758630778318742 0.000613850645693334 0.000945002892238227 0.000633141561914044
"337" 0.00109752513822608 0.000612624713877174 0.00125444408432318 0.000767836327588798 0.00152597879634065 0.000425604745429513 0.000725321086811202 0.000248660535077938 0.000714694352203162 0.000640130142987192 0.000591785791876713 0.000346690202314335 0.000726548731724894 0.000611665807947925 0.000937200871623393 0.000627507112915185
"338" 0.00116585085433395 0.000658917241379523 0.00132908009888982 0.000788260458796783 0.00159203202477119 0.000435524391252761 0.000710676677259913 0.000244704250269662 0.000696825795527276 0.000622598428392034 0.000554146641234606 0.000311439163119784 0.000689906930408627 0.000607339534435186 0.000926418971334961 0.000617653728076551
"339" 0.00122708245751357 0.000700607042062983 0.00139447584269065 0.00080577782104271 0.00164774612392735 0.000444896345682354 0.000694692064787139 0.000239427111983537 0.000677467765054495 0.000603565408252814 0.000515629927569701 0.000273338813387403 0.000649080278737764 0.00060107190623403 0.00091288182533572 0.000603789721113635
"340" 0.00128101106675742 0.000737546536241152 0.00145049070563659 0.000820361710996388 0.00169304666004676 0.000453643483181467 0.000677485500144659 0.000232873133191818 0.000656903606334974 0.0005832619567165 0.000476578127634664 0.000232735418964691 0.00060445823364597 0.00059309787888268 0.000896838452982747 0.000586153971301062
"341" 0.00132750384122671 0.000769643956653542 0.00149709338749923 0.000832024078947461 0.00172796585425182 0.000461697113425708 0.00065918608770515 0.00022509003457603 0.000635404314685386 0.000561920506144385 0.000437322331063321 0.000189992575755931 0.000556466716993751 0.000583638705859424 0.000878542657572382 0.000565009036056869
"342" 0.00136648430995095 0.000796841535895798 0.00153433017335419 0.000840776945320985 0.00175263939476862 0.000468981980333801 0.00063992499737729 0.000216134636311228 0.000613246403890842 0.000539772943731688 0.000398190284269852 0.000145479413614164 0.000505532115896646 0.000572931115209734 0.000858259522373592 0.000540634125866655
"343" 0.00139795072194233 0.000819128619279802 0.00156234630358441 0.000846662025869681 0.00176730938063342 0.000475428039564713 0.000619835519752761 0.000206080450768441 0.000590699812580972 0.000517043077594566 0.000359493089873627 9.9578003095756e-05 0.000452107311908737 0.000561214201478874 0.000836262730859113 0.000513339493976733
"344" 0.00142195042425269 0.000836525755181692 0.00158135990541555 0.000849720550054844 0.00177230751934568 0.000480960615327647 0.00059904456551629 0.000194995896727196 0.000568018886832212 0.000493940422502502 0.000321525444990457 5.26515742894276e-05 0.000396633093126803 0.000548712984168119 0.000812820882667866 0.000483428572195418
