"V1" "V2" "V4" "V5" "V7" "V8" "V10" "V11" "V13" "V14" "V15" "V17" "V18" "V20" "V21" "V23"
"1" -0.00033990009354621 0.000492606161463818 -0.000536872373450403 0.000106495256576073 -0.000104794705166062 -0.000120390333697788 0.000680081234619362 -2.60744137296435e-05 -0.000648769472725729 0.000339299764846611 0.000402833591854602 0.000636045738658002 2.85690162983082e-05 -3.26724315608945e-05 -0.000146341944959786 0.000180482302031567
"2" -0.000336146412548053 0.000511957274633534 -0.00052839530198865 0.000119173032268028 -9.74681410500961e-05 -9.60391256718337e-05 0.000677020262575649 -1.01752523604289e-05 -0.000664621881401868 0.000354949213065315 0.000420969553258629 0.000650816497826203 3.31740481426302e-05 -3.76902149161641e-05 -0.000143803050489826 0.000185237205654464
"3" -0.00033423426835842 0.000528987960547303 -0.000521776228544108 0.000129636503366567 -9.12459256889377e-05 -7.20269021703283e-05 0.000672323266028645 5.47108184020797e-06 -0.000682982512532193 0.000368769166364306 0.000437726977210855 0.000664088593542163 3.61775956707073e-05 -4.44706106498639e-05 -0.000142241691453104 0.000189163179121299
"4" -0.000334049202504582 0.000543629409436362 -0.000517068937170853 0.00013788750213117 -8.61039380237855e-05 -4.84362567483517e-05 0.000666066319484706 2.07834922661404e-05 -0.000703761616809219 0.000380744521021674 0.000453022167029693 0.000675827518621906 3.76490677078981e-05 -5.30757256978868e-05 -0.00014160256293551 0.000192323925044118
"5" -0.000335449324790148 0.000555835272483791 -0.000514301099280263 0.000143952118370885 -8.20119677693385e-05 -2.53516133676679e-05 0.000658343673497936 3.56787460963614e-05 -0.000726830460187004 0.00039088119541074 0.000466786053288943 0.000686010462202352 3.76815671724459e-05 -6.35456836361786e-05 -0.00014181359409 0.000194793606010835
"6" -0.000338275444550845 0.000565591989674214 -0.000513486961566728 0.000147889202762582 -7.89227578065981e-05 -2.8474392852881e-06 0.000649249473195843 5.00732913170731e-05 -0.000752036694758318 0.000399198456907562 0.000478949551470806 0.000694620983726391 3.6373912172202e-05 -7.59067348598502e-05 -0.000142801356268532 0.000196656813253336
"7" -0.000342342940579836 0.00057289544438409 -0.000514608842762485 0.00014978191665175 -7.67846195873508e-05 1.90070694879608e-05 0.000638893066385935 6.38966237687318e-05 -0.000779181702162451 0.00040574488125591 0.00048946582959998 0.000701666117942534 3.38505180149036e-05 -9.0160586564905e-05 -0.000144470298376091 0.000198002994371581
"8" -0.000347440738483039 0.000577778666890784 -0.000517623607725319 0.000149742168176843 -7.55285803478782e-05 4.0151904794882e-05 0.000627394997655268 7.70720845273278e-05 -0.00080802499812706 0.000410587591480478 0.000498292437060102 0.000707151822675215 3.02509040027618e-05 -0.000106277571712775 -0.000146726175822369 0.00019893223699922
"9" -0.000353338747462309 0.000580290929129268 -0.000522470271760898 0.000147910770838304 -7.50756048276097e-05 6.0530325141268e-05 0.000614875635911057 8.95277115402249e-05 -0.000838291945318837 0.00041381389299183 0.000505398451203757 0.000711101429177437 2.57268359259242e-05 -0.000124210092221574 -0.000149459943520488 0.000199554592820269
"10" -0.000359799137581648 0.000580506007457715 -0.000529059921285286 0.000144451211717073 -7.53446793508464e-05 8.0103060673e-05 0.000601466266827636 0.000101198708542044 -0.000869679508305463 0.000415531682616226 0.000510764915550278 0.0007135517704173 2.04385834830215e-05 -0.000143875493788322 -0.000152554988848716 0.000199975542967502
"11" -0.000366558221512291 0.000578522189310505 -0.000537277993727687 0.000139553021992466 -7.62430354619037e-05 9.88301345052984e-05 0.000587296802300827 0.00011202091480667 -0.000901831542049323 0.000415871279358234 0.000514389937392909 0.000714544804779392 1.45693444918202e-05 -0.000165167740697883 -0.000155895197499749 0.000200314717763531
"12" -0.000373342172872113 0.000574456849215055 -0.000546986876692724 0.000133428220289951 -7.76677243562657e-05 0.000116689574176779 0.000572502814368126 0.000121942558373266 -0.000934375254381325 0.000414973137715244 0.00051628137479742 0.000714136774316823 8.2983499831725e-06 -0.000187951503752206 -0.000159352957564072 0.000200688788171708
"13" -0.000379878347214768 0.000568447128784247 -0.000558030532286676 0.000126310810367768 -7.95179574063145e-05 0.000133663963811239 0.00055722335739504 0.000130907869403064 -0.000966902028333684 0.000412999543262616 0.000516451882370311 0.000712392997999535 1.8224569614564e-06 -0.000212063166724986 -0.000162800258330165 0.000201221472453695
"14" -0.000385867697132947 0.000560653585514498 -0.000570226586249359 0.000118451343576463 -8.16804861199639e-05 0.000149750655353765 0.000541590701355231 0.000138880786610723 -0.000998968072554919 0.000410134617464336 0.000514942172466314 0.000709381947817355 -4.65728481413889e-06 -0.000237310305814037 -0.000166108041726387 0.00020203144095325
"15" -0.000391025224128825 0.000551249283853656 -0.000583375504181016 0.000110119057449036 -8.40459923931372e-05 0.000164955338510391 0.000525744311799918 0.000145817659644189 -0.00103011649705529 0.00040656270650096 0.000511793281175152 0.000705189981962582 -1.09409298959585e-05 -0.000263476368705422 -0.000169146564563981 0.000203240243853405
"16" -0.000395059734695621 0.00054042140837843 -0.000597261338045741 0.000101596319316482 -8.64985045699729e-05 0.000179294560001632 0.000509812334585315 0.000151690653080919 -0.0010598790048869 0.000402484785683127 0.000507059823843354 0.000699901494131561 -1.68215600139573e-05 -0.000290325293516116 -0.000171785493678245 0.000204967843968298
"17" -0.000397675275299207 0.000528375057814781 -0.000611641339717649 9.31727607628202e-05 -8.89217726058042e-05 0.000192790853169924 0.00049392236563075 0.000156477618433212 -0.0010877556724187 0.000398116098965368 0.000500816435036647 0.000693610598010554 -2.20889754142347e-05 -0.000317589065797662 -0.000173902277828462 0.000207332451556171
"18" -0.000398594456661082 0.000515322650182056 -0.000626274669188564 8.5153382848049e-05 -9.12059839508256e-05 0.000205484396403149 0.000478193819385249 0.000160162526593602 -0.00111325659172135 0.000393669731404511 0.000493141554334323 0.000686413728688404 -2.65475692007241e-05 -0.000344990698885946 -0.000175374733694392 0.000210441704264858
"19" -0.000397533819913102 0.000501487099469437 -0.000640893593093679 7.78400856910297e-05 -9.32353895840482e-05 0.000217418555989029 0.000462744890917273 0.00016274337884338 -0.00113588636486856 0.000389371525052111 0.000484125837038665 0.000678414520121396 -2.99863182226382e-05 -0.000372238471135911 -0.000176086345107877 0.000214406665759136
"20" -0.000394226604415538 0.00048709263734027 -0.000655225089375106 7.15438851741234e-05 -9.49079120923618e-05 0.000228648369017237 0.000447678020466044 0.000164211093187129 -0.0011551538444399 0.000385443536206895 0.000473876655993521 0.000669712950180085 -3.22154280574528e-05 -0.000399027981128853 -0.000175929275220303 0.000219327064832423
"21" -0.000388417699445118 0.0004723751293631 -0.000668992852334267 6.65713680091563e-05 -9.61168668517621e-05 0.000239235238036875 0.000433085828354942 0.000164582550259468 -0.00117059101975162 0.000382109041496808 0.000462504654448015 0.000660415644620444 -3.30464305816431e-05 -0.000425047870946654 -0.000174803798769783 0.000225296468250922
"22" -0.000379871934345025 0.000457566176185737 -0.000681908600864172 6.32272533398523e-05 -9.67683431912065e-05 0.000249247303030433 0.000419062282887719 0.000163867131569543 -0.00118173337373036 0.000379590296954811 0.000450133539286268 0.000650626450115136 -3.22942705702902e-05 -0.000449986260633327 -0.000172624212317494 0.000232397918376584
"23" -0.000368360856839123 0.000442899002213879 -0.00069368116546632 6.18100352756738e-05 -9.67714099949518e-05 0.000258762905641743 0.000405679901611928 0.000162088851690589 -0.00118815949885162 0.000378100748473352 0.000436890869191141 0.00064044800662736 -2.97966355334389e-05 -0.00047353154831612 -0.000169307242199615 0.000240703655339128
"24" -0.000353685767569708 0.000428603759059066 -0.000704023431392054 6.26026677661985e-05 -9.60457305739336e-05 0.000267857665605889 0.000393001710962036 0.000159280194506241 -0.0011894709456734 0.000377852092075426 0.000422912567580087 0.000629980615139315 -2.53922132629144e-05 -0.000495389225320424 -0.000164790483112555 0.0002502833140814
"25" -0.000335655935476898 0.000414906232032746 -0.000712647841563973 6.58837877090295e-05 -9.45223379858089e-05 0.000276619073949342 0.000381080797839273 0.000155474144679345 -0.00118530205320622 0.00037904282787703 0.000408343061217993 0.000619322061857486 -1.89429483960932e-05 -0.000515258742776794 -0.000159014643706821 0.000261182812703723
"26" -0.000314120501774558 0.000402020906256108 -0.000719265332883781 7.19109605136606e-05 -9.2138373246966e-05 0.000285135394117686 0.0003699558586551 0.000150713078508847 -0.00117535565292257 0.000381858849884436 0.00039332229609382 0.000608561645317007 -1.03228553451691e-05 -0.000532872607111078 -0.000151942276283175 0.000273443351869085
"27" -0.000288942431154545 0.000390156658137052 -0.000723604464729583 8.09242624294636e-05 -8.88440466107943e-05 0.000293493049895 0.000359651156970861 0.000145046900898568 -0.00115935272374867 0.0003864739680519 0.000378002555467347 0.000597786191889469 5.74857244607395e-07 -0.000547970142409176 -0.000143546870549076 0.000287089603343641
"28" -0.000260007947256232 0.000379509793921224 -0.000725398017780929 9.31448703635203e-05 -8.45984917572211e-05 0.000301783988896678 0.000350184191328528 0.000138525943881853 -0.0011370840516168 0.000393042292340629 0.000362524762767601 0.000587077382216595 1.38349462060926e-05 -0.000560321178140219 -0.000133814436086476 0.000302129120379694
"29" -0.000227236246202914 0.000370263068610473 -0.000724385569543108 0.00010876664474614 -7.93786585646419e-05 0.000310096771232029 0.000341552564240232 0.000131207450437195 -0.00110838631789936 0.000401704051664682 0.000347035683686642 0.00057650261388467 2.95306474198955e-05 -0.000569712946952657 -0.000122751295354145 0.000318559035585043
"30" -0.000190574930339898 0.000362582168858624 -0.00072032937132884 0.000127960635143857 -7.31641521622463e-05 0.000318518672309127 0.00033374464148693 0.000123155246333192 -0.00107316428904596 0.000412578984176166 0.000331675310234532 0.000566125767339622 4.76973045997406e-05 -0.00057596835047123 -0.000110369754540431 0.000336359458238792
"31" -0.000149994934522886 0.0003566229120064 -0.000712998872105703 0.000150868176195103 -6.59581446992981e-05 0.000327131905823068 0.000326732098806074 0.000114429720562787 -0.00103136583708545 0.000425760486244602 0.000316581702367533 0.000556001863162032 6.83574399631091e-05 -0.000578932702388016 -9.67078167437919e-05 0.000355486436625049
"32" -0.000105495867893179 0.000352516395208336 -0.000702185648007607 0.00017759561965393 -5.77671563323728e-05 0.000336017694436223 0.000320479969974007 0.000105101579941147 -0.000983000501869867 0.000441330842523563 0.000301878669651191 0.00054617657059732 9.1505160759458e-05 -0.000578482990651045 -8.18022106280625e-05 0.000375889760999387
"33" -5.71178964981878e-05 0.000350376652530465 -0.000687709091239591 0.000208223076449347 -4.86126225079497e-05 0.000345253840756155 0.000314936427447211 9.52350663283799e-05 -0.000928135813316843 0.000459340758702763 0.000287686689715096 0.000536677666108265 0.000117106324745969 -0.00057453246931825 -6.57248039032685e-05 0.000397493143051649
"34" -4.91599632608363e-06 0.000350300852582076 -0.000669396944818377 0.000242789394051442 -3.85321866937849e-05 0.000354903920543921 0.000310038326145425 8.48996384216553e-05 -0.000866899577237614 0.000479816194907473 0.000274114173793546 0.000527532887651684 0.000145102596634018 -0.0005670178679615 -4.85428099044432e-05 0.00042020970812884
"35" 5.10158024251273e-05 0.000352358639011872 -0.00064710934647426 0.000281301382293407 -2.75668914706136e-05 0.000365032515690885 0.000305721447762615 7.41694763082121e-05 -0.000799464924134803 0.000502761837615908 0.000261255291148129 0.000518750243269026 0.0001754066614704 -0.000555912503218431 -3.0343303994402e-05 0.000443933268690473
"36" 0.000110551909115786 0.000356604983399576 -0.000620730097678519 0.000323721689511531 -1.57795733745105e-05 0.000375692859199769 0.000301895952719113 6.31063491965505e-05 -0.00072605441186923 0.000528155270242524 0.000249189152478139 0.000510335385861084 0.00020790347889271 -0.000541214152935788 -1.12284229068981e-05 0.000468537055554654
"37" 0.000173534290308869 0.000363068604337767 -0.000590171268477394 0.000369980140377025 -3.23909248269348e-06 0.00038692689489769 0.000298474731903993 5.17837573178824e-05 -0.000646948956227782 0.000555946361839679 0.000237984185090532 0.000502272730512385 0.000242450065763438 -0.000522957569503023 8.68842906874113e-06 0.000493880406080163
"38" 0.000239794070429857 0.000371754723895913 -0.000555369486123074 0.000419959717474657 9.97974312175662e-06 0.000398767435431382 0.000295365052701454 4.02621013551288e-05 -0.000562452667867968 0.000586064622598377 0.000227688628903529 0.000494545553498045 0.000278875958029089 -0.000501194502327667 2.92921777475903e-05 0.000519809429256824
"39" 0.000309108770010202 0.000382650981702735 -0.000516299237220321 0.000473506801075062 2.3785214504673e-05 0.000411240637758497 0.000292460327835269 2.86060609929078e-05 -0.000472931275069032 0.00061840408446591 0.000218336927778813 0.000487119257915859 0.000316983294478562 -0.000476009920610291 5.04468813008298e-05 0.000546149579174274
"40" 0.000381246910163745 0.000395714831634458 -0.000472955137864513 0.000530420133821675 3.80784564332666e-05 0.000424357826998748 0.000289653885602263 1.68768978496816e-05 -0.000378766623298176 0.000652841937773438 0.000209943712912651 0.000479951647115541 0.000356548678496998 -0.000447517020866278 7.20141373185261e-05 0.000572721356238706
"41" 0.000455938175106156 0.0004108877155767 -0.000425371310910786 0.000590463634204898 5.27580986655579e-05 0.000438119454075166 0.000286833988315677 5.12683484156457e-06 -0.000280388294831862 0.000689227153534682 0.000202510603901677 0.000472991010549677 0.000397325104079121 -0.000415843520642242 9.38445968779663e-05 0.000599325176207212
"42" 0.000532887753321886 0.000428086719222884 -0.000373609711532114 0.000653351621334688 6.77081983898396e-05 0.000452512364335869 0.000283887231707004 -6.59191142546521e-06 -0.000178231037177153 0.000727382721738885 0.000196017059382074 0.000466174394083823 0.000439040234521551 -0.000381138185983006 0.000115786496868461 0.000625753243016892
"43" 0.00061178531714895 0.000447203651541221 -0.000317769387768817 0.000718764018578409 8.28092898825702e-05 0.000467511186774508 0.000280699770083239 -1.82310248452704e-05 -7.277431456428e-05 0.000767112236073918 0.000190427409069284 0.000459434006417999 0.000481403215471719 -0.000343570374409144 0.000137682419890244 0.00065178803584897
"44" 0.000692290827660302 0.000468114560871135 -0.000257975369019467 0.000786338638012713 9.79404846423253e-05 0.000483081936407059 0.000277159829816966 -2.97537120394679e-05 3.54974820063892e-05 0.000808191197838704 0.000185693118212409 0.000452691068952377 0.000524105328966987 -0.000303333268603466 0.000159369555457497 0.000677210992723965
"45" 0.000774046886064689 0.000490674155928207 -0.000194394836598665 0.000855676246977994 0.000112974934082921 0.000499170093703726 0.000273158466034408 -4.11215439625672e-05 0.000146085075746049 0.000850381027121393 0.00018174471465572 0.000445861851011542 0.000566818358164812 -0.000260618704148409 0.000180685443620557 0.00070179520242398
"46" 0.000856678151327158 0.000514719002373966 -0.000127218265554709 0.000926340241649208 0.000127778445774411 0.000515714150396313 0.00026859159279162 -5.23078925905705e-05 0.000258473340612107 0.000893420199224847 0.000178504935886843 0.00043885439582093 0.000609206462550889 -0.000215647149133687 0.000201466786878896 0.000725306754492704
"47" 0.000939792329219546 0.000540065658609487 -5.66713349723046e-05 0.000997866102467392 0.000142227481910861 0.000532636986454544 0.000263353613996656 -6.32901108972399e-05 0.000372152272389095 0.000937030514954203 0.000175879008334072 0.000431577266900708 0.000650922337830972 -0.000168636838503373 0.00022154948641792 0.000747518973946739
"48" 0.00102299074241957 0.000566519847903902 1.69889583844816e-05 0.00106975493995445 0.000156188820002694 0.00054984831541498 0.00025735750720084 -7.40528878097386e-05 0.000486589000225765 0.000980917830515251 0.000173765000933132 0.000423934680195671 0.000691615715280518 -0.000119834921977614 0.000240771766119688 0.00076820742518559
"49" 0.0011058543434947 0.00059387063569394 9.34680258295977e-05 0.00114148937261085 0.000169530722544311 0.00056724694292311 0.000250517006396059 -8.45821816257271e-05 0.000601263946925515 0.00102478000650067 0.000172047573171844 0.000415823574085006 0.000730930353407802 -6.947207765919e-05 0.00025897753262837 0.000787148342621857
"50" 0.0011879696967305 0.000621894008624524 0.000172458392136027 0.00121252552639513 0.00018213124832 0.000584717187837279 0.000242757234007106 -9.48806866818005e-05 0.000715662860289229 0.0010682995615158 0.000170609754109889 0.000407146816895677 0.000768519837138914 -1.78031794525077e-05 0.000276013782634325 0.000804133793915189
"51" 0.00126891361175522 0.000650359749676442 0.000253610143512777 0.00128231148686632 0.000193867709382393 0.000602134976116452 0.000234018392304252 -0.000104948931299471 0.000829256772013516 0.00111115441966908 0.000169324652833812 0.000397807394006833 0.000804037710613528 3.49175063925991e-05 0.000291737558417055 0.000818958825520634
"52" 0.00134826798812739 0.000679026208164346 0.00033655516837156 0.00135028196855458 0.000204628873703445 0.000619360381335599 0.000224245167341852 -0.000114795849892306 0.000941555495021519 0.00115301854458271 0.000168060928170485 0.000387708351385095 0.000837152982650492 8.84329285789774e-05 0.000306012124189301 0.00083143685561395
"53" 0.00142562186391918 0.000707653259246892 0.000420903355655035 0.00141586671410564 0.00021429764598079 0.000636250956963022 0.000213399379762432 -0.000124439855907338 0.00105204609872773 0.00119356224748887 0.000166693782527349 0.000376759605235659 0.000867550932518754 0.000142474927556567 0.000318710234158765 0.000841395939765482
"54" 0.00150056734015019 0.000735990496278299 0.000506243096748517 0.00147850661439842 0.000222780047867468 0.000652649728407443 0.000201459835993535 -0.000133898884904053 0.00116024493377996 0.00123245994106952 0.000165090271273227 0.00036487335386293 0.000894930671920691 0.000196786738750099 0.000329712362822686 0.000848680941257352
"55" 0.00157271205271026 0.00076379300132345 0.000592145421718938 0.00153764669585282 0.000229984733999999 0.000668393339489165 0.000188415199097595 -0.00014320352400545 0.00126568036223899 0.00126938986500457 0.000163127565925281 0.000351970100712707 0.000919019798191185 0.0002510997801038 0.000338916532219032 0.000853161600864401
"56" 0.00164168334856712 0.000790815282747784 0.000678165306520367 0.00159275048150546 0.000235831990049898 0.00068331515564659 0.000174267212426857 -0.000152378969080218 0.00136789546178435 0.00130403952922031 0.00016068002572218 0.000337979023786005 0.000939572920091272 0.000305154137186401 0.000346230882030008 0.000854720264076988
"57" 0.00170712605364764 0.000816819086708963 0.000763845888820537 0.00164330943084772 0.000240248560348059 0.000697236846234633 0.000159037431358139 -0.000161467318933407 0.0014664435873965 0.00133610858789104 0.000157637885818875 0.000322834088959566 0.000956372937383024 0.000358682980012838 0.000351575570706299 0.000853271451813266
"58" 0.00176871440741229 0.00084156959804596 0.000848732449944599 0.00168884323824815 0.000243184609481082 0.00070998474994654 0.000142759065725944 -0.000170503273650312 0.00156090662338904 0.00136531231593613 0.000153893186032237 0.000306485795642566 0.000969238205622403 0.000411430736135486 0.000354889425043126 0.000848754730384634
"59" 0.00182615180320384 0.000864850713791967 0.000932361882587972 0.00172890993973021 0.000244594738189409 0.000721379570384951 0.000125480725818966 -0.000179529741064965 0.00165089255733529 0.00139138788045747 0.000149348839263825 0.000288892806766042 0.000978024072037687 0.000463142319308146 0.000356127632472179 0.000841130698138064
"60" 0.00187916641204279 0.000886449938821747 0.00101426901609899 0.00176311201034005 0.000244450756642576 0.000731239652471205 0.000107264642114794 -0.000188589340303401 0.00173601573231174 0.00141408456585997 0.000143921848798051 0.000270024937154247 0.000982617655971763 0.000513567898401454 0.000355252344553783 0.000830390782995947
"61" 0.00192752534701757 0.000906175033734415 0.00109399757922222 0.0017911049484608 0.000242741786875724 0.000739390859523457 8.81906272345685e-05 -0.000197731061388981 0.00181593593839779 0.00143318474223766 0.000137533908724975 0.000249866010369836 0.000982952858852578 0.000562467202638332 0.000352256026566341 0.000816549006586913
"62" 0.00197104209091342 0.00092384499010511 0.00117110923331435 0.00181259256774381 0.000239466883343136 0.000745661071517603 6.83466811809071e-05 -0.00020699675126242 0.00189033743659737 0.00144850333936504 0.000130133473907575 0.000228410256722101 0.000979004772041153 0.000609606247351068 0.00034713793694766 0.000799653823427793
"63" 0.00200955616911932 0.000939305694509414 0.0012451697226858 0.00182734555398905 0.000234644325366539 0.000749884699914874 4.7830740424373e-05 -0.000216434708601169 0.00195892544592427 0.00145987501754487 0.000121666098355932 0.000205670867327378 0.00097078452286634 0.000654766352444031 0.000339921107441966 0.000779772634375571
"64" 0.00204295955017802 0.000952414258158066 0.00131576978084124 0.00183519300799128 0.000228305217588047 0.000751902131442151 2.67645119051113e-05 -0.000226090003282715 0.00202145121134113 0.00146717167246118 0.000112104750762742 0.000181670054675087 0.000958345181680782 0.000697734298572313 0.000330640651173296 0.00075700090869259
"65" 0.00207118691757144 0.000963055623654055 0.00138252880289793 0.00183602768156688 0.00022049924799436 0.000751566979675025 5.2621610205034e-06 -0.000236004491784991 0.00207769438892774 0.00147029783167476 0.000101431215506793 0.000156447834035572 0.000941784096529502 0.0007383185065265 0.000319348868133148 0.00073146153902582
"66" 0.00209420967037744 0.000971135950373945 0.00144508378711404 0.00182981098923524 0.000211282690104275 0.000748744684782382 -1.65376886873189e-05 -0.00024621704697194 0.00212748463705331 0.00146919597377848 8.96425716577335e-05 0.000130052301175603 0.000921233073536634 0.000776343826714118 0.000306117347884277 0.000703300761880334
"67" 0.00211204844844169 0.000976582736175703 0.00150311353833372 0.00181657179765898 0.000200738227950589 0.00074331681870075 -3.85019294637019e-05 -0.00025676647134267 0.00217067691533804 0.00146384434173978 7.67498624067933e-05 0.000102552939215537 0.000896861646632116 0.000811642435406614 0.000291030772362626 0.000672680279229871
"68" 0.00212477137131007 0.000979349658652281 0.00155632623063055 0.00179640121318231 0.000188950745851584 0.000735174096298766 -6.04795837941734e-05 -0.000267686323540124 0.00220718554588988 0.001454253476244 6.27763970394653e-05 7.40209299642316e-05 0.000868875099362342 0.000844080946926427 0.00027419229403272 0.000639787963241191
"69" 0.00213248048307197 0.000979414473651242 0.00160447459338024 0.00176945780055193 0.000176023140510776 0.000724236796101712 -8.23287631838089e-05 -0.000279001048467286 0.00223695562464047 0.00144047957437113 4.77642745416394e-05 4.45533387524335e-05 0.000837508677014442 0.000873536618565438 0.000255715532106713 0.000604829192954828
"70" 0.0021353233095505 0.000976778356013772 0.00164735419901084 0.00173595685497098 0.000162070681216451 0.000710434539266368 -0.000103894102854429 -0.000290732219916711 0.00225999819882259 0.00142260474145212 3.17585363121637e-05 1.42472319391439e-05 0.000803028603658366 0.00089992222184443 0.000235729038192285 0.00056802375569193
"71" 0.0021334826877418 0.000971465108224859 0.00168479694198289 0.00169617454945607 0.000147218795832804 0.000693728218875561 -0.000125024285648671 -0.00030289689008828 0.00227635205077084 0.0014007509735773 1.48263121107408e-05 -1.67822891229454e-05 0.00076572444877911 0.000923165333189548 0.00021437100488787 0.000529596495496498
"72" 0.00212717753783799 0.000963523406016344 0.00171669147036713 0.00165043896919724 0.000131598552492311 0.00067409005098266 -0.000145567023642758 -0.000315502209587004 0.00228611034264249 0.00137507186408825 -2.96022019982146e-06 -4.84173448063577e-05 0.00072590575607862 0.000943219119730222 0.000191793880856661 0.000489798149697252
"73" 0.00211666293827545 0.000953022425303369 0.00174295823464897 0.00159912514671505 0.000115356911603261 0.000651524430233424 -0.000165374368517524 -0.000328550126252811 0.00228942354960085 0.00134575925869952 -2.15226410731962e-05 -8.05261371046105e-05 0.000683902694543893 0.000960078247088651 0.000168154946796961 0.000448873721772046
"74" 0.00210220827269741 0.00094005313731083 0.00176358165018069 0.00154265146317262 9.86371060582616e-05 0.000626060467946015 -0.000184303052704606 -0.000342028903437302 0.00228647277362381 0.00131302103245469 -4.07632693458074e-05 -0.000112971563370103 0.000640057366588513 0.000973752839935686 0.000143621621212669 0.000407081352981503
"75" 0.00208412602413434 0.000924723155795747 0.00177858104591371 0.00148147123952308 8.15953159177475e-05 0.000597745610948947 -0.000202207736214446 -0.00035592771130837 0.00227750158818287 0.00127710326672468 -6.05864254401909e-05 -0.000145611220210433 0.000594721175325996 0.00098428378333804 0.000118367535232233 0.000364677472417284
"76" 0.00206273549081682 0.000907164798401323 0.00178802707295646 0.0014160681619018 6.4387381125914e-05 0.000566653169837787 -0.000218960092548548 -0.000370221049418107 0.00226278166082442 0.00123827127349413 -8.08877817007067e-05 -0.000178295923367941 0.000548253145949336 0.000991740491183468 9.25702069831095e-05 0.00032191934279668
"77" 0.00203836954921547 0.000887517322406077 0.00179202829730075 0.00134695291929466 4.71719078513284e-05 0.000532887208466295 -0.000234430177506896 -0.000384876723568137 0.00224263547146026 0.00119680675419766 -0.000101557923106315 -0.000210879486031237 0.000501012958539624 0.000996225745678117 6.64088783461193e-05 0.000279065125623028
"78" 0.0020113859142655 0.000865939328172308 0.0017907476493029 0.00127464801599993 3.01108633203244e-05 0.000496571068352406 -0.000248507355049831 -0.000399854403328815 0.00221742167749523 0.00115301487263844 -0.000122480918308873 -0.000243205585939914 0.000453358502975735 0.000997862489828613 4.00662701003438e-05 0.000236367640389164
"79" 0.00198212926853001 0.000842600880753319 0.0017843692140268 0.00119969304463144 1.33600594502643e-05 0.000457850270202112 -0.000261080645564519 -0.000415106026593304 0.00218752322053976 0.00110720805998722 -0.000143539175827428 -0.000275122703297064 0.000405641208522548 0.000996805415335645 1.3720725944719e-05 0.0001940702045071
"80" 0.00195095860831222 0.000817681079712083 0.00177312799748273 0.00112263147766686 -2.9274455202153e-06 0.000416894014498544 -0.000272060983934025 -0.000430570991740461 0.00215335964523117 0.00105971163332451 -0.000164618922074246 -0.000306481348960644 0.000358205661857911 0.000993230207508451 -1.24459645252635e-05 0.000152411699340358
"81" 0.0019182308251757 0.000791367871891837 0.00175728944589097 0.00104400121037604 -1.85961207619044e-05 0.000373894156437891 -0.000281361808653214 -0.00044618615875735 0.002115372797311 0.00101085961114122 -0.000185599974020056 -0.00033713043847193 0.000311387280718791 0.000987328962541979 -3.82588899840119e-05 0.000111616028444934
"82" 0.00188429119506943 0.000763856703921852 0.00173713849281071 0.000964344605758297 -3.35005051743709e-05 0.000329055890465427 -0.000288919094330095 -0.000461880210975743 0.00207401900662049 0.000960980962205198 -0.000206361994725359 -0.0003669235407045 0.000265503185585052 0.000979326089777586 -6.35477853814612e-05 7.19010263452202e-05
"83" 0.00184947108982464 0.000735339666063964 0.00171299409401834 0.000884184632566224 -4.75078093999373e-05 0.000282607668207413 -0.000294676087831215 -0.000477573250743534 0.00202976330028973 0.000910412683331034 -0.000226787840646733 -0.000395725474073361 0.000220855446852056 0.000969444141143017 -8.814843231426e-05 3.34647683671241e-05
"84" 0.00181410672558937 0.000706021339430191 0.00168519573303805 0.000804035216595202 -6.0481910388508e-05 0.00023478834473693 -0.000298594281955383 -0.000493178409121997 0.00198308749711872 0.000859481459394404 -0.000246765917061763 -0.000423394724432182 0.00017772867063328 0.000957939755943874 -0.000111900700633207 -3.49952346847318e-06
"85" 0.00177849753203163 0.000676098286751196 0.00165409288190116 0.000724385621421452 -7.23034766025246e-05 0.000185851536985137 -0.000300640688033381 -0.000508609568027965 0.00193446521383793 0.000808512755467205 -0.000266186708276861 -0.000449806331793036 0.000136385034659873 0.000945065419292634 -0.000134661579316537 -3.8829149979779e-05
"86" 0.00174292827470694 0.000645767955985897 0.00162004938852206 0.000645711741477429 -8.28629111927352e-05 0.000136060079744047 -0.00030081245309527 -0.000523766016146053 0.00188437477502561 0.000757814771788306 -0.000284944029819009 -0.000474842556541208 9.70647451312586e-05 0.000931088030703314 -0.000156287335791891 -7.23604732518137e-05
"87" 0.00170767266963325 0.000615221801416376 0.00158343726779348 0.00056845559386982 -9.20594518915684e-05 8.56841348288949e-05 -0.000299109518896149 -0.000538553046041514 0.00183327643467563 0.000707691138094391 -0.000302934738400841 -0.000498393728832735 5.99838244951649e-05 0.000916273256716613 -0.0001766536776954 -0.000103962210309298
"88" 0.00167297332461985 0.000584652026753188 0.00154463282851821 0.000493034087466631 -9.98039619928413e-05 3.49973525847811e-05 -0.000295551239514047 -0.000552868146291339 0.00178162455877443 0.000658427368585802 -0.000320065001743815 -0.000520354670779286 2.53386204482119e-05 0.000900891984745962 -0.000195641488828765 -0.000133508743392613
"89" 0.00163904435279818 0.00055423817474324 0.00150401079824942 0.000419836954730581 -0.000106024055971223 -1.57200708473391e-05 -0.000290164390139688 -0.000566607662314422 0.00172984779919567 0.000610293205982299 -0.000336246553889339 -0.000540639281451972 -6.70656468649538e-06 0.000885205721094029 -0.000213144985414506 -0.000160904059671269
"90" 0.0016060833618093 0.00052415716326052 0.0014619477384444 0.000349215346303313 -0.000110657420547476 -6.61926281706902e-05 -0.00028300229997631 -0.000579668506845943 0.00167835670372113 0.000563535345886561 -0.000351395041029702 -0.000559166407252857 -3.60102029662016e-05 0.000869479257916051 -0.000229072748829078 -0.000186059264793564
"91" 0.00157425336575685 0.000494568707856137 0.00141879874932064 0.000281494612028984 -0.000113653066658014 -0.000116146191166458 -0.000274120674649569 -0.000591949469693092 0.00162753434585475 0.000518383499205853 -0.000365438210987181 -0.000575869647545179 -6.24558395087874e-05 0.000853960205803858 -0.000243345448708857 -0.000208909899842183
"92" 0.00154370248476263 0.0004656312999827 0.00137492583113682 0.000216957953357781 -0.00011497351117509 -0.000165310928512005 -0.000263589788067385 -0.000603344538172487 0.00157775237568132 0.000475054246435086 -0.00037831134635499 -0.000590694199865616 -8.59521370822076e-05 0.000838901063943506 -0.000255890222471036 -0.000229408247829686
"93" 0.00151454197190876 0.000437492251175865 0.00133066839715764 0.000155856758980948 -0.000114598867677648 -0.000213425803646365 -0.000251500224365345 -0.000613759276218561 0.00152932790016647 0.000433726873141793 -0.000389954753209196 -0.000603592316680357 -0.000106439602430378 0.000824519106192926 -0.000266661378764692 -0.00024752572534131
"94" 0.0014868643662394 0.000410278733795108 0.00128634922796265 9.84064122160967e-05 -0.000112520631468566 -0.000260240456282754 -0.000237941779629966 -0.000623093647870482 0.00148256719850683 0.000394570733481946 -0.000400324492532456 -0.000614539074687734 -0.000123873763280091 0.000811034231205084 -0.00027561331849009 -0.000263249446821305
"95" 0.0014607281447853 0.000384115802900587 0.00124227705865233 4.47869930869849e-05 -0.000108744799796549 -0.000305513269174 -0.000223022260041553 -0.000631260243311358 0.00143773914832275 0.000357719671247339 -0.000409379260890349 -0.000623515125242581 -0.000138248440110749 0.000798641756453552 -0.000282718262889258 -0.000276586093538785
"96" 0.0014361788085656 0.000359108148811807 0.00119874027124736 -4.86040357559339e-06 -0.000103284281529298 -0.00034901806791536 -0.000206856325019333 -0.000638170446791333 0.00139507861534012 0.00032329492465255 -0.000417088575980109 -0.000630510974278113 -0.000149568491615427 0.000787521233667269 -0.00028796132523088 -0.000287554389727273
"97" 0.00141323255560297 0.00033535749089959 0.00115600729083153 -5.04259908224827e-05 -9.61766975002502e-05 -0.000390545382847312 -0.000189566549458017 -0.000643746396021145 0.00135479817517135 0.000291385813271044 -0.000423431936417252 -0.000635537458316575 -0.000157871440536059 0.000777832265630363 -0.000291339521463581 -0.000296195438083265
"98" 0.00139188965914696 0.000312943463282114 0.00111432840746358 -9.18427721936538e-05 -8.74590637888384e-05 -0.000429900687903039 -0.000171283714864407 -0.000647915459939042 0.00131706609067262 0.000262062246014187 -0.000428401665094334 -0.000638610139899126 -0.000163213000210177 0.000769710125440225 -0.000292864224089085 -0.000302558483484922
"99" 0.00137212174295991 0.000291938435792324 0.0010739201180927 -0.000129068559891051 -7.71884063707978e-05 -0.000466910043535092 -0.0001521412547057 -0.0006506156536595 0.00128202819213459 0.000235367312435429 -0.000431998581801052 -0.000639763912816377 -0.00016567455918998 0.000763280340660718 -0.000292555283904227 -0.000306714288062402
"100" 0.00135389396098153 0.000272399142337941 0.00103498731917884 -0.000162101687705211 -6.54303819826246e-05 -0.000501415170052644 -0.000132282576444203 -0.000651790358186713 0.0012497980500746 0.000211318469591761 -0.000434225548907451 -0.000639037637930253 -0.000165348519876196 0.000758633104691636 -0.000290445500144541 -0.000308743979766532
"101" 0.00133715141711607 0.000254373054240393 0.000997709143425782 -0.000190971888431804 -5.22605773787974e-05 -0.000533280805401038 -0.00011184640283603 -0.000651393864263865 0.00122046812396405 0.000189919847551106 -0.00043510210124358 -0.000636488239642769 -0.000162351905747847 0.000755848518024812 -0.000286576843847275 -0.000308737325402353
"102" 0.00132181587502267 0.000237894127316439 0.000962234237576133 -0.000215737091011676 -3.77642996538873e-05 -0.000562389848415342 -9.09790525584408e-05 -0.000649394871953373 0.00119408762086094 0.000171143561556637 -0.000434659371541289 -0.000632177029965848 -0.000156822838201655 0.000754979699580186 -0.000281004514214187 -0.000306801619417425
"103" 0.00130781196789391 0.000222984247562308 0.000928696873365464 -0.000236487949463433 -2.2036426271362e-05 -0.000588652587116156 -6.98268420374583e-05 -0.000645763204607138 0.00117070266711125 0.000154945103447005 -0.000432928277374673 -0.000626180634751721 -0.000148903742691953 0.000756059540718779 -0.000273787337294778 -0.00030305233208632
"104" 0.00129504813897041 0.000209654345411199 0.000897198903058081 -0.000253340228570793 -5.18017739067533e-06 -0.00061199416630638 -4.85289015768055e-05 -0.000640490341321489 0.00115030853594749 0.000141262647935968 -0.000429952577660043 -0.000618584100138614 -0.000138761380404403 0.000759102131548351 -0.000264999163639438 -0.000297614968702297
"105" 0.00128342154781397 0.000197905182599306 0.000867832331919007 -0.000266437158291217 1.26971037780769e-05 -0.000632366832652033 -2.72348980329689e-05 -0.000633570795171928 0.00113289676112365 0.00013001123354306 -0.000425784125340488 -0.000609474232633051 -0.000126566119916438 0.000764093876245194 -0.000254718356468925 -0.000290620633059981
"106" 0.00127282078266884 0.00018772464143587 0.000840654983385065 -0.000275947958223835 3.14741166071848e-05 -0.000649741338533398 -6.077314184858e-06 -0.000625018284795066 0.00111843053630748 0.000121089891785591 -0.000420483138189035 -0.000598957123320521 -0.000112506496295107 0.000771011795047802 -0.000243031551833712 -0.00028220877599261
"107" 0.00126314426100789 0.000179095010620833 0.000815710870975662 -0.000282060422426974 5.10372544585961e-05 -0.000664112688357779 1.48072180958365e-05 -0.000614849061234268 0.0011068455147311 0.000114380586097995 -0.00041411060729094 -0.000587137858603483 -9.67699191207408e-05 0.00077979787370079 -0.00023003363028216 -0.000272527290298861
"108" 0.00125426830856237 0.000171987305395021 0.00079301598278291 -0.000284985126535529 7.12570573764345e-05 -0.000675498862146428 3.52916893745588e-05 -0.000603103239352511 0.00109805525251174 0.000109751141902376 -0.000406742455137385 -0.000574127590475807 -7.95605206356619e-05 0.000790388007365683 -0.000215818928718511 -0.000261724333287002
"109" 0.00124608216766568 0.000166361962736561 0.000772577205860033 -0.000284948476390864 9.20030480821293e-05 -0.000683936307838843 5.52474251506932e-05 -0.000589821269995397 0.00109195842216976 0.000107058363085653 -0.00039845063924512 -0.000560048133342431 -6.10780190295304e-05 0.000802693051965665 -0.000200496292508689 -0.000249952763037093
"110" 0.00123847611376773 0.000162175601656035 0.000754379696689873 -0.00028219494320042 0.000113148423784241 -0.000689481310000238 7.45696380698455e-05 -0.000575062403030206 0.00108843467464298 0.000106141062548404 -0.000389315524082188 -0.000545019925329094 -4.15305272513063e-05 0.000816602234564201 -0.00018416955679473 -0.00023736987829638
"111" 0.00123133123733894 0.000159374519406723 0.000738388205377036 -0.000276975695857164 0.000134558014347975 -0.000692214243192952 9.31413546353892e-05 -0.000558894197363105 0.00108732671179252 0.000106836514431941 -0.000379422672055655 -0.000529169412878902 -2.11230685871088e-05 0.00083198606455367 -0.000166956182431419 -0.000224127485917216
"112" 0.00122454169094929 0.000157900031479981 0.000724556763359726 -0.00026955790671784 0.000156101073427929 -0.000692231804343432 0.000110869514200953 -0.000541397064580882 0.00108848191595637 0.000108965501687909 -0.000368862131602617 -0.000512626011385031 -6.2903149750925e-08 0.000848709852396826 -0.000148965160573125 -0.00021038370291832
"113" 0.00121800573934142 0.000157685049305174 0.000712815590078751 -0.000260215445750863 0.000177644755310177 -0.000689649313754484 0.00012766836409281 -0.00052266037361028 0.00109170491439112 0.000112350594327373 -0.000357721639065461 -0.00049551527965053 2.14476045096164e-05 0.000866601092865249 -0.000130318300151633 -0.000196291457271059
"114" 0.00121161735134871 0.000158659725040413 0.000703089232223772 -0.000249222442727547 0.000199052648841035 -0.000684601803466355 0.000143454204929922 -0.000502784968658591 0.00109678905263227 0.000116798551430185 -0.000346091987209908 -0.000477970673766053 4.3208880974126e-05 0.000885488924263397 -0.000111135209207603 -0.000182004112298264
"115" 0.00120529103518552 0.000160744539896945 0.000695287579546307 -0.000236858268124883 0.000220201870602671 -0.000677235511898507 0.000158156572551327 -0.000481883451431079 0.00110351691762902 0.000122122809738544 -0.000334069827394499 -0.000460120045762377 6.50267899045085e-05 0.0009051798733803 -9.15326914295758e-05 -0.000167665762057918
"116" 0.00119893615576451 0.000163859389863054 0.000689312215870109 -0.000223406160011949 0.000240963260923709 -0.000667715118969556 0.000171719171797861 -0.000460071161751795 0.00111164326796487 0.000128133046024807 -0.00032174734600925 -0.000442090890355926 8.67191908147526e-05 0.000925470416412893 -7.16342788739077e-05 -0.000153422468697201
"117" 0.00119247756988716 0.000167916883036718 0.00068504931801499 -0.000209137544167551 0.000261213748952474 -0.000656216205737072 0.000184095114023025 -0.000437477692798027 0.00112090507071543 0.000134637743429046 -0.000309216666392969 -0.000424007237386713 0.000108105938254631 0.000946140782399296 -5.15572112134534e-05 -0.000139406777614714
"118" 0.00118584254738951 0.000172828836772878 0.000682378600258379 -0.000194328117704911 0.000280838071840503 -0.000642929712763168 0.000195246261356303 -0.00041423770584893 0.0011310272544861 0.000141449417654875 -0.000296572960645377 -0.00040599121945898 0.000129023619149359 0.00096696039962913 -3.14229485321479e-05 -0.000125749385356562
"119" 0.00117896623479371 0.000178497995874436 0.000681170767094387 -0.000179238502085337 0.000299720716487 -0.000628052014394737 0.000205141463345758 -0.000390487297969575 0.00114172283214802 0.000148384265073395 -0.000283903895184344 -0.000388157097180139 0.000149313558816072 0.00098769572667571 -1.13485103014528e-05 -0.000112574215608904
"120" 0.00117179452111079 0.000184831668532056 0.000681294838710172 -0.00016412289426704 0.000317756561408693 -0.00061179036993451 0.000213763551538422 -0.000366378644867666 0.0011526905117053 0.000155264531130968 -0.000271305592911239 -0.000370621702558964 0.000168831587811217 0.00100810406112931 8.5530811929583e-06 -9.99948605408014e-05
"121" 0.00116428219579496 0.000191725139636232 0.000682612662227268 -0.000149225807413757 0.000334840774988672 -0.000594357078090619 0.000221102480481716 -0.000342057382829672 0.0011636189380218 0.000161919288184242 -0.00025886073121523 -0.000353489681653719 0.000187449236097166 0.00102793477775691 2.81665516323892e-05 -8.81171916511414e-05
"122" 0.00115638784965184 0.00019907774782844 0.000684973690864444 -0.000134773102453397 0.000350883041517398 -0.000575972331032647 0.000227153707162811 -0.000317676181008424 0.00117419493585935 0.00016818619541933 -0.000246658641184592 -0.000336858413591626 0.000205042626436419 0.00104694745278991 4.7381855750529e-05 -7.70357912226681e-05
"123" 0.00114807495914697 0.000206780630396792 0.000688237663779401 -0.000120979275629427 0.000365792774231516 -0.000556854687447897 0.000231929859482486 -0.000293387599215999 0.00118409606504328 0.000173913508980979 -0.000234780971584831 -0.000320824801908942 0.000221512477214258 0.00106488487601612 6.60939142378132e-05 -6.68404992930498e-05
"124" 0.0011393187132904 0.000214728964657913 0.000692253928312723 -0.000108041161152057 0.00037948998097182 -0.000537227202363696 0.000235440253774442 -0.000269349910521692 0.00119300347381891 0.000178962258476693 -0.000223304412636073 -0.000305473056096017 0.000236763494394396 0.00108151006076779 8.42029446071376e-05 -5.76058379683494e-05
"125" 0.00113009993425057 0.000222810632588799 0.000696871238033413 -9.61404741643349e-05 0.00039190636198446 -0.000517306373113116 0.000237710459040462 -0.000245711084586187 0.00120060749145181 0.000183203820342439 -0.000212305153650343 -0.00029088061779995 0.000250720008054952 0.00109658704169623 0.000101610085024685 -4.93986176956765e-05
"126" 0.00112040273609501 0.000230916557168929 0.000701940727929877 -8.54353773124654e-05 0.000402973980668598 -0.000497311999196431 0.000238764884189396 -0.000222627429120255 0.00120660909878152 0.00018652306636954 -0.000201855329291369 -0.000277118700543429 0.000263318742306229 0.00110989527828605 0.000118226981754129 -4.22743726434443e-05
"127" 0.00111021149156215 0.000238927025649493 0.000707314962064114 -7.60702163148246e-05 0.000412639800781732 -0.000477450368668592 0.000238633527918104 -0.000200238577978311 0.00121072315561581 0.000188821778736807 -0.000192024476649175 -0.000264246920182304 0.000274509936409832 0.00112122749231158 0.000133966912627104 -3.62779455712247e-05
"128" 0.00109951970679745 0.000246731672390295 0.000712842279300943 -6.81648564552874e-05 0.00042085361579151 -0.00045792689532574 0.0002373537859209 -0.000178690972736887 0.00121268925258629 0.00019001601321342 -0.000182874191835986 -0.00025232018342492 0.000284254907453168 0.00113039319266975 0.000148749187236422 -3.1446761779535e-05
"129" 0.00108832464535113 0.000254211289043224 0.000718383337424259 -6.18245579498654e-05 0.000427576506540599 -0.000438935682624741 0.000234966464162725 -0.000158119840996477 0.00121225292991737 0.000190029584831793 -0.000174460141148744 -0.000241382709026176 0.00029252920464051 0.00113721706087088 0.000162502365036274 -2.78068692006287e-05
"130" 0.00107661732884364 0.000261250486089432 0.000723790697117341 -5.71301108353488e-05 0.000432780229868466 -0.000420655985336255 0.000231513085460824 -0.00013865165531645 0.00120921643677246 0.000188809436679363 -0.000166841850962541 -0.000231470772229666 0.000299321990144318 0.00114156178320599 0.00017515731649367 -2.53704553276393e-05
"131" 0.00106439904761782 0.000267730824807481 0.000728933345415451 -5.41478604482343e-05 0.000436437456993169 -0.000403258391029727 0.000227034417627796 -0.000120405054648375 0.00120339425910108 0.00018631717152577 -0.000160061411812737 -0.000222611277212529 0.000304631282314495 0.00114330147901337 0.000186655736259185 -2.41449938980587e-05
"132" 0.00105166146895236 0.000273535635471461 0.000733675396499385 -5.29196133810542e-05 0.000438534941741697 -0.000386893134875101 0.000221575425516307 -0.00010348958691959 0.00119464661278372 0.000182524367768483 -0.00015416984664041 -0.000214826258891218 0.000308465086898161 0.00114235174082112 0.000196944698407894 -2.41316972390878e-05
"133" 0.00103840958387456 0.000278546943536243 0.000737890904843275 -5.3477561712912e-05 0.000439065329017619 -0.000371702129820516 0.000215185849552454 -8.80012776365564e-05 0.00118287654957763 0.000177420427702207 -0.000149198209670962 -0.000208122933689754 0.000310844210971143 0.00113865185592081 0.000205979207816754 -2.53101250676124e-05
"134" 0.00102463091631289 0.000282648895317814 0.000741454971536055 -5.58301564128941e-05 0.000438029866473114 -0.000357798733932509 0.000207907973481153 -7.40267170367289e-05 0.00116802576607877 0.000171008471065429 -0.000145186548353482 -0.000202510727991694 0.000311794217393137 0.00113217690791308 0.000213721211992257 -2.76684367464903e-05
"135" 0.00101031447932629 0.000285725956019297 0.000744256322248104 -5.99722815713667e-05 0.000435433564007299 -0.000345288753845922 0.000199782595053042 -6.16374491369934e-05 0.0011500719077604 0.000163302975182647 -0.000142154240028129 -0.000197983432467475 0.000311351205762553 0.00112292930548796 0.000220139088918025 -3.11755118372686e-05
"136" 0.000995460632646312 0.000287667122435625 0.000746186471903466 -6.58847320401085e-05 0.000431295421633837 -0.000334249963614804 0.000190857750123091 -5.08946436092032e-05 0.00112905016125511 0.000154335211045972 -0.000140131286136966 -0.000194530639489546 0.000309560410781261 0.0011109486469411 0.000225211541127853 -3.57975676790349e-05
"137" 0.000980049935633481 0.000288361261082413 0.000747141687150597 -7.35355476429712e-05 0.000425630685107347 -0.000324742364544739 0.000181176368362478 -4.18411789047771e-05 0.00110502908018741 0.000144143278600989 -0.00013912799374436 -0.000192136491654423 0.000306465334156024 0.00109630577614996 0.000228924017734471 -4.14924274110339e-05
"138" 0.000964067857599873 0.000287702419979638 0.000747033002615798 -8.28816423644093e-05 0.000418474858983161 -0.000316807314331835 0.000170771664266187 -3.45094074305442e-05 0.00107811785411806 0.000132775093468472 -0.000139156083689026 -0.000190777077961852 0.00030212494886207 0.00107910078916295 0.000231267673317217 -4.82149900010567e-05
"139" 0.000947497345148815 0.000285589196766785 0.000745771955391367 -9.38673613586498e-05 0.000409855377082876 -0.000310463463200477 0.000159686984583117 -2.891371334461e-05 0.0010484758661674 0.000120293352514417 -0.000140217771510574 -0.000190427423416274 0.000296594544086348 0.00105946407147109 0.000232244228146314 -5.59112080738063e-05
"140" 0.000930313835332204 0.000281926663047274 0.000743285641334908 -0.000106429514259166 0.000399817734535453 -0.000305706797732851 0.00014795554903195 -2.50531654085156e-05 0.00101628397565424 0.000106764216852702 -0.000142315393094793 -0.000191052560181386 0.000289934235208336 0.00103755533588431 0.000231858330148869 -6.45256468664255e-05
"141" 0.000912489732701311 0.000276622231584949 0.000739499346398738 -0.000120496472621804 0.000388402641526811 -0.000302518546182012 0.000135612289889188 -2.29141850581443e-05 0.000981761011997755 9.22628597960402e-05 -0.000145434960135487 -0.000192617206507343 0.000282210083324217 0.00101355322627707 0.000230128872973596 -7.39963627082268e-05
"142" 0.000894000429304188 0.000269594576663733 0.000734362680523168 -0.000135994384098692 0.000375666261928718 -0.000300853922994936 0.000122688384977449 -2.24689840343262e-05 0.000945156452665081 7.68670587264386e-05 -0.00014956874132592 -0.000195079305863989 0.000273487649350248 0.000987662005575972 0.00022707681478017 -8.42602084108194e-05
"143" 0.000874807670374842 0.000260769053984419 0.00072781352410161 -0.000152840275050169 0.000361660193384729 -0.000300654174530184 0.000109214400971609 -2.36750677014071e-05 0.000906734332190931 6.06639736728338e-05 -0.000154692425571338 -0.000198394905035383 0.000263830803193999 0.000960100277926012 0.000222729661591248 -9.5249894433297e-05
"144" 0.000854881273911027 0.000250077909152968 0.000719820479233406 -0.000170948181002068 0.000346444711323513 -0.00030184245660918 9.52162723143954e-05 -2.6472999329574e-05 0.000866778321624433 4.37399405473851e-05 -0.000160780429742597 -0.000202518370282958 0.000253310971899571 0.00093109614246172 0.00021712327759152 -0.000106894494198787
"145" 0.00083418892674659 0.000237467157512823 0.000710342653164924 -0.000190233099876025 0.000330086392383184 -0.000304324809665417 8.07226205442861e-05 -3.07943842911868e-05 0.00082558924856202 2.61910010925337e-05 -0.000167801781761691 -0.000207399544016323 0.000241992455650808 0.000900900041255612 0.000210300381863218 -0.000119125233599845
"146" 0.000812692625582976 0.000222892175795452 0.000699362096651805 -0.00021060665215303 0.000312652728042919 -0.000307990968229155 6.57600246153569e-05 -3.65564154678148e-05 0.000783464107811852 8.10306164854476e-06 -0.000175719205177056 -0.000212989114608688 0.000229946847960739 0.00086975121967488 0.000202311353140454 -0.000131867043339459
"147" 0.000790359378978645 0.00020632060216856 0.000686865270788409 -0.000231981063836084 0.000294218406761585 -0.000312722903603658 5.03534231319935e-05 -4.36674102765667e-05 0.000740706950936879 -1.04255723892246e-05 -0.000184488930953374 -0.000219233910452272 0.000217235933452774 0.000837909681443657 0.000193211126439715 -0.00014504819997354
"148" 0.000767149554542623 0.000187728813831128 0.000672837374985749 -0.000254269263166578 0.000274852697354281 -0.000318386762686907 3.4527931361113e-05 -5.20195856430187e-05 0.000697614108876463 -2.93075347981243e-05 -0.000194062790735398 -0.000226081360938875 0.000203926157442546 0.000805612781875072 0.000183056169436948 -0.000158595944371785
"149" 0.000743037005812514 0.000167114938662114 0.000657291860715932 -0.000277384340572446 0.000254643010825939 -0.000324841127758924 1.83107613139179e-05 -6.15039726894081e-05 0.00065447600080813 -4.84470326497468e-05 -0.000204387542589122 -0.000233476326113558 0.000190079784548168 0.000773113668467208 0.000171916313031643 -0.000172438364185148
"150" 0.000717995708625211 0.00014448457560321 0.000640240709025676 -0.000301244901627852 0.000233669947036232 -0.000331938686687361 1.73029054718642e-06 -7.19955829506071e-05 0.000611573066305999 -6.77573597319077e-05 -0.000215403978387013 -0.000241370087188742 0.000175765772408718 0.000740639498610925 0.000159859943260366 -0.000186497915773977
"151" 0.000692000494254797 0.000119861234519236 0.000621702194948924 -0.000325766144389669 0.000212016111012571 -0.000339525395763802 -1.51857545115619e-05 -8.33711818925367e-05 0.000569160303800857 -8.7152980522247e-05 -0.000227049929164857 -0.000249707005591311 0.000161037030303546 0.000708420735674572 0.000146962082900889 -0.000200707033105996
"152" 0.000665025500434432 9.32833830149735e-05 0.000601705457162661 -0.000350870383169809 0.000189770916919498 -0.000347445013253288 -3.24098900129694e-05 -9.54928783102653e-05 0.000527479122571595 -0.000106548511324963 -0.000239257627089585 -0.000258432594590067 0.000145952769945229 0.000676663842109021 0.000133302875108596 -0.000214996641825054
"153" 0.000637068532527365 6.48055591375644e-05 0.000580295650734242 -0.000376481999307326 0.000167025425041159 -0.000355540589631551 -4.99039619527226e-05 -0.000108225954102591 0.000486759177015548 -0.00012586313818309 -0.000251957209340759 -0.000267500060026446 0.000130574410049083 0.000645565336479819 0.000118964273268588 -0.000229294154467644
"154" 0.000608127225936567 3.44976143231359e-05 0.000557518091950174 -0.000402524800118002 0.00014387384972963 -0.000363656903483362 -6.76339149037458e-05 -0.000121428454114262 0.000447193386293441 -0.000145024486330164 -0.000265075923843962 -0.000276852363202137 0.00011495231711997 0.000615306317653269 0.00010403919217312 -0.000243533306288239
"155" 0.000578202163931133 2.44329210846641e-06 0.000533426338725461 -0.000428929748102748 0.000120408720976338 -0.000371637909700907 -8.55627781258611e-05 -0.00013496082552888 0.000408950132200901 -0.000163957988848554 -0.000278532695631238 -0.000286445606409539 9.91413934260215e-05 0.000586044605823896 8.86076068148437e-05 -0.00025765245497609
"156" 0.000547307976648265 -3.12523631634164e-05 0.000508090173773567 -0.000455624246185099 9.67289660767813e-05 -0.00037933545168752 -0.000103640837640154 -0.00014867915908809 0.000372187241240547 -0.000182596857357835 -0.00029224608205366 -0.000296227284940073 8.31925343321394e-05 0.000557918915608704 7.27701232645603e-05 -0.000271586221540935
"157" 0.000515470960832765 -6.64712590764213e-05 0.000481576933291965 -0.000482543092320244 7.29321184037086e-05 -0.00038660625751405 -0.000121823851464309 -0.000162445176732299 0.00033702636654182 -0.00020087694297495 -0.0003061398651302 -0.000306152304776033 6.71556909936866e-05 0.000531054315960823 5.66183089100719e-05 -0.000285274506924938
"158" 0.000482728888652606 -0.000103079562938823 0.000453970579905558 -0.00050961756752786 4.91179460822926e-05 -0.00039331473983436 -0.000140062494558777 -0.000176118379560806 0.000303570382124951 -0.000218742002813706 -0.000320126559425129 -0.000316174360166416 5.10798549942253e-05 0.000505554875553217 4.02458526136714e-05 -0.000298664990325028
"159" 0.000449123933126889 -0.000140930875036479 0.000425349556265687 -0.00053678492068323 2.53910522059401e-05 -0.000399335714781294 -0.000158297066669639 -0.000189567021082637 0.00027190077819785 -0.000236140274200827 -0.0003341245267713 -0.000326249718424334 3.50039304474713e-05 0.000481501941258016 2.37545551404677e-05 -0.000311699785604113
"160" 0.000414716033551612 -0.000179860559726189 0.000395814422131215 -0.000563977743270008 1.84724447264955e-06 -0.000404552433994441 -0.000176469619657797 -0.000202656921746347 0.000242072679433926 -0.000253018104983651 -0.000348047042539115 -0.000336335118153661 1.89837710642922e-05 0.000458957581724113 7.23870693719178e-06 -0.000324330924230039
"161" 0.000379582895820587 -0.000219691805045513 0.000365470853421684 -0.000591133190045285 -2.14035452605316e-05 -0.000408861001035249 -0.000194513395076068 -0.000215268055473947 0.000214122235110371 -0.000269331138023803 -0.000361805385563693 -0.000346389323891328 3.05704699442043e-06 0.000437966614652671 -9.20059626132563e-06 -0.000336506910311342
"162" 0.000343799186342729 -0.000260241263611795 0.000334409389913045 -0.000618184586838852 -4.42632541453586e-05 -0.000412165085712822 -0.000212364679355174 -0.000227280832063508 0.000188063356819153 -0.00028504147067659 -0.000375318375080399 -0.000356374357638629 -1.27322155144585e-05 0.000418561958516989 -2.54697835573197e-05 -0.000348186199318313
"163" 0.000307460490349441 -0.000301307550164318 0.000302750410518059 -0.000645061858646596 -6.66312659051938e-05 -0.000414388682706801 -0.000229943614298243 -0.000238585159044188 0.000163902580184215 -0.000300114929883764 -0.000388499187440353 -0.000366253579091735 -2.83400517290644e-05 0.000400752265586283 -4.1469233607274e-05 -0.000359327744414563
"164" 0.000270680980216098 -0.000342679772783282 0.000270609010007963 -0.000671698961280423 -8.84045264683707e-05 -0.000415464700098291 -0.000247176521026881 -0.000249081891398222 0.000141615783673236 -0.000314517624008753 -0.00040126447692543 -0.000375987565459119 -4.37300610464693e-05 0.000384527330500767 -5.71040711363213e-05 -0.000369891161565722
"165" 0.000233564605414603 -0.000384144292269475 0.000238102258607828 -0.000698023236765669 -0.000109482319067025 -0.000415340260260801 -0.000263986809295891 -0.000258674660193935 0.000121178114406799 -0.000328220741280549 -0.000413535702887419 -0.000385543625995261 -5.8856078379026e-05 0.000369875626195243 -7.22825397981122e-05 -0.000379843419816509
"166" 0.000196244315696262 -0.000425474641454629 0.000205354147874211 -0.000723959296567831 -0.000129765241260421 -0.000413975291990524 -0.000280287924088278 -0.000267282695467852 0.000102542250301122 -0.000341201001803089 -0.000425230870815408 -0.000394888721782093 -7.36847845248635e-05 0.000356761314061236 -8.69144061397543e-05 -0.000389155007775578
"167" 0.000158857972477478 -0.000466442030285553 0.000172496148142855 -0.000749430965235657 -0.000149160311207644 -0.000411347990486134 -0.000295995379370645 -0.000274835015977951 8.56516966334034e-05 -0.000353438654626009 -0.000436273142787439 -0.000403989687794441 -8.8172542415677e-05 0.00034513393756422 -0.000100914525404144 -0.000397794924445868
"168" 0.000121539893791554 -0.000506814281641556 0.000139646830923385 -0.000774355684485799 -0.000167576242775766 -0.000407445054881156 -0.000311027199082538 -0.000281269864871281 7.04450932524409e-05 -0.000364918022672473 -0.00044659068142438 -0.00041281851192691 -0.000102283443630505 0.000334941583945738 -0.000114198192998792 -0.000405744370645054
"169" 8.44509900863865e-05 -0.000546358142352841 0.000106945219206682 -0.000798648453306205 -0.000184918907109155 -0.000402270052792053 -0.000325295171922503 -0.000286533297158857 5.68462381690158e-05 -0.00037562280801261 -0.000456109201413809 -0.00042134686430167 -0.000115981560478142 0.000326113594325211 -0.000126691213946931 -0.000412975084436706
"170" 4.77392223085567e-05 -0.000584838405823808 7.45202999978896e-05 -0.000822221913997649 -0.000201104932184697 -0.000395838263960082 -0.000338711239178382 -0.000290586451421081 4.47773563103072e-05 -0.000385543310885923 -0.00046476537481591 -0.000429544249716009 -0.00012922884767144 0.00031857401173182 -0.000138315827368994 -0.000419473334498503
"171" 1.15731721825558e-05 -0.00062202158526328 4.24985513641735e-05 -0.000844984466307661 -0.000216056207040821 -0.000388179734786559 -0.000351191339211006 -0.000293401693180663 3.41512183019698e-05 -0.000394668514619725 -0.000472497707085083 -0.000437391162176631 -0.000141986569709668 0.000312235362781846 -0.000149009303630877 -0.000425224765782491
"172" -2.38869013889143e-05 -0.00065767879419341 1.10161545088755e-05 -0.000866838655124976 -0.000229696864675161 -0.000379334228350083 -0.000362654727065396 -0.00029496397616641 2.48739313949866e-05 -0.000402997768287362 -0.000479245177579381 -0.000444857779701014 -0.000154227444062759 0.000307003915959309 -0.000158707998273484 -0.000430216867539114
"173" -5.84867663163371e-05 -0.000691587379923826 -1.98019054380413e-05 -0.000887683100862601 -0.000241954887179227 -0.000369353689983199 -0.000373020795245441 -0.000295262338660414 1.68503215219394e-05 -0.000410528224526181 -0.000484958312433414 -0.000451923760185298 -0.00016591886518879 0.000302782498273256 -0.0001673622305697 -0.000434443297467332
"174" -9.2049565806749e-05 -0.000723533067888383 -4.98321777835751e-05 -0.00090741952091712 -0.000252773761192779 -0.000358297888071413 -0.000382210256463472 -0.000294305535005871 9.98664050621779e-06 -0.000417256559973426 -0.000489589161391881 -0.000458572220149339 -0.000177027652506071 0.00029946457915014 -0.000174922266359174 -0.000437895927017838
"175" -0.000124415968783279 -0.000753306733258514 -7.89452266851195e-05 -0.000925942487547698 -0.00026209692275432 -0.000346238854953808 -0.000390152424636522 -0.000292104345529279 4.17517453391628e-06 -0.000423189794743448 -0.000493095033745535 -0.000464778192239143 -0.000187522852188762 0.000296935589948426 -0.000181350564893486 -0.000440573884051757
"176" -0.000155432082038117 -0.000780712155938693 -0.000107025311545783 -0.000943143807854816 -0.000269872662754217 -0.00033325758966549 -0.000396782943749163 -0.000288691108337694 -6.76703353720539e-07 -0.000428330109454431 -0.000495443328867356 -0.000470529493450809 -0.000197382963787407 0.000295090445788733 -0.000186613603029779 -0.000442477156129211
"177" -0.000184940454164778 -0.000805565793445793 -0.000133958716583267 -0.000958913989612133 -0.000276069561910745 -0.000319439941232889 -0.000402039542578218 -0.000284097126776218 -4.67545594385348e-06 -0.000432684180754455 -0.000496602543637749 -0.000475807602280576 -0.000206580366716376 0.000293805762795933 -0.000190692270009616 -0.000443611481924753
"178" -0.000212795702764568 -0.000827700169599398 -0.00015963542012341 -0.000973145922865299 -0.000280652227215363 -0.000304875004924707 -0.000405874022358238 -0.000278370421245959 -7.93112570006763e-06 -0.000436264371839237 -0.000496552516940568 -0.00048060032243881 -0.000215099330626548 0.000292962127027543 -0.00019356862418763 -0.000443980025582823
"179" -0.000238870885687466 -0.00084695796481716 -0.000183960413575616 -0.000985731277737508 -0.000283606971622163 -0.000289660658151505 -0.000408245514432793 -0.00027156363977176 -1.05419307821385e-05 -0.000439080297839999 -0.000495277135994074 -0.000484892260072137 -0.000222920848399001 0.000292440351319552 -0.000195244420532765 -0.000443594678602638
"180" -0.000263027413756955 -0.00086320591214359 -0.000206828795158441 -0.000996564118475855 -0.000284922874172446 -0.000273895453929973 -0.00040911505587837 -0.000263740595673886 -1.26064805347152e-05 -0.000441150976106069 -0.000492769496168144 -0.000488679861182685 -0.000230030887557348 0.000292118558874446 -0.000195715838644546 -0.000442465598589283
"181" -0.000285158724055414 -0.000876329876443009 -0.000228162497482464 -0.00100553953469798 -0.000284598278140479 -0.000257679769566649 -0.000408461480924219 -0.000254968000692702 -1.42366384239244e-05 -0.00044249076847984 -0.000489027896496763 -0.000491951703122044 -0.000236417343458441 0.000291871434221624 -0.000195002887747272 -0.000440606323747843
"182" -0.000305159435887071 -0.000886226752086671 -0.000247881367577109 -0.00101255648794852 -0.000282644966747043 -0.000241117912476751 -0.000406270737035318 -0.000245326682647678 -1.55230047636354e-05 -0.000443118174626733 -0.000484061217446471 -0.000494700774893129 -0.000242080864440373 0.000291583339215022 -0.00019312348555002 -0.000438037323239624
"183" -0.000322948791734786 -0.000892821921054544 -0.000265915994926418 -0.00101752052729231 -0.000279088400526651 -0.000224305738340176 -0.00040254157775474 -0.000234898923145551 -1.65740503343575e-05 -0.000443060048670596 -0.000477886160862155 -0.00049692599959722 -0.000247017144942807 0.000291129952583563 -0.000190108259514226 -0.000434773344264543
"184" -0.000338453128056986 -0.000896059017364728 -0.000282207372471541 -0.00102033963141097 -0.000273958180865794 -0.000207346226827503 -0.000397286046765798 -0.000223772053755836 -1.74751027329442e-05 -0.000442333831200272 -0.000470520453451173 -0.000498624983874058 -0.000251233395953286 0.000290396425721114 -0.000185997186052368 -0.000430838858713085
"185" -0.000351618154487407 -0.000895913017170707 -0.000296708840127944 -0.00102093262021592 -0.000267301425120824 -0.00019032931743662 -0.000390523978639416 -0.000212035685167005 -1.833332883365e-05 -0.000440973157130913 -0.000462001719789125 -0.000499796596197142 -0.000254741130756979 0.00028926429784634 -0.000180839107038265 -0.000426258090376151
"186" -0.000362415809012332 -0.000892374645410315 -0.000309387148328688 -0.00101922392593135 -0.000259173722091691 -0.000173348965737939 -0.000382290027996215 -0.000199788776638559 -1.92283950630223e-05 -0.000439006441871409 -0.000452365359307374 -0.000500447087737141 -0.000257552950018196 0.000287631636325907 -0.000174690583352177 -0.000421055614395858
"187" -0.000370825251566719 -0.000885461433446955 -0.000320210930311431 -0.00101514706759852 -0.00024964545281796 -0.000156487925879998 -0.000372630484241664 -0.000187124536407968 -2.02603111115044e-05 -0.000436460877002729 -0.000441655274173045 -0.000500578710590243 -0.000259694578191471 0.000285383214409434 -0.0001676138468538 -0.000415260339499597
"188" -0.00037685626819454 -0.000875216404171506 -0.000329176844743112 -0.00100864660843584 -0.00023879278762622 -0.000139823545568723 -0.000361606494282331 -0.000174147765831241 -2.15026906980383e-05 -0.000433376038861506 -0.000429930230392893 -0.000500202546119937 -0.000261188090275741 0.000282426553830831 -0.000159682243943917 -0.000408902396287401
"189" -0.000380527468223719 -0.000861708622126573 -0.000336278666600487 -0.000999681544546791 -0.000226701594314949 -0.00012342319210993 -0.000349291863050569 -0.000160952791920332 -2.30432691771429e-05 -0.000429788902534159 -0.000417250190484688 -0.000499322814961561 -0.00026207003281567 0.00027866118597908 -0.000150970039955131 -0.000402010694728242
"190" -0.000381895864996246 -0.000845035291615029 -0.000341532684619498 -0.000988218221925494 -0.000213478029403832 -0.000107350721502965 -0.000335766989637175 -0.000147642017744331 -2.49561331134877e-05 -0.000425733801680677 -0.000403684803032211 -0.000497956278018854 -0.000262373091081659 0.000274004374653271 -0.000141565511545087 -0.000394624770215753
"191" -0.000381016933443899 -0.000825313736504198 -0.000344956868703894 -0.000974239991376769 -0.000199227173140108 -9.16581536824407e-05 -0.00032112823840933 -0.000134308493953465 -2.73164312975977e-05 -0.000421255006010798 -0.000389307851810626 -0.00049611450741304 -0.000262148715257458 0.000268372681037495 -0.000131551037221386 -0.000386772818950511
"192" -0.000377990180726766 -0.000802692359739983 -0.000346596530227765 -0.000957741406948616 -0.000184065804617393 -7.63847690790254e-05 -0.000305484636642338 -0.000121053294484104 -3.01950946030373e-05 -0.000416397558476026 -0.000374198937283703 -0.00049381413526908 -0.000261439020749502 0.000261696653649699 -0.000121027260246661 -0.000378493153863392
"193" -0.000372916772860321 -0.000777339822391833 -0.000346500293193491 -0.000938735883493757 -0.000168125014031452 -6.15650435331267e-05 -0.000288952927433158 -0.000107964744655977 -3.3648604958127e-05 -0.00041120147607779 -0.000358451058496178 -0.000491073014648166 -0.000260303524793699 0.000253915641392994 -0.000110087612257095 -0.000369824406623855
"194" -0.000365936017650461 -0.000749451564376202 -0.000344733577797636 -0.000917249813691417 -0.000151536696463129 -4.7216549133918e-05 -0.000271661060731364 -9.51298334172642e-05 -3.7742418887669e-05 -0.000405719176882486 -0.000342149999805838 -0.000487911834516637 -0.000258796410641131 0.000244971219854674 -9.8831169200532e-05 -0.000360803765437672
"195" -0.000357189249039708 -0.000719244415769984 -0.000341369238697747 -0.000893324894951666 -0.000134441876057701 -3.33526101501847e-05 -0.000253741508649742 -8.26308169930083e-05 -4.25294564961931e-05 -0.000399994595450444 -0.000325398686157615 -0.00048435036568955 -0.000256981601369195 0.000234825635671208 -8.7362230272736e-05 -0.000351465385979756
"196" -0.000346846598301646 -0.000686958362480617 -0.000336489994270245 -0.000867022149846404 -0.000116984473352886 -1.99734802650551e-05 -0.000235344306584912 -7.05475454862645e-05 -4.80566029666477e-05 -0.000394078591286912 -0.000308291007634524 -0.000480412198474105 -0.000254920393935841 0.000223443835393136 -7.57769239735682e-05 -0.00034185140282381
"197" -0.000335097280043866 -0.000652855063728703 -0.000330204736634377 -0.000838417859124167 -9.93201824239098e-05 -7.06533164590268e-06 -0.000216614063090523 -5.89459298210308e-05 -5.43712613310327e-05 -0.000388019060964194 -0.0002909322783959 -0.000476125060254605 -0.00025268663783524 0.000210805815831741 -6.41865924252433e-05 -0.000331998185673701
"198" -0.000322137165524201 -0.000617212386386191 -0.000322614481826873 -0.000807605786304421 -8.15986728346693e-05 5.38771960083078e-06 -0.000197706285391705 -4.78895280638183e-05 -6.15100859323369e-05 -0.000381869488280008 -0.000273431012391935 -0.000471510630591381 -0.000250345367096807 0.000196899460838841 -5.26865944595188e-05 -0.000321945569129121
"199" -0.00030819150015612 -0.000580323303194643 -0.000313839716001738 -0.000774690813694397 -6.39782427803047e-05 1.7416226765574e-05 -0.000178782350478908 -3.74384621102068e-05 -6.95090641558908e-05 -0.000375678717532498 -0.000255887177183638 -0.000466598923891141 -0.00024796837396931 0.000181722707467103 -4.1377397390435e-05 -0.000311726474127539
"200" -0.000293484919719488 -0.000542499437938278 -0.000304013478758015 -0.000739802305958526 -4.66140077732136e-05 2.90587165509846e-05 -0.000159999698222906 -2.76362165738215e-05 -7.8396579032708e-05 -0.000369498189743462 -0.000238410402947628 -0.000461417595360635 -0.000245631205020943 0.000165294197244057 -3.03582023197577e-05 -0.000301379795899492
"201" -0.000278261735347924 -0.000504063788829498 -0.000293268379161312 -0.000703080138101107 -2.96626872848859e-05 4.0361338011709e-05 -0.000141524856352058 -1.85235753343373e-05 -8.81947595424133e-05 -0.000363376645621367 -0.00022110416840115 -0.000455997009689868 -0.000243400272294703 0.000147636037031301 -1.9714407662938e-05 -0.000290939634443886
"202" -0.000262767579732337 -0.000465343762991315 -0.000281748910952781 -0.000664680413601374 -1.3275172858136e-05 5.13791083994706e-05 -0.000123515223366256 -1.01301823054543e-05 -9.89246493859685e-05 -0.000357361898472532 -0.000204073249324607 -0.00045036452876078 -0.000241346995256314 0.000128782783694515 -9.53963571475005e-06 -0.000280439737117455
"203" -0.000247258583708577 -0.000426674599437759 -0.000269604678044726 -0.000624773894996295 2.39612040118966e-06 6.21659879896938e-05 -0.000106127436551212 -2.47641013435466e-06 -0.000110604376303813 -0.000351505611502618 -0.000187414131500128 -0.000444552128499633 -0.000239534630848738 0.000108775140384212 8.86810977471722e-08 -0.000269908551440051
"204" -0.000231992876748115 -0.000388393646400988 -0.000256987592820736 -0.000583544580079232 1.72122315971468e-05 7.27893978790909e-05 -8.95178684519636e-05 4.42881743814732e-06 -0.000123241236370097 -0.000345848851806134 -0.00017122316272355 -0.000438589504768495 -0.000238034012659628 8.76764177826925e-05 9.09554951829084e-06 -0.000259376908295623
"205" -0.000217226439328381 -0.000350841240236223 -0.000244057069007779 -0.000541188570230515 3.10350827255242e-05 8.33124092599509e-05 -7.38315043755439e-05 1.05763361298013e-05 -0.000136844190430015 -0.000340437616711853 -0.00015559500928427 -0.000432503464216787 -0.00023689929998631 6.55502303119898e-05 1.74138299781338e-05 -0.000248870266637757
"206" -0.000203215067360066 -0.000314352548636115 -0.000230972939022753 -0.000497910768396725 4.37330942771648e-05 9.38076130312712e-05 -5.92127689654932e-05 1.59780576949654e-05 -0.000151410616643608 -0.000335314950209986 -0.000140610931581931 -0.00042633057134594 -0.000236185888127621 4.24727439701875e-05 2.49830043294523e-05 -0.000238415509738417
"207" -0.000190210929175574 -0.000279251969083285 -0.000217892582411018 -0.00045392790712229 5.51888154905442e-05 0.000104343359366826 -4.5790098304113e-05 2.06466736043262e-05 -0.000166944633776669 -0.000330515422890437 -0.000126349031467316 -0.00042009476061894 -0.0002359419331644 1.8526244812017e-05 3.17591161080286e-05 -0.000228029268348563
"208" -0.000178455019636881 -0.000245854332594017 -0.000204973949906139 -0.00040946369056107 6.52947491626184e-05 0.000114989255228896 -3.368210861437e-05 2.46067587053319e-05 -0.000183433072807714 -0.000326073122684011 -0.000112884006029748 -0.000413827620800765 -0.00023621138631526 -6.19173040672936e-06 3.76936767239016e-05 -0.000217734688053762
"209" -0.00016817717387196 -0.000214460969275228 -0.000192372490509249 -0.000364744732031642 7.39533121148546e-05 0.000125815409306018 -2.30001426554969e-05 2.7893235580812e-05 -0.000200873891632102 -0.000322021699096782 -0.000100274227278655 -0.000407554634219314 -0.000237028750837826 -3.15866392122888e-05 4.27626738384951e-05 -0.000207543375958853
"210" -0.000159594478791778 -0.000185356649540526 -0.000180242423588599 -0.000320004098202883 8.10836653435406e-05 0.000136881620820094 -1.38378923065899e-05 3.05423295616933e-05 -0.000219248918491699 -0.000318387667057175 -8.8578129145622e-05 -0.000401304745762328 -0.000238417501179749 -5.75543333295627e-05 4.69436012842805e-05 -0.000197468535132048
"211" -0.000152909319616532 -0.000158802843588186 -0.000168730153388257 -0.000275474309055194 8.66130900013287e-05 0.000148253524108557 -6.27609084527562e-06 3.26058571123676e-05 -0.000238542395130058 -0.000315192682188012 -7.78344629678353e-05 -0.0003951053903248 -0.000240403506723923 -8.39844664259098e-05 5.02225788150806e-05 -0.000187521032768242
"212" -0.000148294720128353 -0.000135037899814696 -0.000157974888201803 -0.000231389668718445 9.04888987411148e-05 0.000159984526109995 -3.81012342801613e-07 3.41361499800428e-05 -0.000258732144635515 -0.000312456171541396 -6.80837525950138e-05 -0.000388977804433345 -0.000242987783099644 -0.000110759855766745 5.26060048009786e-05 -0.000177705582301556
"213" -0.000145906588678073 -0.000114273419664994 -0.000148100823034921 -0.00018798025815617 9.26713733196229e-05 0.000172121865418237 3.79519858106958e-06 3.51951221554178e-05 -0.000279795179199783 -0.000310187982182594 -5.93442002613235e-05 -0.000382947057159508 -0.000246172939678473 -0.00013777518184484 5.41028010196493e-05 -0.000168020184180022
"214" -0.000145888479429293 -9.66956862747006e-05 -0.00013923556613571 -0.000145472604590517 9.31396683698022e-05 0.000184708600218024 6.22513172510015e-06 3.58490826370921e-05 -0.000301703245979227 -0.000308397983027446 -5.16384635690688e-05 -0.00037703496126195 -0.000249952465368379 -0.000164908930048348 5.47315514394873e-05 -0.000158472275462136
"215" -0.000148341797814106 -8.24513869347259e-05 -0.000131491469212342 -0.000104078600230765 9.18797587401503e-05 0.000197776257555419 6.88557515709021e-06 3.61682483069625e-05 -0.000324418802285572 -0.000307087842381648 -4.49681847354911e-05 -0.000371261365378567 -0.000254309608963726 -0.000192043742338092 5.45223194740005e-05 -0.000149055975455764
"216" -0.000153350267548985 -7.16651483213302e-05 -0.000124959862629154 -6.4010768002699e-05 8.89039204161668e-05 0.000211345691501195 5.7805526632445e-06 3.62287029815309e-05 -0.000347911521723894 -0.000306255842908985 -3.93240380955887e-05 -0.000365647071316686 -0.000259213316519858 -0.000219073560053109 5.35169936797698e-05 -0.000139765708586046
"217" -0.000160970647820153 -6.44177503363333e-05 -0.000119732385811349 -2.54606879204808e-05 8.4236535069443e-05 0.00022543212354057 2.9316337089586e-06 3.6104526961606e-05 -0.000372136466404454 -0.000305894722272091 -3.47012644161868e-05 -0.00036020188444241 -0.0002646332457239 -0.000245879828539206 5.1762758269404e-05 -0.000130594826967942
"218" -0.000171228716363967 -6.07636061062652e-05 -0.000115873459866861 1.13854852919811e-05 7.7915134326912e-05 0.000240037228419938 -1.63457289956021e-06 3.58805510948176e-05 -0.000397053460440902 -0.000305985563399749 -3.10665418473961e-05 -0.000354947909946174 -0.000270517857125795 -0.000272365218638909 4.9317473162401e-05 -0.000121529709123979
"219" -0.000184112697634742 -6.0717909082726e-05 -0.000113447102400449 4.63662112561606e-05 6.99954146147873e-05 0.000255154498402028 -7.86065936611673e-06 3.56371690552364e-05 -0.000422604819280142 -0.000306513578536682 -2.83946113497864e-05 -0.000349894984108175 -0.000276820516020682 -0.000298418002746108 4.62464956147903e-05 -0.000112562774177546
"220" -0.000199601849323339 -6.42624124415661e-05 -0.000112493392662739 7.93323599837519e-05 6.05436019091481e-05 0.000270763617562543 -1.56844678947144e-05 3.54516933585074e-05 -0.000448742915113254 -0.000307455763144369 -2.66414318044841e-05 -0.000345055074010236 -0.000283477826876283 -0.000323943702740394 4.26209978606738e-05 -0.000103679909590103
"221" -0.000217630209436164 -7.13429330563035e-05 -0.000113036960626206 0.000110154421423732 4.9641210447217e-05 0.00028683451283469 -2.50231614107666e-05 3.54060668540481e-05 -0.000475410796648097 -0.000308781259505932 -2.57631074701803e-05 -0.000340436784247895 -0.000290426786432506 -0.000348856415389602 3.85146184920102e-05 -9.48667494925211e-05
"222" -0.000238114381909564 -8.18734249454443e-05 -0.000115093111777869 0.000138727879422996 3.73846849724716e-05 0.000303324474983905 -3.57826204130421e-05 3.55837321446286e-05 -0.000502546735221139 -0.000310454132315746 -2.57036749883503e-05 -0.000336051515693897 -0.000297594963643606 -0.000373074290606132 3.40126148646951e-05 -8.6104837543222e-05
"223" -0.000260950024551008 -9.5736846336518e-05 -0.000118656080481881 0.000164967718097205 2.38752108430282e-05 0.000320186784383515 -4.78585538170427e-05 3.60547140014227e-05 -0.000530085074128194 -0.00031244109070727 -2.64048089257789e-05 -0.00033190479094435 -0.000304906395937318 -0.000396517228553711 2.91972003897271e-05 -7.73863448257806e-05
"224" -0.000285995376186113 -0.000112787504037818 -0.00012371130664554 0.000188809697508956 9.22538529772258e-06 0.000337356630349751 -6.11282284561461e-05 3.68964343059966e-05 -0.000557959431697695 -0.000314697728730673 -2.7804793900334e-05 -0.00032800156916837 -0.000312276201698076 -0.000419125692682726 2.41575285932785e-05 -6.8690126114965e-05
"225" -0.000313097520854274 -0.0001328467840851 -0.000130225805451314 0.000210217931448396 -6.43644199435599e-06 0.000354764023673881 -7.54695098453923e-05 3.81772865813066e-05 -0.000586099818105338 -0.000317179799603777 -2.98343884731471e-05 -0.000324343368371321 -0.00031962868020385 -0.000440837944032758 1.89814542295239e-05 -6.00041088022749e-05
"226" -0.000342086360309538 -0.000155716265239273 -0.000138151702083297 0.000229177694775911 -2.29842833831838e-05 0.000372331127109908 -9.07459599093417e-05 3.99585222936803e-05 -0.000614433151460043 -0.000319842278632463 -3.24272538230421e-05 -0.000320939340121668 -0.000326874355992272 -0.000461608234516044 1.37554172087482e-05 -5.13122557383491e-05
"227" -0.000372769627604212 -0.000181172307666847 -0.000147432092943473 0.00024569884930435 -4.02871011431268e-05 0.000389972242481567 -0.000106814589401911 4.22994114394617e-05 -0.000642881810242862 -0.000322637913705436 -3.55106690065093e-05 -0.000317786412688377 -0.000333932842038441 -0.000481396086203724 8.57160121070528e-06 -4.26068434201562e-05
"228" -0.000404947725591543 -0.000208973981658769 -0.00015799666089244 0.000259816403807264 -5.82038723582109e-05 0.000407593170212674 -0.00012353208384109 4.52534231238265e-05 -0.000671373999298455 -0.000325513685527797 -3.90138045883981e-05 -0.000314887248575142 -0.000340715397406442 -0.000500174378673006 3.51083271257149e-06 -3.38723601119506e-05
"229" -0.000438400008173582 -0.000238858232501353 -0.000169761976305021 0.000271586087886376 -7.65937820030704e-05 0.000425098420271656 -0.000140747301666364 4.88639614169993e-05 -0.000699832407578228 -0.000328422841351001 -4.28705650296551e-05 -0.000312243784873386 -0.000347145970685465 -0.000517920947522929 -1.33971977794988e-06 -2.51005446048486e-05
"230" -0.000472917069511261 -0.000270553675623895 -0.000182636779877943 0.000281090862338115 -9.53213588530949e-05 0.000442385528896018 -0.000158314635044888 5.31707326177037e-05 -0.000728184493563214 -0.000331312632400428 -4.70070993763421e-05 -0.000309853310188301 -0.000353144677909973 -0.000534625021721545 -5.9077393938292e-06 -1.62851841732842e-05
"231" -0.000508260076839398 -0.000303776131446336 -0.000196520780700402 0.000288431447763943 -0.000114244496306541 0.000459349534384852 -0.000176081812836052 5.82008601873761e-05 -0.000756357526846869 -0.000334140794228616 -5.13592985945928e-05 -0.000307720110901313 -0.000358633897848741 -0.000550287663316398 -1.01174835100064e-05 -7.42228086090201e-06
"232" -0.000544209111070263 -0.000338238282808208 -0.00021130911532009 0.00029372768997671 -0.000133225822025553 0.000475887312552789 -0.000193905125716805 6.39761004125446e-05 -0.00078427614229261 -0.000336858291242372 -5.58617221170307e-05 -0.000305838100110794 -0.000363554363060413 -0.000564913226597868 -1.39047118369888e-05 1.49391881616179e-06
"233" -0.000580535677450778 -0.000373641900899286 -0.000226885300127957 0.000297122402143341 -0.000152141414308589 0.000491891685873883 -0.000211644276076804 7.05091822957135e-05 -0.000811868033919063 -0.000339424938950073 -6.0458541708645e-05 -0.000304210714337361 -0.00036783793490835 -0.000578514176550062 -1.72098002398392e-05 1.04566067446402e-05
"234" -0.000617022594589732 -0.0004096943803197 -0.000243132639201688 0.000298768734717713 -0.000170858425099915 0.000507262623239123 -0.000229162801203118 7.78034309578252e-05 -0.000839071794903575 -0.000341804702067881 -6.50954564892176e-05 -0.000302838736967128 -0.000371433038467429 -0.000591116708529189 -1.99870773774073e-05 1.94663408874062e-05
"235" -0.000653445811738715 -0.000446100974800101 -0.000259933648537592 0.000298839361166006 -0.000189265195224396 0.000521900014682841 -0.000246329656599962 8.58571839156537e-05 -0.000865826612609338 -0.000343962641185339 -6.97223702484629e-05 -0.000301719320004545 -0.000374291646379708 -0.000602752044634168 -2.21908345144696e-05 2.85141257811638e-05
"236" -0.000689605102196877 -0.000482575483839373 -0.000277169205633355 0.000297515086125607 -0.000207249897136033 0.000535707018815558 -0.000263030407145393 9.46520801306578e-05 -0.000892075280054378 -0.000345873265959368 -7.42946114096438e-05 -0.000300851952147906 -0.000376383337552272 -0.000613459339147037 -2.37900729171588e-05 3.75910851772936e-05
"237" -0.000725305369895721 -0.000518838067247636 -0.00029471032581941 0.000294989259791144 -0.000224711485211937 0.000548598524835225 -0.000279152477608691 0.00010416776375689 -0.000917759962540398 -0.000347514222571085 -7.87754306890756e-05 -0.000300240592389694 -0.00037767827190796 -0.000623278888526209 -2.47656844259719e-05 4.66824642032037e-05
"238" -0.000760358855866271 -0.000554618081641588 -0.00031244776177648 0.000291462121104878 -0.000241561574790532 0.000560491378073567 -0.000294598976799325 0.000114371751953721 -0.000942831934258618 -0.000348873712957545 -8.31387465335967e-05 -0.000299883289466216 -0.000378163355842348 -0.000632262072552672 -2.51011161493123e-05 5.57708015942228e-05
"239" -0.00079460134990932 -0.000589661539660702 -0.000330258097489317 0.000287136116414871 -0.000257727651491985 0.000571313632790254 -0.000309282698831713 0.000125225279248689 -0.000967250836487869 -0.000349943395694318 -8.73557332647196e-05 -0.000299783804439286 -0.000377828246761263 -0.000640467237769506 -2.47994386489074e-05 6.48396978357722e-05
"240" -0.000827883367112164 -0.000623723761371131 -0.000348036277569621 0.000282217084063314 -0.00027314112316506 0.00058100350460401 -0.000323132620915537 0.000136681219670316 -0.000990975792087985 -0.000350722699739627 -9.1409276931527e-05 -0.000299946114657082 -0.000376685244777315 -0.000647952662095407 -2.38644720570401e-05 7.3863198917808e-05
"241" -0.000860073614095925 -0.000656583167041112 -0.000365671860709329 0.000276915455221399 -0.000287748951698247 0.000589510682314017 -0.000336091623580242 0.00014868048162699 -0.00101398089754311 -0.000351225813149045 -9.52922343716211e-05 -0.000300367694161864 -0.000374749272464883 -0.000654785679635211 -2.23205548486004e-05 8.28182933520245e-05
"242" -0.000891055940520798 -0.000688030112244997 -0.000383071173518442 0.000271432355582985 -0.000301514713413171 0.000596790515946972 -0.000348110095964286 0.000161162623078215 -0.00103622923802116 -0.000351466054511844 -9.90032814086753e-05 -0.000301056062297246 -0.000372052797817771 -0.000661032414488015 -2.01967861996054e-05 9.16759592638839e-05
"243" -0.000920738547610438 -0.000717883757352965 -0.000400138618903053 0.000265966869807204 -0.000314417985629999 0.000602821860843442 -0.000359159985185556 0.00017405777053647 -0.00105770243541526 -0.000351469199114851 -0.000102539414879195 -0.000302014322533807 -0.000368630386681809 -0.000666764534311509 -1.75300036836787e-05 0.000100403660295592
"244" -0.000949050167173146 -0.000745977339856972 -0.000416792779675637 0.000260710401863365 -0.00032644236215032 0.000607590224568129 -0.000369226141267958 0.000187289772411437 -0.00107837925225746 -0.000351269876140898 -0.000105921207872647 -0.000303245793915135 -0.000364541457343252 -0.000672053505696383 -1.43708484749551e-05 0.000108971720282172
"245" -0.000975938267478329 -0.000772168429465035 -0.000432966245429288 0.000255845034164596 -0.000337594361226196 0.000611093003465527 -0.000378309026623777 0.000200777979557851 -0.0010982396886185 -0.000350909978960712 -0.000109158251959604 -0.000304753919464685 -0.00035984634381574 -0.000676968329686834 -1.07748026498909e-05 0.000117342139673844
"246" -0.00100137271060264 -0.000796337792636311 -0.000448593148777818 0.000251542780502207 -0.000347894001313867 0.00061334629149397 -0.000386422667271205 0.000214436331559928 -0.00111727315103092 -0.00035043584021172 -0.000112277010031393 -0.000306544186867939 -0.000354615875934912 -0.000681588058119789 -6.80966211238072e-06 0.000125480946937331
"247" -0.00102535052031775 -0.000818394817094981 -0.000463629509629367 0.000247961145140435 -0.000357368522543858 0.000614376818017534 -0.00039359357888467 0.000228177058742992 -0.00113547002564569 -0.000349907668801347 -0.000115307559691326 -0.000308618455689569 -0.000348935966111987 -0.000685979915698966 -2.5487416387466e-06 0.00013334717986949
"248" -0.00104787538675705 -0.000838263506322731 -0.000478029609487688 0.000245242792178384 -0.000366062695867527 0.000614226098992105 -0.000399865428127483 0.000241902171198252 -0.00115281680970441 -0.000349382048846722 -0.000118285019846088 -0.000310984994246087 -0.000342896842482112 -0.000690217428866821 1.93234483123328e-06 0.000140902045399787
"249" -0.0010689850524104 -0.000855899982470303 -0.000491769725340291 0.000243511307351898 -0.000374031760595508 0.000612949645315087 -0.000405293692666591 0.000255525365063561 -0.00116930682086161 -0.000348929192555462 -0.000121249900544454 -0.000313644925031588 -0.000336596980099193 -0.000694365244499176 6.54363145082915e-06 0.000148106447196882
"250" -0.00108872218390619 -0.000871283492264389 -0.000504829813799675 0.000242878000749185 -0.000381341584187821 0.00061061601438762 -0.000409943834314445 0.000268944552022535 -0.00118492655476552 -0.000348623122643151 -0.000124244689094649 -0.000316597517179839 -0.000330144783341962 -0.000698482379478488 1.12028419909828e-05 0.000154923480896373
"251" -0.00110716851155845 -0.000884414956246555 -0.000517216487679826 0.000243433624637764 -0.000388077365719729 0.000607304288042133 -0.000413895321446631 0.000282064975097999 -0.00119967667397387 -0.000348535776652886 -0.000127318926141408 -0.000319849357796065 -0.000323654626937778 -0.000702633905075996 1.5811752558722e-05 0.000161306491652584
"252" -0.00112439805421678 -0.000895321557902702 -0.0005289265378915 0.000245244123912994 -0.000394317928863285 0.000603105801249877 -0.000417237218802467 0.000294795541306178 -0.00121354393668507 -0.000348746224929807 -0.000130520835036349 -0.000323400213015289 -0.000317239497785953 -0.000706870602130402 2.02837163113874e-05 0.000167223570687355
"253" -0.00114051772876472 -0.000904045972009384 -0.000539984010119989 0.000248362187830221 -0.000400161484392938 0.000598125937435161 -0.000420065698373619 0.000307036225124232 -0.00122651290782741 -0.000349332394236549 -0.000133903735808803 -0.000327250377245382 -0.000311017382097821 -0.000711233919540312 2.45202051956531e-05 0.000172633569768682
"254" -0.00115564338876185 -0.000910657632936587 -0.000550417734806538 0.000252818860318157 -0.000405714126131459 0.000592474587578596 -0.000422485908653928 0.000318697425637316 -0.00123858022649706 -0.000350375385985959 -0.000137523605298032 -0.000331392770433145 -0.000305114276704718 -0.000715768036768379 2.84300636635923e-05 0.000177501452718923
"255" -0.00116990490598141 -0.00091525160234199 -0.000560267598359726 0.000258620663582709 -0.000411076534353661 0.000586271845751451 -0.000424604247624495 0.000329692267821127 -0.00124972929817306 -0.000351951658712903 -0.0001414350578604 -0.000335826732481791 -0.000299648814756653 -0.00072050048377791 3.19239982934539e-05 0.000181791242447065
"256" -0.00118343226946311 -0.000917929443696507 -0.000569578298849469 0.000265757529297792 -0.000416365243259707 0.000579643164323539 -0.000426540345222232 0.000339938454513194 -0.00125994323517037 -0.000354135531948582 -0.000145690672258267 -0.000340546760105588 -0.000294738038290212 -0.000725450058596252 3.49150122826867e-05 0.000185471192911852
"257" -0.00119637461378423 -0.00091882202876473 -0.000578415476045617 0.000274198077497407 -0.00042169238496557 0.000572720591527018 -0.000428410470124924 0.000349356730155885 -0.00126920471012945 -0.000356996063498554 -0.000150344545761094 -0.000345541849542942 -0.000290499669832957 -0.000730634150370285 3.73189918250845e-05 0.000188512645475474
"258" -0.00120888409847536 -0.000918068490514426 -0.000586834963397399 0.000283889647390112 -0.000427171783646495 0.000565641382714957 -0.000430329773387834 0.000357877761041458 -0.00127749438169582 -0.000360598409964013 -0.00015544109359229 -0.000350803387392513 -0.000287047717444396 -0.000736051000577503 3.90629685055949e-05 0.000190894808605094
"259" -0.00122111500534063 -0.000915820690981947 -0.000594914580947061 0.00029476387328974 -0.000432920175647682 0.000558540730482353 -0.000432416419745051 0.000365430288328745 -0.00128478636780604 -0.000365003319067311 -0.000161032408398396 -0.000356318688644169 -0.000284482756025557 -0.000741687253720367 4.00767998327575e-05 0.000192589839985341
"260" -0.0012332211630977 -0.000912253320082712 -0.000602727028418062 0.000306732902520184 -0.000439045519165372 0.000551556542242112 -0.000434787789657516 0.000371962174427724 -0.00129106225490736 -0.000370254823994691 -0.00016715552414906 -0.00036207018061049 -0.000282900153244135 -0.000747530100420509 4.02999881116484e-05 0.000193586168586197
"261" -0.00124535798659394 -0.000907537990929632 -0.000610349838578148 0.000319691467406413 -0.000445655348958728 0.000544824876616425 -0.000437551958933048 0.000377425787654937 -0.00129628190540973 -0.00037639849046045 -0.000173848368193097 -0.000368043255814166 -0.000282390137244584 -0.00075353597754583 3.9686140905133e-05 0.000193869611025965
"262" -0.00125767034563563 -0.000901860654692698 -0.000617864737487791 0.00033352157675565 -0.000452850092181526 0.000538475072167966 -0.000440808055384305 0.00038177584384469 -0.00130042750501141 -0.000383458567190925 -0.000181135066194127 -0.000374210683959687 -0.000283022263148925 -0.000759673501969255 3.81899904397593e-05 0.000193434765608811
"263" -0.00127030623866966 -0.000895409249221591 -0.000625357854154911 0.000348089387586196 -0.000460722532231243 0.000532639831644135 -0.000444660363617379 0.000384989526374441 -0.00130345024835467 -0.000391457756680351 -0.000189041674785979 -0.000380551680470418 -0.00028486146523779 -0.000765875530689592 3.57870472979224e-05 0.00019227921224358
"264" -0.00128339978859356 -0.00088837522610942 -0.000632913244506719 0.000363250542922475 -0.000469357213333417 0.000527437192981982 -0.000449193290522997 0.000387041465079819 -0.00130532339181957 -0.000400398614527471 -0.000197577610973473 -0.000387040049032271 -0.000287953257372001 -0.000772084620372588 3.24591350179955e-05 0.000190410892121829
"265" -0.00129707191078653 -0.000880954800647475 -0.000640607946036102 0.000378851086064931 -0.000478829074461146 0.000522977374400937 -0.00045448076803646 0.000387924881680857 -0.0013060032297692 -0.000410278602512733 -0.00020674481562364 -0.000393642540581131 -0.000292330678680342 -0.000778217316476688 2.82020664333048e-05 0.000187833629245356
"266" -0.00131143340305278 -0.000873333828524521 -0.000648515639136181 0.000394726983742618 -0.00048919453861597 0.000519365699180608 -0.000460593145690574 0.000387639766665598 -0.00130544055373055 -0.000421073353251862 -0.000216537972577877 -0.000400331594837369 -0.000298010965625844 -0.000784186170015735 2.30265727074505e-05 0.000184569049162525
"267" -0.00132657796659123 -0.000865700477854348 -0.000656717726776183 0.000410712606811633 -0.000500507919069123 0.000516690655936077 -0.000467576545357572 0.000386199708110743 -0.00130359653538424 -0.000432749994623894 -0.000226936089643225 -0.000407068658992951 -0.000304996641633366 -0.000789897342909117 1.6948314856799e-05 0.000180639613042433
"268" -0.00134258355149057 -0.000858235968760784 -0.000665276121899917 0.000426632538092592 -0.000512800176327939 0.000515032034539264 -0.000475475393677258 0.000383626685772483 -0.00130042194601356 -0.000445264718329801 -0.000237913749561736 -0.0004138183214432 -0.000313262817673757 -0.000795241796522936 1.000836553319e-05 0.000176071537652122
"269" -0.00135950147561076 -0.000851108816119359 -0.000674250006138636 0.000442315170200918 -0.000526089579632047 0.000514455225099409 -0.000484311067149147 0.00037995533829689 -0.00129585214910369 -0.000458550738544641 -0.000249430398375851 -0.000420537564821114 -0.000322780714847758 -0.000800108058465916 2.2515101985078e-06 0.000170900812982113
"270" -0.00137737845226858 -0.00084447647499799 -0.000683694477815951 0.000457587354821744 -0.000540382412511962 0.000515005177143045 -0.000494088432387741 0.000375228864221735 -0.00128983852737106 -0.00047254117144044 -0.000261430072134893 -0.000427188252281717 -0.00033349132091216 -0.000804372725282109 -6.26436066203647e-06 0.000165168751934327
"271" -0.00139623196569029 -0.000838486351610898 -0.000693651603122885 0.000472283217789417 -0.000555666168899861 0.000516719329094442 -0.000504807516747543 0.000369505725942783 -0.00128232948928241 -0.00048714829864162 -0.000273858425783555 -0.000433723342549314 -0.000345333165327551 -0.000807921695615581 -1.54646777192758e-05 0.000158918858984772
"272" -0.0014160468151303 -0.000833271328275105 -0.000704147949856644 0.000486235503705714 -0.000571909602012681 0.000519610596292976 -0.000516440217002506 0.000362846749796359 -0.00127325798821594 -0.00050227262525366 -0.00028663733636915 -0.000440098559723131 -0.000358208503129336 -0.000810622486607651 -2.52678398363294e-05 0.000152202114094118
"273" -0.00143679228313967 -0.000828943797748894 -0.000715208139994435 0.000499288644044185 -0.000589066228064773 0.00052368305017271 -0.00052894800424495 0.000355331115709007 -0.00126255834164676 -0.000517803225134676 -0.000299685176260395 -0.000446265706550692 -0.000372020017537911 -0.000812347598117191 -3.55808250040709e-05 0.000145076829628077
"274" -0.00145842631959347 -0.000825602859818524 -0.000726839199893597 0.00051129813020455 -0.00060707559385745 0.000528913920872382 -0.000542276275994167 0.000347037813281846 -0.00125017385203226 -0.00053362771474538 -0.000312907515842819 -0.000452176734575866 -0.000386645663438242 -0.000812972444175493 -4.62979517795257e-05 0.000137599689163042
"275" -0.0014808664030387 -0.00082332514661402 -0.000739038170342343 0.000522127919654722 -0.000625858357670728 0.000535270063224669 -0.000556358677148459 0.000338061409492038 -0.00123604733614069 -0.000549613286399243 -0.000326208859801862 -0.000457780804236073 -0.000401955045099505 -0.000812379759141761 -5.7309832398507e-05 0.000129834799684851
"276" -0.00150401776511651 -0.000822164451141232 -0.000751788050433239 0.000531656881156958 -0.000645317835602961 0.000542697455779773 -0.000571105390319107 0.000328498728183432 -0.00122011973642567 -0.000565629333964159 -0.00033947437986272 -0.000463027204736875 -0.000417795146231201 -0.000810448181374181 -6.84947098930876e-05 0.000121846033815578
"277" -0.00152775156217966 -0.000822161083068879 -0.000765053198774463 0.000539780277685367 -0.000665341769362486 0.000551125768513262 -0.000586421785065071 0.00031845544977735 -0.00120233067608354 -0.000581529616027042 -0.00035259294094342 -0.000467866068937819 -0.000434009108619125 -0.000807068888029857 -7.97296250146913e-05 0.000113707770679639
"278" -0.00155193852493404 -0.00082332976329735 -0.000778800062393875 0.000546408634305005 -0.000685808136759319 0.000560469269246417 -0.000602200264458087 0.00030803948093802 -0.00118263993482905 -0.00059716968246044 -0.000365440266381912 -0.000472244846920919 -0.000450425231928968 -0.000802142687489068 -9.08844613151784e-05 0.0001054825963954
"279" -0.0015764147402495 -0.000825661000152074 -0.000792963840097476 0.000551470654679477 -0.000706580953942281 0.000570624148315458 -0.00061831408648432 0.000297366207720594 -0.00116099544436206 -0.000612402220728118 -0.000377895568289277 -0.000476113299203289 -0.000466868827156157 -0.000795572122027079 -0.000101825947975798 9.72469695157536e-05
"280" -0.00160099714280359 -0.000829131338553662 -0.0008074799358029 0.000554913793005289 -0.000727506304795114 0.000581475638509502 -0.000634629880603466 0.000286554543323452 -0.00113737113664467 -0.000627069578687744 -0.000389829465437624 -0.000479420741325876 -0.000483151038678125 -0.000787286285885205 -0.000112417145817436 8.9073289296353e-05
"281" -0.00162549097072984 -0.000833689194605428 -0.000822265091899081 0.000556705326825802 -0.000748424280194468 0.000592889194991365 -0.000651007415816886 0.000275724679825189 -0.00111173573298823 -0.000641022119005994 -0.000401115761500571 -0.000482118378668109 -0.000499079639997737 -0.000777213826021063 -0.000122521572774426 8.10299865845742e-05
"282" -0.00164969127444596 -0.000839266939897522 -0.000837225283128899 0.000556835026519824 -0.000769167985664172 0.000604719469991789 -0.000667295199858604 0.000264993199420234 -0.00108408324539362 -0.000654109808464606 -0.000411624299777 -0.000484157668992851 -0.000514466235841441 -0.000765308203425766 -0.000132009276764492 7.3189736714883e-05
"283" -0.00167337943465129 -0.000845771798239271 -0.000852258983806916 0.000555311391734985 -0.000789554817120024 0.000616816844449996 -0.000683342777990951 0.000254479556163052 -0.00105441278657753 -0.0006661778044766 -0.000421230990007776 -0.000485487480672673 -0.000529109260776857 -0.000751530773168703 -0.00014074264999417 6.56192155740516e-05
"284" -0.00169631522269311 -0.000853101242646606 -0.000867245422204888 0.000552160168821935 -0.000809402650985057 0.000629013473105193 -0.000698981174331039 0.000244304151130477 -0.00102274127165985 -0.000677083229531349 -0.000429810457547174 -0.000486068150972441 -0.000542816066644781 -0.000735861071204283 -0.000148592236428451 5.83923065264919e-05
"285" -0.00171826726398744 -0.000861123982552502 -0.000882065570925629 0.00054743476632735 -0.000828522317676178 0.000641140564139472 -0.000714052711603501 0.000234580290660459 -0.000989092275150358 -0.000686678647058068 -0.000437247139653044 -0.000485850468835171 -0.000555394503563617 -0.000718292950311844 -0.000155436808272684 5.15662498597069e-05
"286" -0.00173899323530316 -0.000869705194385267 -0.000896587875322173 0.000541201687874844 -0.000846723928773024 0.000653017881935415 -0.000728395873507203 0.000225420199112611 -0.000953527639225157 -0.000694834578041801 -0.000443427016806021 -0.000484797065332586 -0.000566654243466218 -0.000698841213158556 -0.000161159799643223 4.52069022393567e-05
"287" -0.00175825353964049 -0.000878684733112074 -0.000910674268539354 0.000533550968373493 -0.000863815762253602 0.000664471427977444 -0.000741841596431947 0.000216926681076497 -0.000916102885517183 -0.000701416685779899 -0.000448243249817133 -0.000482866498248409 -0.000576417290034726 -0.000677528760883245 -0.000165647573463891 3.93702474780194e-05
"288" -0.00177579981751781 -0.000887897830097572 -0.00092417658785567 0.000524587904191647 -0.000879604287380164 0.000675312617199362 -0.000754231628470609 0.000209205784439603 -0.000876893902490042 -0.000706305316694826 -0.00045159855843939 -0.000480024359709331 -0.00058450547495227 -0.000654400940340708 -0.000168804119356131 3.41104436596651e-05
"289" -0.00179138735115803 -0.000897164745110851 -0.000936944731537675 0.000514432562201458 -0.000893904041185201 0.000685365422319122 -0.00076540665182539 0.000202349060244632 -0.000836009680205305 -0.000709385654256424 -0.000453403286782313 -0.000476236548150535 -0.000590752006618899 -0.000629516150600485 -0.00017053281917649 2.94793710312608e-05
"290" -0.00180478672936401 -0.00090630048570516 -0.000948835423422048 0.000503225853636306 -0.000906527673748142 0.000694449996354193 -0.000775218667538433 0.000196439911230268 -0.000793559800298384 -0.000710561493836999 -0.000453581177044452 -0.000471472875826078 -0.000595004564393657 -0.000602940792040837 -0.0001707568277567 2.55195362615877e-05
"291" -0.00181577125142625 -0.000915109081146613 -0.000959690119579315 0.00049111739642062 -0.00091730239890324 0.000702394962496753 -0.00078352089756138 0.000191557723308607 -0.000749676203133327 -0.000709738132642262 -0.000452059836302331 -0.000465706680120066 -0.00059711996693797 -0.000574765152957527 -0.000169406161227274 2.22715789206503e-05
"292" -0.00182411768772759 -0.000923390822762904 -0.000969357056754836 0.000478271217770972 -0.000926057362249838 0.000709033409212471 -0.000790171839819929 0.000187770066829053 -0.000704501427663578 -0.000706833433679497 -0.000448784176544505 -0.000458914538417956 -0.000596970564743683 -0.000545083677487399 -0.00016642331004358 1.97734311976253e-05
"293" -0.00182962853831274 -0.000930949387291554 -0.000977689341967572 0.000464858024767553 -0.000932629515422006 0.000714211491565118 -0.000795055418448362 0.000185137029656275 -0.000658187983712879 -0.000701786402734801 -0.00044370867278545 -0.000451078804042697 -0.000594440237065954 -0.000514002217626921 -0.000161764168810376 1.80495054274657e-05
"294" -0.00183210887503501 -0.000937578483787455 -0.000984536140662903 0.000451060839064787 -0.000936872821687063 0.000717782291688788 -0.000798049051638885 0.000183706395168043 -0.000610914063275355 -0.000694541036647541 -0.000436794614203276 -0.000442182200681043 -0.000589429055956406 -0.000481646879946813 -0.000155401909513529 1.71294800150246e-05
"295" -0.00183138356045041 -0.000943084585974139 -0.000989756876583445 0.000437062785490718 -0.000938647697515037 0.000719614507234683 -0.000799054906451067 0.000183514883680145 -0.000562856321722154 -0.000685057850937369 -0.000428023854063837 -0.000432214837696559 -0.000581858648299359 -0.000448137665468751 -0.000147315065971075 1.70303900747061e-05
"296" -0.00182729475629064 -0.000947266350141796 -0.000993211481889294 0.000423052254287509 -0.00093783128353295 0.000719591843331064 -0.000797980914096925 0.000184591060112664 -0.000514201715349042 -0.000673311100453938 -0.000417385049768612 -0.00042117081908186 -0.0005716600043319 -0.000413613535508646 -0.000137503501250001 1.77678341829966e-05
"297" -0.00181970656417916 -0.000949941495160537 -0.000994771808082805 0.000409220088988757 -0.000934317896065836 0.000717610959231689 -0.000794754217762081 0.000186953451832878 -0.000465147948036206 -0.00065929096435052 -0.000404877638982427 -0.00040904292945524 -0.00055878712725545 -0.000378218017431591 -0.000125975574991182 1.9348087211256e-05
"298" -0.00180850148678019 -0.000950923880530795 -0.000994316271667995 0.000395755529818478 -0.000928012362927299 0.000713589765457427 -0.000789314360465871 0.000190602046837943 -0.000415884435294356 -0.000642998431072564 -0.000390518067473045 -0.000395837468753295 -0.000543210383229836 -0.000342093017139438 -0.000112763266079702 2.17787751452931e-05
"299" -0.00179358283517801 -0.000950045837425854 -0.000991735852020017 0.000382840394053008 -0.000918841278285444 0.000707462147085206 -0.000781621075949092 0.00019553332015731 -0.000366622568439074 -0.00062445836145566 -0.000374325390070526 -0.00038155543828031 -0.000524922169472801 -0.000305398047117574 -9.7902586844742e-05 2.50547014065113e-05
"300" -0.00177487161767354 -0.000947144712920784 -0.000986925332960181 0.000370654990616688 -0.000906742459110339 0.000699180520760242 -0.000771644758590224 0.000201731829596525 -0.000317555604453338 -0.000603701205340259 -0.000356346386199918 -0.000366210167927394 -0.000503925343656263 -0.000268283263585409 -8.14467862184517e-05 2.91694608860261e-05
"301" -0.00175231884310849 -0.000942074155077781 -0.000979794557254368 0.000359371286262805 -0.000891682241353313 0.000688719193957203 -0.000759379661252326 0.000209169342356408 -0.00026888070024078 -0.000580774650400992 -0.000336619684425696 -0.000349813019016816 -0.000480249554285845 -0.00023090605016638 -6.34620976674507e-05 3.41144036639033e-05
"302" -0.00172589835251252 -0.000934704952151205 -0.00097026835291703 0.000349147884437638 -0.000873635370486851 0.000676070640267688 -0.000744834162210975 0.000217807112949531 -0.000220798431191508 -0.000555749555834245 -0.000315205486462593 -0.000332385250843278 -0.000453936805104103 -0.000193426118863864 -4.40306544267172e-05 3.98694546818866e-05
"303" -0.00169560324266975 -0.000924918999769647 -0.000958284741488496 0.000340134219880151 -0.000852601403684417 0.000661251689077088 -0.000728030924841199 0.000227598939944048 -0.000173491035585394 -0.000528700028802917 -0.000292173701145865 -0.000313946108054518 -0.000425051096994502 -0.000156003239424822 -2.32423984149805e-05 4.64193904994029e-05
"304" -0.00166145353074113 -0.000912621223927058 -0.000943791372664941 0.000332464594246915 -0.000828601405712775 0.000644293986542815 -0.000709016259218613 0.000238481309491861 -0.000127138631807012 -0.000499725072913023 -0.000267604549960605 -0.000294526480724083 -0.000393676958765243 -0.000118792519700248 -1.20409957922681e-06 5.37338175141726e-05
"305" -0.00162349472123291 -0.000897731339637141 -0.000926754263309775 0.000326261376833188 -0.000801674183901711 0.000625251512071995 -0.000687845586207364 0.00025039091747449 -8.19107840562307e-05 -0.000468933861331573 -0.000241581531054499 -0.00027415239865515 -0.000359912913033073 -8.19497728988945e-05 2.19712123325338e-05 6.17830390945983e-05
"306" -0.00158179463402399 -0.000880191697662494 -0.000907150631823142 0.000321626301499491 -0.000771873621443417 0.00060420122751373 -0.000664601532961371 0.000263254416461304 -3.7965505156649e-05 -0.000436445279515805 -0.000214205087255023 -0.000252858997630717 -0.000323871609383397 -4.56244319088821e-05 4.6159570407114e-05 7.0536717809967e-05
"307" -0.00153644253817462 -0.000859957827881595 -0.000884980015678895 0.000318645991851416 -0.000739277186625484 0.000581230668583132 -0.0006393772539969 0.000276984290009928 4.54553984184606e-06 -0.000402398004812502 -0.000185573153258797 -0.000230686778155383 -0.000285684712221387 -9.96969621018606e-06 7.12242778767892e-05 7.99565939396792e-05
"308" -0.00148755334724723 -0.000837014461115185 -0.000860251485505659 0.000317384308170358 -0.000703989373238722 0.000556454036336294 -0.000612280950493398 0.000291489341137457 4.54941224289212e-05 -0.000366940097084921 -0.000155804924070252 -0.000207675460463866 -0.000245500436173252 2.48759590103347e-05 9.70296382272849e-05 9.00009484652973e-05
"309" -0.00143526801425782 -0.000811369743530855 -0.000832993918386519 0.000317889325058495 -0.0006661203798214 0.000529996952478152 -0.000583437768809374 0.000306674825579984 8.47654531695178e-05 -0.000330234716687764 -0.000125013273046788 -0.000183866516371087 -0.000203480416790619 5.87683079101141e-05 0.000123420661726941 0.000100625544547718
"310" -0.00137974111189907 -0.000783041573539074 -0.00080324411390975 0.000320186629400037 -0.00062580770193088 0.000502000892566985 -0.000552988274105434 0.000322435199981648 0.00012225183475681 -0.000292449891977303 -9.33276059519707e-05 -0.000159312964499156 -0.000159793518235349 9.15810457974733e-05 0.000150249390639845 0.000111785224378704
"311" -0.00132115971365451 -0.000752075339289213 -0.000771069045089779 0.000324281265699345 -0.000583201313804093 0.000472622904125252 -0.000521083341948274 0.000338661292984906 0.000157871427414934 -0.000253767184881559 -6.08782799907991e-05 -0.000134059990825176 -0.000114633705947037 0.000123190843014211 0.000177356830747366 0.000123425529136149
"312" -0.00125971896654866 -0.000718545627051308 -0.000736535853132624 0.000330156468735043 -0.00053847578430009 0.000442033921391271 -0.000487884381935664 0.000355245585368363 0.000191542678088622 -0.000214373156406426 -2.77986312208637e-05 -0.000108161676686491 -6.81940057479717e-05 0.000153470440805879 0.000204583047332118 0.000135498555975253
"313" -0.00119563972796063 -0.000682537309857559 -0.000699737120652171 0.000337777067152184 -0.000491810689800685 0.000410412552632576 -0.000453571218387775 0.000372068006297411 0.000223221974061427 -0.000174464060161265 5.77066593324467e-06 -8.16728025140512e-05 -2.06761597015692e-05 0.000182317763811901 0.000231766818681967 0.000147943694154731
"314" -0.00112916648080725 -0.000644162813803628 -0.000660775897480711 0.000347081607125935 -0.000443413297801322 0.000377946618651408 -0.00041832844977906 0.000389014668876626 0.000252860736734756 -0.000134241629764178 3.96839199972613e-05 -5.46512108151302e-05 2.77001610955527e-05 0.000209634057769268 0.000258745474493197 0.000160707894382437
"315" -0.00106054697290906 -0.000603552340510086 -0.000619771325850847 0.000357997203152737 -0.000393493781399306 0.000344835415440713 -0.000382346868857019 0.000405966109472677 0.000280437542467261 -9.3909585977974e-05 7.37944191930651e-05 -2.71551785331967e-05 7.67205889459637e-05 0.00023531928074002 0.000285358656460971 0.000173731280722518
"316" -0.000990055448892109 -0.000560853869927491 -0.000576855035567995 0.000370423402430056 -0.000342280747650274 0.00031127955460086 -0.000345820910476448 0.000422802438387831 0.000305938611312008 -5.3674665362813e-05 0.00010795875333428 7.55729515579759e-07 0.000126161514745227 0.000259296689303197 0.000311453503859743 0.000186954586022701
"317" -0.000917968486428043 -0.000516236891753633 -0.00053217356611101 0.000384243966292277 -0.000290008802723251 0.000277487413360727 -0.000308956966964706 0.000439408092734341 0.000329365230519019 -1.37407479909561e-05 0.000142023606648767 2.90220609243444e-05 0.000175797595424293 0.000281496161848954 0.000336875217349454 0.000200316438478015
"318" -0.000844586770142474 -0.000469884791005265 -0.000485884794308998 0.000399326742161251 -0.000236927420583724 0.0002436657162252 -0.000271958095230094 0.000455665602691261 0.000350726884914662 2.5683898721914e-05 0.000175843823663478 5.75772875246878e-05 0.000225399469401096 0.000301849212561399 0.00036147690932537 0.000213755209791995
"319" -0.000770209767828174 -0.00042200250313313 -0.000438151919809915 0.000415521602255442 -0.000183287707533056 0.000210023724107433 -0.000235026561576467 0.000471459814355275 0.000370051424211292 6.43967514462881e-05 0.000209269869353998 8.63623441550537e-05 0.000274746891552279 0.000320309060422801 0.000385123246859112 0.000227211053238196
"320" -0.000695152103214359 -0.000372803851250103 -0.00038915810382382 0.000432666245622317 -0.000129355346300112 0.000176763606555279 -0.000198375470190484 0.000486682614862661 0.000387359364847621 0.00010220381767094 0.000242158935725005 0.000115311265213632 0.000323614100063071 0.000336829774851168 0.000407676294830108 0.000240626580325308
"321" -0.000619727763291075 -0.000322517926754131 -0.00033908667590537 0.000450582719405578 -7.53896326433477e-05 0.000144093873592664 -0.00016219810245331 0.000501227082556488 0.000402696203957186 0.000138912274732981 0.000274369360914748 0.000144359988063459 0.000371792484872134 0.00035138287877654 0.000429023465049196 0.000253939278009467
"322" -0.000544257638662913 -0.000271381433012539 -0.000288135970166762 0.000469085035018647 -2.1655077883139e-05 0.000112203915358466 -0.00012669623745734 0.000514994569397053 0.00041609260779062 0.000174345357696873 0.000305764636496485 0.000173445552320619 0.000419068280471568 0.000363948189713164 0.000449045575664242 0.000267091555305433
"323" -0.000469062050611028 -0.000219643526166653 -0.000236506039712736 0.000487977193754012 3.15815109113189e-05 8.12879733166498e-05 -9.20557104372444e-05 0.000527887433257314 0.000427606229075304 0.000208330028334083 0.000336209230780407 0.000202505557732478 0.000465241708472442 0.00037451889463681 0.000467649935878859 0.000280031342282736
"324" -0.000394457458783301 -0.000167559580602916 -0.000184400470317114 0.000507055144886637 8.40550529695229e-05 5.1524423557657e-05 -5.84612266556081e-05 0.000539822254093523 0.000437274833133281 0.000240710074071369 0.000365584018936899 0.000231470928709552 0.000510127207254331 0.000383092953387104 0.000484745547928104 0.000292705232337912
"325" -0.000320758875548744 -0.000115388692187474 -0.000132026843126414 0.000526112073830234 0.000135512052355819 2.30807052858849e-05 -2.60834099594641e-05 0.000550717605825462 0.000445149981528642 0.0002713409592141 0.000393772875965829 0.000260284293055066 0.000553548655986088 0.000389685351016834 0.000500262770368713 0.000305065555243064
"326" -0.00024826909379717 -6.3392890270985e-05 -7.95971216858277e-05 0.000544939320703685 0.000185698545832244 -3.88630105562355e-06 4.92111585205413e-06 0.000560501719766977 0.000451281636100099 0.000300096377970684 0.000420666917239624 0.000288878588284918 0.000595342475871835 0.000394320765048955 0.000514138408501584 0.000317063916814339
"327" -0.000177297562721153 -1.18369498999542e-05 -2.73273458006495e-05 0.000563328524311577 0.000234367024093592 -2.92308305613971e-05 3.44018145014013e-05 0.000569112064494687 0.000455709717158254 0.000326859285616421 0.000446172133968482 0.000317195313251403 0.000635361058722415 0.000397031756282474 0.000526328239474087 0.000328663472639827
"328" -0.000108124221325391 3.90205114503652e-05 2.45786507326765e-05 0.000581071663893408 0.000281289987604928 -5.28266588850069e-05 6.22247558483395e-05 0.000576492875251595 0.000458481520726207 0.000351540325439277 0.000470199725544303 0.000345170505677776 0.000673477757474496 0.000397866551877339 0.000536798553637614 0.00033982388077742
"329" -4.10210404720037e-05 8.89217670720145e-05 7.59094755306049e-05 0.000597965752407661 0.000326246856348384 -7.45597794910636e-05 8.8276569773979e-05 0.000582603533667987 0.000459645051338273 0.000374062765703153 0.000492675574704339 0.000372742903784471 0.00070957939977591 0.000396884594870889 0.000545535087575995 0.00035051309152228
"330" 2.37560974050213e-05 0.000137617229834994 0.000126463766845143 0.000613814442982579 0.000369030079566133 -9.43376643200727e-05 0.000112456696998653 0.000587409323399237 0.0004592313309033 0.000394369241597942 0.000513542276827984 0.000399856867835039 0.000743574211900261 0.000394145707437217 0.000552532786334571 0.000360707407393236
"331" 8.59642752403132e-05 0.000184864163847026 0.000176042546151291 0.000628433169190382 0.000409453892552992 -0.00011208006450431 0.000134679621056821 0.000590883471782513 0.000457289117888419 0.000412424209973697 0.000532747588993578 0.000426450487992629 0.000775387402799101 0.000389734856113247 0.000557802435502072 0.00037038005999221
"332" 0.000145385666674139 0.000230435392161745 0.000224455843529465 0.000641646843379468 0.000447341028608041 -0.000127729190578749 0.00015488038488635 0.000593018008212376 0.00045385307607959 0.000428207165802821 0.000550256830998287 0.00045246972177795 0.000804960423737806 0.00038373747588513 0.00056136853292282 0.000379517055249678
"333" 0.000201831914923968 0.000274108925912595 0.000271524720739875 0.000653290784910425 0.000482547037594646 -0.000141244324288715 0.000173015446770888 0.000593806951604846 0.000448961835616425 0.000441722466398115 0.000566047008633007 0.000477860656538249 0.000832263095815126 0.000376249357757862 0.000563267854298591 0.000388103554794559
"334" 0.000255121986933124 0.00031568526081856 0.000317070764218042 0.000663218504734386 0.000514937907906596 -0.00015260090660375 0.00018904952151414 0.000593258809945274 0.000442671117311613 0.000452990596347414 0.000580107923181195 0.000502567275537524 0.000857274786592694 0.000367386492201224 0.000563552123103957 0.000396134737983406
"335" 0.000305109245728299 0.00035497549935204 0.000360933415907527 0.000671299520437207 0.00054440195411597 -0.000161799847459458 0.000202973666356493 0.000591393589942087 0.000434999823286669 0.000462048772326942 0.000592441743846439 0.000526538748365412 0.000879998997178041 0.000357248351661107 0.000562282387843555 0.000403605305041527
"336" 0.000351671043521219 0.000391815798597694 0.000402964280213565 0.000677422301465548 0.000570860556572522 -0.000168854111519147 0.000214798787678633 0.000588233715786032 0.000426019476723812 0.000468955326816686 0.000603065088958922 0.000549726607807613 0.000900453096451146 0.000345970296941799 0.000559528170237031 0.000410516516203006
"337" 0.000394713772798093 0.000426054134004813 0.000443026206573475 0.000681489019619163 0.000594246132571882 -0.000173799574838118 0.000224543384042291 0.000583823153239193 0.000415770753574541 0.000473782832511182 0.000612000788441516 0.000572084570683617 0.000918674969375455 0.000333676614426632 0.000555371215479767 0.000416873539040944
"338" 0.000434167588086407 0.000457566892304036 0.000480993079202873 0.000683426174673062 0.000614518506109454 -0.000176684044251751 0.000232252512361221 0.00057820320068999 0.000404321205139861 0.000476617887351928 0.000619285150372135 0.000593566195155969 0.000934715880394081 0.000320502429739437 0.000549901514492997 0.000422685798861447
"339" 0.000469986628105004 0.000486246944205819 0.000516756819587125 0.000683179140734666 0.000631670098908042 -0.000177580949809527 0.000237983816655981 0.000571432738244429 0.000391727461784767 0.000477562564405969 0.000624967714451993 0.000614129645477337 0.000948644443321025 0.000306579890328596 0.00054322098461346 0.000427960203394659
"340" 0.000502156072804285 0.000512008870577838 0.000550217473437719 0.00068071753625957 0.00064570114771775 -0.000176571830383949 0.000241803014825012 0.000563573370439185 0.000378067676412272 0.000476729605775396 0.000629094155456285 0.000633735012147873 0.000960536085785523 0.000292056922755514 0.000535424426418156 0.000432712551404566
"341" 0.000530689350668782 0.000534795767107261 0.000581307913868931 0.000676025017529699 0.000656651854779166 -0.000173760665132044 0.00024380155308999 0.000554692572734856 0.000363417081139136 0.00047424443717283 0.000631731739292982 0.000652348643591894 0.000970483866557408 0.0002770657976358 0.000526625982745028 0.000436959580749206
"342" 0.000555617750031184 0.000554572048635831 0.000609953868160115 0.000669114981677522 0.000664576084948493 -0.000169257901341806 0.000244079275277988 0.000544870082062047 0.000347866769834043 0.00047023757819344 0.000632941353461283 0.000669931506308473 0.000978586597147782 0.000261747821101575 0.000516937807690824 0.000440713642306613
"343" 0.000577008501727646 0.000571319713720134 0.000636115989187805 0.000660014328699302 0.000669547817850506 -0.000163192577892621 0.000242742591194903 0.000534188706331023 0.000331502438282011 0.000464848922898493 0.000632799926200833 0.000686458182091726 0.000984953844798583 0.000246236105232593 0.000506469597291986 0.000443993590036522
"344" 0.000594938329411844 0.000585049983486526 0.000659756709421883 0.000648775448708697 0.000671671194057459 -0.000155704373197097 0.000239908935200974 0.000522733719232737 0.000314421650922439 0.00045822639492804 0.000631379131881063 0.000701898466210657 0.000989701025286407 0.000230660757286478 0.000495340765593562 0.000446820089744407
"345" 0.000609509908913597 0.000595795612087771 0.000680864703183922 0.000635470941692248 0.000671057005128129 -0.000146939893098254 0.000235708036304792 0.000510591139663345 0.00029672262643754 0.000450510398027747 0.000628754079399006 0.000716230821572406 0.000992945514003296 0.000215145000886102 0.000483661041135525 0.000449207127848127
