"V1" "V2" "V4" "V5" "V7" "V8" "V10" "V11" "V13" "V14" "V15" "V17" "V18" "V20" "V21" "V23"
"1" 0.000270325890147091 0.000148012013708294 0.000182150014398921 0.000287859924111899 0.000323599867441469 0.000293778301224307 8.78674923269694e-05 0.000167658648194216 0.000483122840738052 0.000354000880432885 0.000221327416254893 0.000107016147198172 0.000300315658120352 0.000819495558072696 0.000689154306298108 0.000194026889404603
"2" 0.000255743256303741 0.000139643659628589 0.000170993363796698 0.000281179839153055 0.000313689793317102 0.000285032665124722 8.26659627779613e-05 0.000162428136440692 0.000489255271330869 0.000352293737135415 0.000223171705585776 0.000114046082064225 0.000297283702499569 0.000828628393790337 0.0006851787675117 0.000197457817382873
"3" 0.000240674746607222 0.00013073660262806 0.000159035897107972 0.000273654599715203 0.000303116394193724 0.000275554644537858 7.7099097396635e-05 0.000156935612924535 0.000494575994917471 0.000350749812666138 0.000224587253876402 0.000119808343867013 0.000292305959947179 0.000835315165014987 0.000679743663441003 0.00020011695583449
"4" 0.00022513201490317 0.00012131109363443 0.000146301575264923 0.000265298080632823 0.000291868538790373 0.000265335823852543 7.11211720824142e-05 0.000151173081296959 0.000498953946529077 0.00034928068031177 0.000225516316294874 0.000124257349272863 0.00028549868765484 0.000839413084565617 0.000672813671650023 0.000202066361151552
"5" 0.000209122460597596 0.00011139114426289 0.000132821236300973 0.000256127758199582 0.000279922775258856 0.000254376366995187 6.46922617045501e-05 0.000145127121306611 0.000502261701233134 0.000347789815925592 0.00022590465159172 0.000127360949195905 0.000276982383343319 0.000840793266904985 0.00066437512069902 0.000203373786858028
"6" 0.000192656809212853 0.000101005042183522 0.000118632780002993 0.000246168518580333 0.000267282387988507 0.000242679685241172 5.77780040412291e-05 0.000138793884399591 0.000504391993154131 0.000346187609092773 0.000225706221641396 0.000129102514720938 0.000266906391448595 0.000839360186329967 0.000654418663336242 0.00020412067056399
"7" 0.000175766979114343 9.0191218769075e-05 0.000103793485559907 0.000235468504168756 0.000253938612874167 0.000230263996963151 5.03529634128648e-05 0.000132163498094821 0.000505233183838125 0.000344381989464185 0.00022487702501932 0.00012947891063223 0.000255430909206293 0.000835029786199552 0.000642954612887625 0.000204388710018752
"8" 0.000158468943623528 7.89890928584964e-05 8.83560388536903e-05 0.000224061473337543 0.000239894884214104 0.000217145729712114 4.23933220447857e-05 0.00012523109564858 0.000504692478002793 0.000342272659175535 0.000223378977359539 0.00012848872668135 0.000242720791859859 0.000827742289180966 0.000629997494495216 0.000204262659187288
"9" 0.000140795822010459 6.74367328981366e-05 7.23813699428202e-05 0.000212001419019387 0.00022515756069347 0.000203356713262398 3.38853570830412e-05 0.000117990397391988 0.000502686532609273 0.000339768639296053 0.000221180032536746 0.000126150330685525 0.000228947163744631 0.000817475618247461 0.000615575477558087 0.000203826725446819
"10" 0.00012277872552235 5.55895673254731e-05 5.59346644087813e-05 0.000199342414942397 0.00020973678412911 0.000188926878053518 2.48236388032815e-05 0.000110439725085153 0.00049914481869889 0.000336774958480997 0.000218256144351992 0.000122491783354194 0.000214299004514091 0.000804226802674686 0.000599739609325347 0.000203174284517367
"11" 0.000104456330792105 4.34972723520772e-05 3.91026948500792e-05 0.000186151141918039 0.000193664750918163 0.000173902474647791 1.52156058500096e-05 0.000102582778294785 0.00049401604625386 0.000333211025679332 0.000214591614172107 0.000117549321202097 0.000198956719727082 0.000788025026422715 0.000582547343844759 0.000202392130645356
"12" 8.58785167664667e-05 3.12199974331845e-05 2.19613059423014e-05 0.000172495904396984 0.000176956065549199 0.000158334768223152 5.06527899677052e-06 9.44175010604682e-05 0.00048725468184726 0.00032898229340503 0.000210172758281553 0.000111373840193095 0.000183113715199442 0.0007689112754742 0.000564059805427736 0.000201570666154103
"13" 6.7093531584852e-05 1.88209565546705e-05 4.60503472751227e-06 0.000158458497220386 0.000159661054505333 0.000142279676037866 -5.59444785824668e-06 8.59602084140852e-05 0.000478846248343893 0.000324024574555477 0.000205005106724549 0.000104027713206391 0.000166967728038386 0.000746989028461546 0.000544375844646863 0.000200801023006888
"14" 4.81430614877407e-05 6.35778514727927e-06 -1.28870080006492e-05 0.000144106092733957 0.00014181211345625 0.000125795909971401 -1.67465823065117e-05 7.72094364413569e-05 0.000468775196804523 0.000318251970856467 0.000199084953592219 9.55693864038253e-05 0.000150697659001748 0.000722345995620085 0.000523575846701835 0.000200164872924583
"15" 2.91029287908668e-05 -6.09859955072817e-06 -3.04065836416389e-05 0.000129539005158629 0.000123474557318534 0.000108962116094824 -2.83400282239369e-05 6.81885754962735e-05 0.000457065629954875 0.00031161953179464 0.00019243807844283 8.60908484216315e-05 0.000134504869954817 0.000695132726217546 0.000501780048271375 0.000199750340334269
"16" 1.00228758835696e-05 -1.84829470796653e-05 -4.78563712582832e-05 0.00011483296811066 0.000104698853180261 9.18452850557028e-05 -4.03354089917071e-05 5.89111729587639e-05 0.000443738225963518 0.000304060940711613 0.000185080385965539 7.56691680774975e-05 0.000118567617610596 0.000665507112484524 0.000479104050685025 0.000199640455203026
"17" -9.02815169594806e-06 -3.07207000964205e-05 -6.51337346248793e-05 0.000100087201209815 8.5573386637593e-05 7.45292350269421e-05 -5.26683980532331e-05 4.94043014610645e-05 0.000428847507987068 0.000295541344800948 0.000177049203672426 6.44006004954649e-05 0.000103067214118417 0.000633662315640488 0.000455674287424188 0.000199908702031261
"18" -2.79753702763687e-05 -4.27410881842471e-05 -8.21255628557297e-05 8.53981951570521e-05 6.61766301207699e-05 5.71020540452962e-05 -6.52776718309844e-05 3.96970131621861e-05 0.00041246533998371 0.000286032944085575 0.000168386034755025 5.23947066891882e-05 8.81853781054583e-05 0.000599805111015249 0.000431641627901365 0.000200633764937991
"19" -4.67606872387913e-05 -5.44812795423494e-05 -9.87465296206435e-05 7.08463717566447e-05 4.65723404262739e-05 3.964280697683e-05 -7.80992978746899e-05 2.9807346366415e-05 0.000394657296528212 0.000275490764202731 0.000159127172823154 3.97492810329882e-05 7.40793970726077e-05 0.000564161448230122 0.000407129128537205 0.00020187797685916
"20" -6.52939753778766e-05 -6.5861875219796e-05 -0.000114867953110277 5.65444138609635e-05 2.68958843889983e-05 2.22513715725197e-05 -9.10385772170571e-05 1.97916865324799e-05 0.000375551227330339 0.000263939151264869 0.000149345376460949 2.65888939220283e-05 6.09155070368263e-05 0.000527002585665911 0.000382319539780956 0.00020371419698188
"21" -8.35086684431181e-05 -7.68162268058814e-05 -0.000130394246399575 4.25765651396231e-05 7.23127855980476e-06 5.01594981518867e-06 -0.000104019315653809 9.67606913539728e-06 0.000355242614352272 0.000251356991418514 0.000139091126983572 1.30279883698698e-05 4.8844234351157e-05 0.000488577613310438 0.000357355296920239 0.00020619803934818
"22" -0.000101332695797255 -8.72787585699426e-05 -0.000145226310572418 2.90352939429455e-05 -1.23068530829238e-05 -1.19709623391884e-05 -0.000116953250422086 -4.93163214946971e-07 0.000333875273160403 0.000237764133478493 0.000128436703883911 -8.17407338612308e-07 3.79951072727301e-05 0.000449175066973934 0.000332405669404076 0.000209380530118878
"23" -0.000118681894874081 -9.71890335965387e-05 -0.000159257591611312 1.60131910115713e-05 -3.15959122628663e-05 -2.86153910601214e-05 -0.000129740499750046 -1.06647392873263e-05 0.00031159379980564 0.000223190141458093 0.000117455911102502 -1.48168842486931e-05 2.8498106728321e-05 0.00040909075277261 0.000307636820361641 0.000213306631935687
"24" -0.000135487246881506 -0.000106483138141292 -0.000172399827614343 3.59594530158795e-06 -5.05147594874656e-05 -4.48252937129788e-05 -0.000142286763410804 -2.07907991797068e-05 0.000288555688293174 0.000207668429339678 0.000106227832525663 -2.88474158557309e-05 2.04682617069484e-05 0.000368620845427864 0.000283214450832478 0.000218018355016267
"25" -0.000151679492875605 -0.000115104508385422 -0.000184561954081448 -8.13923945694792e-06 -6.89404987709892e-05 -6.05159302971422e-05 -0.000154494900440102 -3.08214735517864e-05 0.000264924944257127 0.00019124197816307 9.48301948983726e-05 -4.27836944879816e-05 1.40074525414417e-05 0.000328069523592609 0.000259300720248153 0.000223553848240704
"26" -0.000167185209825705 -0.000123005343261787 -0.000195659677314989 -1.91129678239835e-05 -8.67355855287582e-05 -7.55984230913309e-05 -0.000166260153608975 -4.06968852507877e-05 0.000240883960716807 0.000173976564006001 8.33564900061022e-05 -5.65021098170218e-05 9.20048182334351e-06 0.000287749117081265 0.000236059385733337 0.000229933756626842
"27" -0.00018193774990235 -0.00013013703361866 -0.000205618664507573 -2.92589428151632e-05 -0.000103779838739405 -8.99925648600206e-05 -0.000177487225425419 -5.03663873349935e-05 0.000216610810837817 0.000155931224479178 7.18837835963092e-05 -6.98788672733524e-05 6.12220309931265e-06 0.000247961828590666 0.000213647029664242 0.000237177575879745
"28" -0.000195877905114332 -0.000136461523717478 -0.000214368531550341 -3.85119607787183e-05 -0.000119940672885739 -0.000103621100498092 -0.000188079314522529 -5.97711595418419e-05 0.000192293393404257 0.000137185604225823 6.05061737327025e-05 -8.27937699324714e-05 4.83887390354395e-06 0.000209003240956424 0.000192211664645231 0.000245308247037639
"29" -0.000208948776609164 -0.000141940805780311 -0.000221848123836829 -4.68227225319174e-05 -0.000135088795028017 -0.000116416733173346 -0.000197938605190051 -6.88564168566449e-05 0.000168123677999985 0.000117819249032482 4.93078822208991e-05 -9.51350788229513e-05 5.39014069177897e-06 0.000171168694015277 0.000171893461177622 0.000254323218189361
"30" -0.000221088389326774 -0.000146546004602109 -0.000228003134475676 -5.41359984085002e-05 -0.000149086175294453 -0.000128309061217418 -0.000206967362666058 -7.75591875092614e-05 0.000144297756443326 9.79302460624917e-05 3.83795184246246e-05 -0.000106785368982491 7.81282520492957e-06 0.000134752125732338 0.00015283975004534 0.00026422626764323
"31" -0.000232270299985527 -0.000150265691833299 -0.000232806837273354 -6.04269694624078e-05 -0.000161838724472768 -0.000139252476041845 -0.000215092765640963 -8.58379742421555e-05 0.000120990766729861 7.75969741809138e-05 2.77942604029874e-05 -0.000117653111590922 1.21099732582491e-05 0.000100002296767935 0.000135147392109737 0.000274997258334935
"32" -0.000242435155868322 -0.0001530750143463 -0.000236215253350721 -6.56555386077749e-05 -0.000173211092367655 -0.000149186999143261 -0.000222221992015356 -9.36305397003488e-05 9.83986564246995e-05 5.6936327032795e-05 1.764520599478e-05 -0.000127628836849898 1.83011578580373e-05 6.71859874473479e-05 0.000118947216577398 0.000286636088370168
"33" -0.00025156447049794 -0.000154973102579002 -0.000238213008000318 -6.98076294928021e-05 -0.000183099235902354 -0.000158080088812032 -0.000228283931463533 -0.000100889114793133 7.67030890618049e-05 3.60430998607238e-05 8.00233015355173e-06 -0.000136623866736346 2.63657929031401e-05 3.65433892836913e-05 0.0001043293597346 0.000299109942629753
"34" -0.000259621095071134 -0.000155952285529906 -0.000238785928929413 -7.28709916661109e-05 -0.000191398025190007 -0.000165896540174682 -0.000233209257280076 -0.000107567041003662 5.60720603771989e-05 1.50267060377221e-05 -1.05686872997798e-06 -0.000144558509498821 3.62857010407077e-05 8.27863221580263e-06 9.13750803593868e-05 0.000312399481954208
"35" -0.000266591954487419 -0.000156025197508968 -0.000237936848591849 -7.4841960515974e-05 -0.000198022863806201 -0.000172615226963033 -0.000236935543610996 -0.000113621639580654 3.66816463249022e-05 -6.00489244534671e-06 -9.4668328626992e-06 -0.000151350134586145 4.80206421847924e-05 -1.73989500384547e-05 8.01617980314255e-05 0.000326464610936345
"36" -0.000272466952076787 -0.000155199549725467 -0.000235676597069547 -7.57314632350465e-05 -0.000202892912603202 -0.000178221920404235 -0.000239418939068318 -0.000119016095818836 1.86758238180573e-05 -2.69512431867438e-05 -1.71683531562422e-05 -0.000156939682744959 6.15185685965457e-05 -4.03300030830578e-05 7.07300448918486e-05 0.000341263240845325
"37" -0.000277239777308096 -0.000153500886874233 -0.000232026101259874 -7.55548756179217e-05 -0.000205934610731487 -0.000182714984401642 -0.000240611403290474 -0.000123713264844388 2.20422022784325e-06 -4.76997438488601e-05 -2.4101382770433e-05 -0.000161269125055985 7.67200053314673e-05 -6.03559521752299e-05 6.31288080211005e-05 0.000356750164904967
"38" -0.000280914777646648 -0.000150947558011204 -0.000227015154336894 -7.43394991195949e-05 -0.000207091261354614 -0.000186100929885861 -0.000240482522199158 -0.000127689167538494 -1.26008372390412e-05 -6.81475200401808e-05 -3.02214490804088e-05 -0.000164283891006431 9.35533189833912e-05 -7.7357290254996e-05 5.73791149571032e-05 0.000372878249634146
"39" -0.000283493475002549 -0.000147563582264738 -0.000220673796166816 -7.21077064692957e-05 -0.000206315135523164 -0.000188387591506742 -0.00023900465824394 -0.000130915642711349 -2.56185296789643e-05 -8.81879813437905e-05 -3.5481439559401e-05 -0.00016594063305894 0.000111942495954898 -9.12283333581203e-05 5.3493326405345e-05 0.000389591118328398
"40" -0.000285000653336166 -0.000143393954346599 -0.000213058116308028 -6.89062624297057e-05 -0.000203571257645064 -0.000189604459162189 -0.000236168546851489 -0.000133376590373182 -3.67468714229413e-05 -0.000107721988718105 -3.98496639371441e-05 -0.000166216397112034 0.000131785308366917 -0.000101898881220231 5.14595980709648e-05 0.00040682655589531
"41" -0.000285458995004053 -0.000138473327198243 -0.000204224919949861 -6.47869253123458e-05 -0.000198843329324998 -0.000189783968318104 -0.000231967731553477 -0.000135060275003538 -4.58942401292977e-05 -0.000126657451971636 -4.32989909922636e-05 -0.000165087026726217 0.000152982754236763 -0.000109320121126689 5.12671881871765e-05 0.000424518150367069
"42" -0.0002848973843002 -0.00013284886349865 -0.000194230345044558 -5.97973408516739e-05 -0.000192130061014718 -0.000188965986449966 -0.000226408973670107 -0.000135965318140272 -5.29929482881616e-05 -0.00014490386608703 -4.5811414946124e-05 -0.000162542879821998 0.000175426467504667 -0.000113476376706848 5.28666558885772e-05 0.000442597926613756
"43" -0.000283343255649549 -0.000126563866534778 -0.000183146959881426 -5.39942461860388e-05 -0.00018343519517426 -0.000187198645608122 -0.000219510637710705 -0.000136088301148825 -5.79799874663783e-05 -0.000162373263910968 -4.73702423735803e-05 -0.00015857013205627 0.000199003294816732 -0.000114365194624365 5.62241245079601e-05 0.000460998342942648
"44" -0.000280854488636434 -0.00011967629147368 -0.000171059593016671 -4.74566388545007e-05 -0.000172802731443093 -0.000184545233997348 -0.000211304999487458 -0.000135449489591421 -6.08306996236507e-05 -0.000179002033810054 -4.79836741987997e-05 -0.000153195444106385 0.000223570831805873 -0.000112035506163698 6.12585540400516e-05 0.000479629373527566
"45" -0.00027746489729071 -0.000112234433232295 -0.000158042612713368 -4.02451106385699e-05 -0.000160260402008146 -0.000181065761971394 -0.000201822993013335 -0.000134059299077441 -6.15137458998804e-05 -0.000194711587790029 -4.76482832531655e-05 -0.000146417295048706 0.000249018209278784 -0.000106537022295303 6.79064876702439e-05 0.000498426174000345
"46" -0.00027322211175349 -0.000104292484615835 -0.0001441764041089 -3.24318682803815e-05 -0.000145860618326818 -0.000176830378615525 -0.000191112243071424 -0.000131935343328799 -6.00217890495106e-05 -0.000209434323964364 -4.63724621135445e-05 -0.000138259067234589 0.000275211095043264 -9.79422605223838e-05 7.60845786296988e-05 0.000517313305346803
"47" -0.000268196931221025 -9.59167574431356e-05 -0.000129571024890665 -2.41065735433863e-05 -0.000129702863765862 -0.000171922749965252 -0.000179237651899204 -0.000129123101777168 -5.63866908410215e-05 -0.000223137742578282 -4.41900384335646e-05 -0.00012877123964771 0.000301985054484491 -8.63837558863704e-05 8.56743045395667e-05 0.000536182329592096
"48" -0.000262437780227871 -8.71616112777601e-05 -0.00011430511305022 -1.53411252722179e-05 -0.000111858045854626 -0.000166418794824523 -0.000166262972852439 -0.000125653310168008 -5.06326381290078e-05 -0.000235764414993439 -4.11190146163169e-05 -0.000117980931703 0.000329222593841238 -7.19851555412529e-05 9.65806490739018e-05 0.000554974623627366
"49" -0.000256011129654059 -7.80909884226634e-05 -9.84804950996465e-05 -6.22446358831841e-06 -9.24351311530471e-05 -0.000160407569823161 -0.000152261222099981 -0.000121568248232006 -4.28135112997445e-05 -0.000247285248570612 -3.71962503384598e-05 -0.000105947600761546 0.000356756835684892 -5.49059430296337e-05 0.000108677085494329 0.000573585145330355
"50" -0.000248986601204263 -6.87666178876489e-05 -8.22083835233277e-05 3.1553438745777e-06 -7.15701192454913e-05 -0.000153983569040747 -0.00013732454666947 -0.00011692949763003 -3.3003865816259e-05 -0.00025768477810333 -3.24698488845198e-05 -9.27316969442151e-05 0.000384435983104361 -3.53277890169966e-05 0.00012183449579034 0.000591925763859491
"51" -0.000241425677890504 -5.92441121045602e-05 -6.55783626576861e-05 1.27181601300225e-05 -4.93867676394429e-05 -0.000147235529139837 -0.0001215416447877 -0.000111792872284291 -2.12875577054807e-05 -0.000266941594679497 -2.69809376348729e-05 -7.83953458554255e-05 0.000412116463335224 -1.34533905822637e-05 0.000135916967882804 0.000609912377625597
"52" -0.000233409321260253 -4.95968799239534e-05 -4.87039648243286e-05 2.23653836146575e-05 -2.60476770301245e-05 -0.000140265080343347 -0.000105014947927183 -0.00010622178152478 -7.77716856855771e-06 -0.000275063273019571 -2.07956664401996e-05 -6.30270950185618e-05 0.000439621988677228 1.0490941947579e-05 0.000150773204423294 0.000627438599529273
"53" -0.000224998466562689 -3.98772013639696e-05 -3.16792080254833e-05 3.20229089886681e-05 -1.71620547296478e-06 -0.000133162044314013 -8.78549430043453e-05 -0.00010029171676125 7.41219889103277e-06 -0.000282051203863504 -1.39664723442544e-05 -4.67003685637744e-05 0.000466807692671075 3.62711087072783e-05 0.000166259501253985 0.00064441785706293
"54" -0.000216270292326162 -3.01443692234514e-05 -1.46118482175526e-05 4.15997170552489e-05 2.34336791389983e-05 -0.00012602719239501 -7.01669069659133e-05 -9.4072657356669e-05 2.41380674408691e-05 -0.000287923621153791 -6.56336163984415e-06 -2.95115072498423e-05 0.000493505855292393 6.36233996313163e-05 0.0001822242285759 0.000660751478955912
"55" -0.000207301176282185 -2.04607207034509e-05 2.39686406296208e-06 5.10101912008227e-05 4.91955344575317e-05 -0.000118955227956764 -5.20833010972179e-05 -8.76563698775282e-05 4.22439538742341e-05 -0.000292720232885082 1.33611238313498e-06 -1.15631678044527e-05 0.00051954877715706 9.22711933288942e-05 0.000198496271074777 0.000676333245541413
"56" -0.000198164421333819 -1.08863986926248e-05 1.9243620751835e-05 6.01689164849451e-05 7.53725756468959e-05 -0.000112041247061861 -3.3724643969867e-05 -8.11236491103114e-05 6.15617474952674e-05 -0.000296477318641672 9.65826389611912e-06 7.03306347350802e-06 0.000544774300528421 0.000121928548408958 0.00021491913048941 0.000691066125014635
"57" -0.000188927377651625 -1.47059272601067e-06 3.58360689481379e-05 6.90068110664593e-05 0.000101752717294162 -0.000105371391446767 -1.52148299626395e-05 -7.45649798325011e-05 8.19106385587456e-05 -0.000299244006228049 1.83233234004655e-05 2.61712398463147e-05 0.000569016433016186 0.000152291507003201 0.000231327580325134 0.000704843891314572
"58" -0.000179661984176547 7.73072285296628e-06 5.20727782180694e-05 7.74427823985862e-05 0.000128121328525356 -9.90353016927077e-05 3.31434000058257e-06 -6.80674914591474e-05 0.000103103059047642 -0.000301072668393083 2.72492975686829e-05 4.57281391145296e-05 0.00059210932457665 0.000183062948591877 0.000247566195858395 0.000717562749801426
"59" -0.000170436167513646 1.66709663571068e-05 6.78723750084797e-05 8.54113852352654e-05 0.000154247792811326 -9.31128729017959e-05 2.17299311974606e-05 -6.17286360719618e-05 0.000124930444494976 -0.00030203642756962 3.63518629791272e-05 6.55802203686036e-05 0.000613895939029902 0.000213921424530327 0.000263467742979078 0.000729126687113067
"60" -0.000161318457504967 2.52993612900761e-05 8.31330838083031e-05 9.28428711229943e-05 0.00017990128692301 -8.76806124947676e-05 3.99011693233787e-05 -5.56405126028636e-05 0.000147187278241588 -0.00030220559225282 4.55398045142142e-05 8.55908467648269e-05 0.000634190873089052 0.000244549983498906 0.000278876195165506 0.000739409377548757
"61" -0.000152370990506981 3.35728246941375e-05 9.77853692152707e-05 9.96767308946362e-05 0.000204851723041205 -8.28080207359066e-05 5.76923651582433e-05 -4.98958866188565e-05 0.000169652227596054 -0.000301665111276235 5.47259908937348e-05 0.000105627449922321 0.000652843706965325 0.000274631447332546 0.000293637477270596 0.000748315057691676
"62" -0.000143650311024143 4.14505786475356e-05 0.000111744894199827 0.000105864542261841 0.000228873151768892 -7.85533453929504e-05 7.49757369120155e-05 -4.45868945799144e-05 0.000192103296535508 -0.000300500899791835 6.38256474732504e-05 0.000125554105195832 0.000669693510992006 0.000303847945356563 0.000307601968095792 0.000755741534029107
"63" -0.000135215279504889 4.88997144185348e-05 0.000124941060590655 0.000111354377647117 0.000251734337264785 -7.49721967252911e-05 9.16267988356905e-05 -3.98014215471488e-05 0.000214323419836845 -0.000298795056078769 7.27528021602338e-05 0.000145230199733391 0.000684578238669103 0.000331895585502082 0.000320635102653761 0.00076157076504599
"64" -0.00012711478051427 5.58829464959571e-05 0.000137307225445668 0.000116112165426897 0.000273208071538402 -7.21036095819364e-05 0.000107517336164326 -3.56309146438307e-05 0.000236081645378884 -0.000296653787652645 8.14225948962199e-05 0.000164511748402674 0.000697338477476595 0.000358458073045849 0.000332594901554934 0.000765697210618851
"65" -0.000119398705675147 6.23714743409817e-05 0.00014878817360766 0.000120094656449473 0.000293086240732965 -6.99902954597808e-05 0.000122534195603762 -3.21493041431496e-05 0.000257158348961993 -0.000294168419116892 8.97517282369886e-05 0.000183253994361521 0.000707830099693541 0.000383259618112362 0.000343369634915784 0.000768027744764807
"66" -0.00011210589106971 6.83437423578572e-05 0.000159328216166568 0.000123285340786354 0.000311158353426167 -6.86500780240949e-05 0.000136564126339854 -2.94381553860327e-05 0.000277335895101385 -0.00029143725805576 9.76635501905691e-05 0.000201319340020903 0.000715907031706279 0.000406012070562955 0.000352837628857239 0.000768452004120952
"67" -0.000105272266862102 7.37782774099018e-05 0.000168887014843986 0.000125662111462676 0.000327233985064125 -6.80993719430944e-05 0.000149501615808176 -2.75606448338869e-05 0.000296403232775467 -0.000288557936634783 0.000105083853176699 0.000218559741738568 0.000721423768785738 0.000426456396391307 0.000360905076462424 0.000766871921380668
"68" -9.89318899457234e-05 7.86572544503549e-05 0.000177419482025479 0.000127218839344035 0.000341135565892073 -6.83417014105745e-05 0.000161258645215291 -2.65818889999814e-05 0.000314155537074413 -0.000285624945770205 0.000111945342575067 0.000234842058187458 0.000724250473046322 0.000444363213472028 0.00036748370043531 0.000763195389329191
"69" -9.31082964946232e-05 8.29683119620661e-05 0.000184897989692972 0.000127942856840767 0.0003526891686101 -6.93732126355939e-05 0.000171735049746923 -2.65583526416814e-05 0.000330399442719947 -0.000282740314790225 0.000118181311658841 0.000250027035014777 0.000724268322930057 0.000459500280102677 0.000372498890205756 0.000757331677987801
"70" -8.78239353193063e-05 8.67080830368924e-05 0.000191300562683262 0.000127848119127173 0.000361762176993857 -7.11750363317624e-05 0.000180865308363761 -2.75299053569024e-05 0.000344958726241193 -0.000279984755351516 0.000123738845822558 0.000263987968346875 0.000721357775031882 0.000471689949602724 0.000375892536839754 0.000749201918711212
"71" -8.30865264117884e-05 8.98745532271944e-05 0.000196617403999351 0.000126947414395589 0.00036822562407629 -7.37198893362696e-05 0.000188577421381746 -2.95342556619434e-05 0.000357665517661688 -0.000277449340353828 0.00012856558456247 0.000276599113659048 0.000715432129469464 0.000480754475199413 0.000377617228516227 0.000738736765401216
"72" -7.89149362743268e-05 9.24591808735635e-05 0.000200831224100023 0.000125249731026813 0.000371968786485712 -7.69755531360835e-05 0.000194814994741067 -3.26011681591566e-05 0.000368369174475652 -0.00027521769721656 0.000132620326517109 0.000287740114827728 0.000706381299835995 0.000486563760453391 0.000377645859440188 0.000725857762636146
"73" -7.53053435130545e-05 9.44781482328436e-05 0.000203945407328373 0.000122789959574747 0.00037291615992003 -8.08946465018529e-05 0.000199537650782603 -3.67416534260293e-05 0.000376942720526449 -0.000273360034999048 0.00013586436605222 0.000297305051406928 0.000694147150218894 0.000489011225819051 0.000375963178674325 0.000710521277314993
"74" -7.22630203688479e-05 9.59317351806244e-05 0.000205965798464501 0.000119590105901142 0.000371009386300504 -8.5427520856084e-05 0.000202709034708543 -4.1962210590794e-05 0.000383271467937233 -0.00027194447696259 0.000138271014121907 0.000305188169826161 0.00067865797661311 0.000488022532767808 0.000372567805699747 0.000692680300842132
"75" -6.97848978058559e-05 9.6835932733121e-05 0.000206901102221227 0.000115689488731627 0.000366193365605385 -9.05112249624961e-05 0.000204298651951563 -4.82688715134062e-05 0.000387251614090239 -0.000271044995285132 0.000139814773199063 0.000311296295397648 0.000659867235068967 0.000483540566656782 0.000367462279221748 0.000672294835851959
"76" -6.78483177420749e-05 9.72158301528392e-05 0.000206785579456185 0.000111138337583212 0.00035849189481448 -9.6075680594322e-05 0.000204316413104524 -5.56284941196772e-05 0.000388835697567888 -0.000270684919581283 0.000140496334867944 0.00031556281013335 0.000637764667911364 0.000475583539824986 0.000360702180855881 0.000649362276277601
"77" -6.6451810634274e-05 9.7081593878938e-05 0.000205631342458304 0.000105969845782624 0.000347885396042399 -0.000102053770573548 0.000202748960659235 -6.40319369599551e-05 0.000387953980572216 -0.000270931251335286 0.00014029734756477 0.000317903744207432 0.000612325287193746 0.000464144280880406 0.000352301927317022 0.000623868116962823
"78" -6.55698860188051e-05 9.64610254438625e-05 0.000203474185778781 0.000100241964244014 0.000334423529172915 -0.000108362343946422 0.000199614115742535 -7.34361798364305e-05 0.000384586587882456 -0.000271807892258184 0.000139228882489087 0.000318270795583469 0.000583563476443878 0.000449288753694521 0.000342329297707115 0.00059582671390674
"79" -6.51841642936489e-05 9.5380052878022e-05 0.000200358101239722 9.40025441473135e-05 0.000318170084842086 -0.000114922446397234 0.000194935969896538 -8.38012545249176e-05 0.000378729643930982 -0.000273337626681615 0.000137296018324549 0.000316614961703577 0.000551513930017386 0.000431102993747324 0.000330849910263935 0.00056526953382556
"80" -6.52723836423822e-05 9.38660087139958e-05 0.000196313538841286 8.73034203880464e-05 0.000299198925878422 -0.000121651018073009 0.000188746859933929 -9.5073869606373e-05 0.000370392614756109 -0.000275544571777452 0.000134517176751978 0.000312905303920218 0.000516211826862536 0.000409691158961027 0.000317934261806616 0.000532229198611301
"81" -6.58067684234347e-05 9.19549248787249e-05 0.000191396985781494 8.02051814450589e-05 0.0002776143767781 -0.000128462106797867 0.000181090102220114 -0.000107194832175423 0.000359620985838366 -0.000278429814055072 0.000130916615343498 0.00030712651618706 0.000477745496202668 0.000385199234507326 0.00030367000074377 0.000496780294714954
"82" -6.67559009644636e-05 8.9678505646392e-05 0.000185656711902278 7.2766128124774e-05 0.000253545368043224 -0.00013526590414661 0.000172018005344848 -0.000120098868362029 0.000346466281117411 -0.000281991343725925 0.000126522054702714 0.000299275067090938 0.000436201818698084 0.000357787012279792 0.00028814691457385 0.000459001693775029
"83" -6.80836890733926e-05 8.70742679932054e-05 0.000179152387184686 6.50438792021644e-05 0.00022713766501674 -0.000141978217158067 0.000161597204835158 -0.000133703356762341 0.00033102015906321 -0.000286208845163719 0.000121376500932385 0.00028936603241743 0.000391699000341676 0.000327659754797785 0.000271474565098625 0.000418990861899571
"84" -6.97719368075484e-05 8.4177076364867e-05 0.00017193101458876 5.70869822517672e-05 0.000198550955171616 -0.000148521400345178 0.000149895148811903 -0.000147936100276472 0.000313366872628435 -0.000291071930970897 0.000115510039241872 0.000277412091584573 0.000344358158201023 0.000295015891172145 0.000253752597302721 0.000376855279216345
"85" -7.17736175935861e-05 8.10329615724838e-05 0.000164064141161146 4.89617092886528e-05 0.000167958201783052 -0.000154806639137216 0.000136985913998179 -0.000162710324102343 0.000293628961554034 -0.000296550682153979 0.000108973511990312 0.000263461804422403 0.000294345766219508 0.000260092312379144 0.000235094964356569 0.000332736185042798
"86" -7.40568228602998e-05 7.76792955604196e-05 0.000155611739363136 4.07219968417554e-05 0.0001355616195965 -0.000160757606883264 0.000122957942726769 -0.000177930248098116 0.00027194340636839 -0.000302598866816869 0.000101816285764831 0.000247563479512709 0.000241831650765241 0.000223140771554296 0.000215615034722909 0.000286779013004611
"87" -7.65865949457226e-05 7.41617117747996e-05 0.000146642723798939 3.24221125468641e-05 0.000101563285076599 -0.000166302516234761 0.00010789687557358 -0.000193511365151899 0.000248453945599292 -0.00030917881028689 9.40928909477741e-05 0.000229785559785676 0.000187018205576219 0.000184417694715003 0.000195431023133375 0.000239153340201093
"88" -7.93228833189468e-05 7.05188636700774e-05 0.000137227128761681 2.41125475557544e-05 6.61845612286923e-05 -0.00017137290682353 9.190160410777e-05 -0.000209351589582582 0.000223327625259215 -0.000316235258279684 8.58581881705506e-05 0.000210205668142684 0.000130117734834155 0.000144207462153156 0.000174661565551944 0.000190039246066135
"89" -8.22300847735324e-05 6.68007648151771e-05 0.000127429175421352 1.58444234821968e-05 2.9643196739176e-05 -0.000175906721141975 7.50678011997293e-05 -0.000225361544268569 0.000196734848825604 -0.000323713934567878 7.71675615310648e-05 0.000188915553493348 7.13612295267921e-05 0.000102780043080195 0.000153416710973955 0.000139637501772146
"90" -8.52730383622906e-05 6.30447309748251e-05 0.00011732115818342 7.66409836137792e-06 -7.82106137326327e-06 -0.000179850553611697 5.74930130658621e-05 -0.000241437905198794 0.00016886371129211 -0.000331548133084403 6.80828321190997e-05 0.000166018938755454 1.09946530346495e-05 6.04327250979653e-05 0.000131821550484626 8.81562480189318e-05
"91" -8.84129624033101e-05 5.93009978169393e-05 0.000106974259985278 -3.81339011649017e-07 -4.5970609214071e-05 -0.000183157527993033 3.92888260941692e-05 -0.000257487473689196 0.000139906517068876 -0.000339673720716271 5.86655955346342e-05 0.000141631426185747 -5.07170925453408e-05 1.74576490556504e-05 0.000109983553750794 3.58185035940209e-05
"92" -9.16062090164491e-05 5.56122719892895e-05 9.64610127908512e-05 -8.2475207305008e-06 -8.45549881287833e-05 -0.000185780950626818 2.0555943194243e-05 -0.000273412587913943 0.000110070212654457 -0.000348008944642758 4.89789070075639e-05 0.000115883358874505 -0.000113492206202511 -2.58556832793677e-05 8.80177018321472e-05 -1.71387655765068e-05
"93" -9.48215838391784e-05 5.20256086728254e-05 8.58588868674923e-05 -1.58959067167543e-05 -0.000123341698231323 -0.00018769278675653 1.40613502230498e-06 -0.000289121737675246 7.95530246446822e-05 -0.000356484817078411 3.90786822845546e-05 8.89003711382736e-05 -0.000177058763597247 -6.92131045046702e-05 6.60286270803772e-05 -7.04863122455826e-05
"94" -9.80212063007315e-05 4.85790788571217e-05 7.52317649787057e-05 -2.32931246410849e-05 -0.000162071991495547 -0.00018886961161468 -1.8053701499589e-05 -0.000304524033066427 4.85710765711967e-05 -0.000365020866392733 2.90309478342813e-05 6.08298304077885e-05 -0.000241107857825288 -0.000112327948801823 4.4121409332306e-05 -0.000123960313621626
"95" -0.000101165043165306 4.53198698389876e-05 6.46523461565455e-05 -3.0401764765591e-05 -0.000200515189689599 -0.00018929388044785 -3.77199554594617e-05 -0.000319533265897998 1.73314438725468e-05 -0.000373538441451691 1.88926487772367e-05 3.18264138911409e-05 -0.000305338139014822 -0.000154918712134744 2.23884160368609e-05 -0.000177312438212885
"96" -0.000104220737486912 4.22883314363269e-05 5.4197027237188e-05 -3.71968883202586e-05 -0.000238425247756475 -0.000188963190956375 -5.74840261981139e-05 -0.00033406597847858 -1.39549730054448e-05 -0.000381958752886952 8.7188033013245e-06 2.04335951724811e-06 -0.000369445257010516 -0.000196715744644652 9.2157098338537e-07 -0.000230287097577552
"97" -0.000107153841293633 3.95215125554353e-05 4.39273445341556e-05 -4.36503428247287e-05 -0.000275569294305271 -0.000187875668928652 -7.72403906632357e-05 -0.000348046978869269 -4.50771303603726e-05 -0.000390197271058101 -1.43457767349716e-06 -2.83574795697563e-05 -0.000433116003338351 -0.000237453870106485 -2.01947408489858e-05 -0.000282625309132978
"98" -0.000109924299859377 3.70649649824817e-05 3.3922000824904e-05 -4.97342884438745e-05 -0.000311717509496614 -0.000186042950649244 -9.68846796917238e-05 -0.000361400305396329 -7.58248732155903e-05 -0.000398174396970777 -1.15094861608121e-05 -5.92055585502843e-05 -0.000496034734690242 -0.000276880515957891 -4.08804419289973e-05 -0.000334063439114405
"99" -0.000112489484748784 3.49550437050415e-05 2.42479592432386e-05 -5.54201668577107e-05 -0.000346638592298226 -0.000183476748559776 -0.000116309822340883 -0.000374055100143038 -0.000105991057288752 -0.000405798074459529 -2.14516983889054e-05 -9.03237310449575e-05 -0.000557885429729576 -0.000314753362159426 -6.10566594822404e-05 -0.000384341859108692
"100" -0.000114830294691267 3.32204108442483e-05 1.49634508657045e-05 -6.07032022521885e-05 -0.000380131269992826 -0.000180210969924336 -0.000135424467121119 -0.000385958843640427 -0.000135389177980134 -0.000413007517260576 -3.12208602762393e-05 -0.000121551494481861 -0.000618369585315438 -0.000350848694858866 -8.06625799836469e-05 -0.00043321998190159
"101" -0.000116911586588999 3.18951840675804e-05 6.13219784808634e-06 -6.55680452614854e-05 -0.000411998386393113 -0.000176278302175076 -0.000154136693437935 -0.000397059421652148 -0.000163830055445893 -0.000419729210154825 -4.07757374475549e-05 -0.000152714699241901 -0.00067717685372454 -0.000384967139448122 -9.96494391205736e-05 -0.000480442649228049
"102" -0.000118689964851824 3.10120621451853e-05 -2.17671528013732e-06 -6.99914929736535e-05 -0.000442038369385137 -0.000171715855819066 -0.000172343836272866 -0.000407301562453707 -0.000191124450635942 -0.000425878362283945 -5.0066065239405e-05 -0.000183635259076149 -0.000734011704793068 -0.000416910416622634 -0.000117954447414941 -0.000525773294841008
"103" -0.000120146416445702 3.05969032615458e-05 -9.91304735862473e-06 -7.39712860649943e-05 -0.0004700773230277 -0.000166573995415773 -0.000189964586117887 -0.000416650453662164 -0.000217105818424033 -0.000431397519371026 -5.90602731511624e-05 -0.000214146372152368 -0.000788590457993406 -0.000446499763366881 -0.000135535792511239 -0.000568989410448321
"104" -0.000121246314628539 3.06655266141959e-05 -1.70207058124294e-05 -7.75056055964209e-05 -0.000495963087650377 -0.000160905868663567 -0.000206918417039982 -0.000425079488602991 -0.000241624217708841 -0.000436228682792583 -6.77283274389594e-05 -0.000244082541918372 -0.000840635835050182 -0.000473598481435757 -0.000152364288636405 -0.000609864509273233
"105" -0.000121969181281802 3.12393901076335e-05 -2.34555104457471e-05 -8.05908658759018e-05 -0.000519545612159107 -0.000154774588093737 -0.00022312473821186 -0.000432561379100017 -0.000264525923234469 -0.000440317721962055 -7.60423102903819e-05 -0.000273283320844066 -0.000889889935957455 -0.000498063049428855 -0.000168411286656497 -0.000648203317591233
"106" -0.000122279367745286 3.23395643473893e-05 -2.91589443496153e-05 -8.32195966815022e-05 -0.000540691234216022 -0.000148236097545266 -0.000238506936386751 -0.000439078609291647 -0.000285673182356461 -0.000443607571297095 -8.39726380508761e-05 -0.000301583315989361 -0.000936094749123468 -0.000519777829216796 -0.000183642859655295 -0.000683805821289538
"107" -0.000122153171495296 3.39694353408349e-05 -3.40913964262418e-05 -8.53992550884424e-05 -0.000559280955464318 -0.00014136266352379 -0.000252999354435787 -0.000444618994010221 -0.000304952136431351 -0.000446059548453461 -9.15013778380649e-05 -0.000328839775360794 -0.000979031201954345 -0.000538653002805962 -0.000198052321845974 -0.000716508621181938
"108" -0.000121576945028435 3.61360699801106e-05 -3.82236046798143e-05 -8.71389381283434e-05 -0.000575233164985274 -0.000134225534951996 -0.00026654399380284 -0.000449190641834598 -0.000322266305033143 -0.000447648961298428 -9.86225418553743e-05 -0.000354912387680294 -0.0010184844426515 -0.000554634092345164 -0.000211638527440689 -0.0007461507954998
"109" -0.000120519755695129 3.8843441634804e-05 -4.15136359586554e-05 -8.84376530967783e-05 -0.000588455260739393 -0.000126893524243454 -0.000279071425480835 -0.000452788328953139 -0.000337510882912871 -0.000448330452971209 -0.000105309662041704 -0.000379654232334498 -0.00105425088409221 -0.000567639768594577 -0.000224383494061224 -0.000772585968622884
"110" -0.000118972549158477 4.2085051487036e-05 -4.39420933485052e-05 -8.93178535980814e-05 -0.000598903720380784 -0.00011944408864979 -0.000290543493269465 -0.000455434900083885 -0.000350628021897865 -0.000448102190796556 -0.000111569487319077 -0.000402953402237991 -0.0010861719416132 -0.000577673123970588 -0.000236304900841953 -0.000795701656826338
"111" -0.000116920870090163 4.5851649576684e-05 -4.54859395043889e-05 -8.97894769954196e-05 -0.000606538186803511 -0.000111953172397918 -0.000300910422533271 -0.000457145569566354 -0.000361560056555869 -0.000446950688876763 -0.000117398998994932 -0.00042469461292318 -0.00111409156604462 -0.000584719835837039 -0.000247408209536663 -0.000815396833716611
"112" -0.000114349630165028 5.01298311974955e-05 -4.6136194222136e-05 -8.98705431714452e-05 -0.000611338735581955 -0.00010449179273208 -0.000310134901094849 -0.000457951047445578 -0.000370269368123394 -0.000444872306093547 -0.000122796151871486 -0.000444775822658843 -0.00113788817620854 -0.000588799374396101 -0.000257710628901827 -0.000831593692673631
"113" -0.000111246324973795 5.49009166378036e-05 -4.58742851500139e-05 -8.95753753364057e-05 -0.000613307316277271 -9.71306357926723e-05 -0.000318182220899383 -0.000457876454618379 -0.000376732415266781 -0.000441873095567585 -0.000127769806051571 -0.000463104042107522 -0.00115745193522285 -0.000589953533383135 -0.000267234901527 -0.000844231977161086
"114" -0.000107611768088165 6.01362020715386e-05 -4.47075939662825e-05 -8.89294936285853e-05 -0.000612471454204417 -8.9943592988919e-05 -0.000325026874103992 -0.000456966404568593 -0.000380951437403027 -0.000437967009536223 -0.000132325421132362 -0.000479605600645914 -0.00117271496093684 -0.000588242433218181 -0.000276005985552215 -0.000853278047742889
"115" -0.000103439624780216 6.58087411306113e-05 -4.26388236073797e-05 -8.79528870061399e-05 -0.000608872997596611 -8.29916741486497e-05 -0.000330648012835388 -0.000455258757266708 -0.000382940573863179 -0.000433178827074809 -0.000136481098043602 -0.000494214111261212 -0.0011836201358329 -0.00058374986437423 -0.000284054590734841 -0.000858721817639417
"116" -9.87349880194645e-05 7.18762172179338e-05 -3.96873291122358e-05 -8.66754295035992e-05 -0.000602583188639148 -7.63403798755874e-05 -0.000335038755127779 -0.000452807719143379 -0.000382735505660734 -0.000427543714270777 -0.000140254129213292 -0.000506884987889899 -0.00119015424467224 -0.00057658177970608 -0.000291416884020633 -0.000860578500029861
"117" -9.34965819152473e-05 7.83048987244077e-05 -3.58699978727952e-05 -8.51169310560706e-05 -0.000593676472004729 -7.00429612946937e-05 -0.000338182189438387 -0.000449655026875519 -0.00038038026246165 -0.000421090350985844 -0.000143658141496475 -0.000517580171167622 -0.00119231935923038 -0.000566857030017127 -0.000298128248552085 -0.00085888370001186
"118" -8.77374469445621e-05 8.50422763480751e-05 -3.12141097666742e-05 -8.33127047635412e-05 -0.000582266111617554 -6.41495076438973e-05 -0.000340085431708327 -0.000445863470653161 -0.000375948688911127 -0.000413875263975685 -0.000146718928272918 -0.000526279015366055 -0.00119014405275569 -0.00055472425417319 -0.000304231999372604 -0.000853694090080681
"119" -8.14671601585811e-05 9.20398076441655e-05 -2.57598101355673e-05 -8.12864382111844e-05 -0.000568460962284188 -5.87053963251347e-05 -0.000340744958444198 -0.000441479866405098 -0.000369517441914889 -0.000405937853874545 -0.000149456232742513 -0.000532977344358398 -0.00118369995517311 -0.000540335428607412 -0.000309766875914109 -0.000845101166754707
"120" -7.47012347608866e-05 9.924161835728e-05 -1.95448045417407e-05 -7.90711404125288e-05 -0.000552413950267149 -5.37416210644746e-05 -0.000340178167207917 -0.000436567798962457 -0.00036119217609844 -0.000397344587148748 -0.000151896815660995 -0.0005376838205382 -0.00117307521374347 -0.000523872153635547 -0.000314778269261248 -0.000833215530034554
"121" -6.74637713686974e-05 0.000106586156095351 -1.26235342887086e-05 -7.6696379462759e-05 -0.000534280012651359 -4.92873272269709e-05 -0.000338399746886748 -0.000431187060648501 -0.000351082134986849 -0.000388156747910121 -0.000154066637856585 -0.000540418777997872 -0.00115838395817165 -0.000505523521734288 -0.000319318263772879 -0.000818165600332323
"122" -5.97822572956885e-05 0.000114001109832287 -5.06427942228427e-06 -7.42062464231543e-05 -0.000514235206791621 -4.53681820071221e-05 -0.000335438472781084 -0.000425397397574241 -0.000339324194957036 -0.00037844825888825 -0.000156000160616475 -0.00054123511696779 -0.0011397966369196 -0.000485503926416908 -0.000323439445079976 -0.000800124118969193
"123" -5.16708748283231e-05 0.000121434735478983 3.08571933683964e-06 -7.16129508388289e-05 -0.000492463702561148 -4.19836990690923e-05 -0.000331312381571535 -0.00041925486028336 -0.000326049380417237 -0.000368278724850001 -0.000157716538085125 -0.000540167349853325 -0.00111747493522134 -0.000464021596435899 -0.00032717350964197 -0.000779262869200582
"124" -4.3172799135108e-05 0.000128806944753214 1.17465757363776e-05 -6.89617244792734e-05 -0.000469169792145766 -3.91423078778052e-05 -0.000326060195974365 -0.000412821181103663 -0.000311412736797092 -0.000357733092000004 -0.000159245883064132 -0.000537288832239046 -0.00109163190969344 -0.000441301782668507 -0.000330579781097684 -0.00075579860626091
"125" -3.43162522128413e-05 0.000136047917386739 2.08454465781522e-05 -6.62786577799069e-05 -0.000444558283812921 -3.68329829858382e-05 -0.00031971541527405 -0.000406144428932989 -0.00029557551249 -0.000346877002440807 -0.000160614930244779 -0.000532676771981102 -0.0010624973325831 -0.000417575509235706 -0.00033369501837431 -0.000729951413324793
"126" -2.51449404953505e-05 0.000143080275133597 3.02925619693504e-05 -6.36016737822652e-05 -0.000418862668634232 -3.50429795659651e-05 -0.000312327219585866 -0.000399289893223818 -0.000278711174432296 -0.000335798216318346 -0.000161856495262669 -0.000526424973329126 -0.00103034235048296 -0.00039309581712839 -0.00033657616426411 -0.000701979627801887
"127" -1.57067363968769e-05 0.000149831766543084 4.0000719447021e-05 -6.0967486542088e-05 -0.000392312504942445 -3.37484547512057e-05 -0.000303945646085124 -0.000392307346799175 -0.00026100441062035 -0.000324581133121036 -0.00016299765712292 -0.000518645442080484 -0.00099545755907873 -0.000368106790882076 -0.000339269560394832 -0.000672163014703452
"128" -6.03541872274721e-06 0.000156226964158954 4.98821754195628e-05 -5.83973383809704e-05 -0.000365136713728754 -3.29131586412626e-05 -0.000294615895321296 -0.000385241810219169 -0.000242630044533709 -0.000313291570580238 -0.000164059028816384 -0.000509435328763137 -0.000958143343180543 -0.000342844204521901 -0.000341811879941708 -0.000640783700346635
"129" 3.81189723102978e-06 0.000162189012638424 5.98405020819304e-05 -5.59295673970944e-05 -0.000337582009759933 -3.25027676319281e-05 -0.000284395767438175 -0.000378141817191513 -0.000223785558790565 -0.000302020794479257 -0.000165069505904014 -0.000498933124938003 -0.000918740442493951 -0.000317569304385526 -0.000344251512995463 -0.000608152862726157
"130" 1.37861089417304e-05 0.000167646423107374 6.97760448520693e-05 -5.35934483101256e-05 -0.000309893474408726 -3.24672758266796e-05 -0.000273349110215228 -0.000371049520985801 -0.000204657327025091 -0.00029084064206344 -0.000166051212237237 -0.000487259956561412 -0.000877598848871103 -0.000292512379509595 -0.000346623883723011 -0.000574592225494039
"131" 2.383820606865e-05 0.000172532307473234 7.95973659790527e-05 -5.14129456255376e-05 -0.000282299364651503 -3.27535153220367e-05 -0.000261530342703509 -0.000363997066864502 -0.00018543285586193 -0.000279817165899084 -0.000167019172907833 -0.00047455249668752 -0.000835085903755277 -0.000267908982253026 -0.000348957333972193 -0.000540440949299138
"132" 3.38980944413157e-05 0.00017677239291075 8.91881700749248e-05 -4.94317875910493e-05 -0.000255065774288978 -3.3310107310876e-05 -0.000249018774529534 -0.000357031971632662 -0.000166317672144365 -0.000269043549548682 -0.000168006480939282 -0.000460969543163902 -0.000791598236237501 -0.000244010458116223 -0.000351312999548993 -0.00050604750530777
"133" 4.39269799292275e-05 0.000180309328910665 9.84655063547667e-05 -4.7661705316621e-05 -0.000228394574340817 -3.40667463642193e-05 -0.00023586742615854 -0.000350165174076167 -0.000147484235093927 -0.000258565849734576 -0.000169015844471521 -0.00044664355136455 -0.000747512924482413 -0.000221018612633114 -0.000353698321310062 -0.000471756584098462
"134" 5.38622975381889e-05 0.000183085393693165 0.000107329078205428 -4.61304721654306e-05 -0.000202532964614945 -3.49588828827053e-05 -0.00022215231017212 -0.000343430745507128 -0.000129118589359019 -0.000248455281244427 -0.000170064459020395 -0.000431730263672333 -0.000703245498577255 -0.000199149118561188 -0.000356146271840885 -0.000437928986209884
"135" 6.36360100849753e-05 0.000185037022631371 0.000115670091880681 -4.48748609596685e-05 -0.000177700848460703 -3.59225057563778e-05 -0.000207949193521118 -0.000336849569501806 -0.00011141131400457 -0.000238779832674718 -0.000171176332871404 -0.000416389268875559 -0.000659210306867695 -0.000178606082792505 -0.000358699392672433 -0.000404925520441258
"136" 7.32036965601419e-05 0.000186130401612372 0.000123416967079325 -4.39015243555715e-05 -0.00015408807011833 -3.68813989280308e-05 -0.000193321453365786 -0.000330428539813879 -9.45110682985247e-05 -0.000229574774529759 -0.000172344188336258 -0.000400760446499631 -0.000615796311034203 -0.000159557896195691 -0.000361358098667967 -0.000373088518592703
"137" 8.24973141864993e-05 0.000186317858976 0.000130465479793404 -4.32439048434395e-05 -0.000131901736928444 -3.77727131345979e-05 -0.000178351982513457 -0.000324184742693104 -7.85894680827488e-05 -0.000220902766950032 -0.000173587395872564 -0.000385000797132902 -0.000573418876268044 -0.000142171335181544 -0.000364155389530849 -0.00034276826686082
"138" 9.1469672972857e-05 0.000185568480481012 0.000136742769920766 -4.291230132686e-05 -0.000111316603345868 -3.8517669892009e-05 -0.000163111300570598 -0.000318122620926022 -6.37959887352056e-05 -0.000212800154974452 -0.000174906604038965 -0.000369257642545089 -0.000532470717655996 -0.000126606832322191 -0.000367112570715811 -0.000314295549811394
"139" 0.000100056085448842 0.000183853248801369 0.000142166250567909 -4.29332262737431e-05 -9.24989529646647e-05 -3.905456734251e-05 -0.000147674703204532 -0.000312246136286879 -5.02612749778859e-05 -0.000205305291741221 -0.000176303752081578 -0.000353672608097097 -0.00049333830322632 -0.000112970997588631 -0.000370233127531544 -0.000287993719387277
"140" 0.000108212975667421 0.000181164328809539 0.00014667685603617 -4.33112538547231e-05 -7.55748799305631e-05 -3.93103668937107e-05 -0.000132110477410086 -0.000306543902161354 -3.81121816696784e-05 -0.000198438301948162 -0.000177778142296524 -0.000338377871553543 -0.000456378888003967 -0.000101375000607386 -0.000373533045647237 -0.000264148984023933
"141" 0.000115889804531678 0.000177488910434236 0.000150216161419254 -4.40604244722266e-05 -6.06790464330375e-05 -3.92243793759662e-05 -0.000116491249293127 -0.000301016052459908 -2.74549807229076e-05 -0.000192226898130277 -0.000179325934652236 -0.000323501900786907 -0.000421931502060193 -9.19042428910351e-05 -0.000377018354528441 -0.000243031540976111
"142" 0.000123037586185176 0.000172826990650397 0.000152730072018809 -4.51889181235943e-05 -4.79035756037053e-05 -3.87330021957186e-05 -0.000100888371534141 -0.000295648945709712 -1.8381289321545e-05 -0.00018668075317274 -0.0001809434132997 -0.00030917016063755 -0.000390327572984331 -8.46193709739728e-05 -0.000380694613256307 -0.00022489845761183
"143" 0.000129618515011474 0.000167194783612457 0.000154179125652346 -4.67022822185185e-05 -3.73337882258383e-05 -3.7782336818547e-05 -8.53706985627928e-05 -0.000290430915422189 -1.0971753827598e-05 -0.00018180830756355 -0.00018262003695771 -0.000295485120572902 -0.000361840479439723 -7.95582691596932e-05 -0.000384566158749607 -0.000209950829215195
"144" 0.00013558805843185 0.000160605188578312 0.000154538194904204 -4.86057027171139e-05 -2.9015820213955e-05 -3.63245331062741e-05 -7.00037130784856e-05 -0.00028534452854366 -5.28791833616961e-06 -0.000177613920170055 -0.000184351688489739 -0.000282553039820136 -0.000336725041665307 -7.67350293430614e-05 -0.000388629136210177 -0.000198370135405983
"145" 0.000140921549287571 0.000153094097790394 0.000153785048884765 -5.08924227272245e-05 -2.29929438919059e-05 -3.43103497044257e-05 -5.48496372618639e-05 -0.000280372060082847 -1.36961507151695e-06 -0.000174082526629374 -0.000186119466819453 -0.0002704539194033 -0.000315195960783075 -7.61505468045673e-05 -0.000392883499544233 -0.000190290366097439
"146" 0.000145589025544341 0.000144694980657221 0.000151915945860584 -5.3556988933802e-05 -1.92592426154837e-05 -3.1701394484623e-05 -3.99683242063094e-05 -0.000275490339816849 7.56744013709407e-07 -0.000171204668233558 -0.000187914498517672 -0.000259265127306947 -0.00029742763893197 -7.77726556265717e-05 -0.000397319445512234 -0.000185817958050562
"147" 0.000149567222447763 0.000135460920055275 0.000148939517330309 -5.65935381896851e-05 -1.78068954093546e-05 -2.84682659304517e-05 -2.54182434845404e-05 -0.000270678740194809 1.07870411776448e-06 -0.000168956622661066 -0.000189718593073877 -0.000249053267938757 -0.000283555583415434 -8.15535848666547e-05 -0.000401935515146262 -0.000185007226852298
"148" 0.000152841520402117 0.00012544375733493 0.00014486900820253 -5.99847761226036e-05 -1.858366425764e-05 -2.45845425888242e-05 -1.12468678462348e-05 -0.000265908610524539 -3.89767423259234e-07 -0.000167309480270459 -0.000191514153802327 -0.000239862867067236 -0.000273664067971279 -8.7417874538742e-05 -0.000406712388991224 -0.000187875487899939
"149" 0.00015540035208833 0.000114711020745924 0.00013973341645791 -6.37214313783911e-05 -2.15348913207003e-05 -2.00366716584154e-05 2.49261323011705e-06 -0.000261155758258163 -3.62437300069271e-06 -0.000166229852181316 -0.000193287415431967 -0.000231730781264632 -0.000267795514689413 -9.52821335667172e-05 -0.000411641854063066 -0.000194389626839506
"150" 0.000157236215921458 0.000103328977547126 0.000133573452757406 -6.77800970378358e-05 -2.65718392744388e-05 -1.48140928527004e-05 1.57556959362762e-05 -0.000256403073532979 -8.59483416070798e-06 -0.000165688133860946 -0.000195018119721986 -0.000224686748030405 -0.000265950620747875 -0.000105044678153189 -0.000416714976162784 -0.000204484802568127
"151" 0.000158360398415951 9.13837319904911e-05 0.000126443899600704 -7.21281341644076e-05 -3.35819933058053e-05 -8.91320778430911e-06 2.85073694756071e-05 -0.000251613886888756 -1.52280029684141e-05 -0.000165625803445615 -0.00019668263502313 -0.000218725280942476 -0.000268066428392019 -0.000116568837152416 -0.00042190465415411 -0.000218039507377144
"152" 0.000158772232984236 7.8954643131847e-05 0.000118405499558722 -7.67517839419438e-05 -4.24383662455066e-05 -2.34893264051354e-06 4.07041151973649e-05 -0.00024677193966421 -2.34677262644121e-05 -0.000166008360850455 -0.000198268855132106 -0.000213856518983184 -0.000274059162843699 -0.000129735544959588 -0.000427204876558571 -0.000234904587407824
"153" 0.000158491107627967 6.61409112685323e-05 0.000109538460199332 -8.16091835779924e-05 -5.29874379169616e-05 4.86728692480933e-06 5.2321723530249e-05 -0.000241850615273953 -3.3218385850591e-05 -0.000166771585902022 -0.000199751797453514 -0.000210053633481438 -0.000283779342210096 -0.000144378696351932 -0.000432588716534521 -0.000254884950221427
"154" 0.000157536322195035 5.30374261870918e-05 9.99210023537802e-05 -8.66697885050784e-05 -6.50675091471907e-05 1.27085038128641e-05 6.33310091329223e-05 -0.000236828172930421 -4.43875395153483e-05 -0.000167867153862187 -0.000201116565555394 -0.000207292305258577 -0.000297046736587202 -0.000160345598367488 -0.000438042032146795 -0.000277749360534242
"155" 0.000155942828427775 3.97490844697156e-05 8.96512906585455e-05 -9.18851080978132e-05 -7.84831794630823e-05 2.11464479397927e-05 7.37174197965644e-05 -0.000231680195477823 -5.68493566106886e-05 -0.000169227532068891 -0.000202331684779006 -0.000205520007928205 -0.00031363270443781 -0.000177450396245286 -0.000443530531797632 -0.000303232451894534
"156" 0.000153732852879175 2.63754511457051e-05 7.88269971640386e-05 -9.72296945304131e-05 -9.3051089086446e-05 3.01336026603458e-05 8.34573978104469e-05 -0.000226394780746015 -7.05044528378388e-05 -0.000170806466108867 -0.000203398382611622 -0.000204703891136392 -0.000333297891028226 -0.00019553284251233 -0.00044905441265973 -0.000331058863701335
"157" 0.000150943919523577 1.30263650213947e-05 6.75561936107399e-05 -0.000102659249712195 -0.000108557059181882 3.961784920087e-05 9.25377789131986e-05 -0.000220956252025352 -8.5213564860684e-05 -0.000172545301717487 -0.000204293085555937 -0.000204774769655578 -0.000355737204081619 -0.000214396806940581 -0.000454581286080612 -0.000360899671814133
"158" 0.000147630111488582 -1.81028195928629e-07 5.59606248541248e-05 -0.000108118253492993 -0.000124772153769526 4.9546809759706e-05 0.000100960542532342 -0.000215346777729915 -0.000100830009611681 -0.000174373223427508 -0.000204993906163975 -0.000205648559940196 -0.00038062083805806 -0.000233851523561124 -0.000460086283275442 -0.000392411877403719
"159" 0.000143829235282746 -1.31449789585863e-05 4.41592110839008e-05 -0.000113570806090658 -0.000141474113655051 5.98500824859331e-05 0.00010871761622532 -0.000209560630058169 -0.000117219482638932 -0.000176240928205878 -0.000205499665160635 -0.000207256247321744 -0.000407616040246295 -0.000253707223882847 -0.000465553155329061 -0.000425251948685408
"160" 0.000139596538488214 -2.57480422024098e-05 3.22701167617572e-05 -0.000118971511187337 -0.000158434059863906 7.04517106297493e-05 0.000115809947881392 -0.000203594822601164 -0.000134231229035995 -0.000178095929411148 -0.000205797315854141 -0.000209512993348078 -0.000436350149247813 -0.000273782550643558 -0.00047096682583472 -0.000459049131315407
"161" 0.000134990708088049 -3.78817797473673e-05 2.04320313799092e-05 -0.00012427091402847 -0.000175404375776468 8.12732869373111e-05 0.000122248572928663 -0.000197442921613734 -0.000151706601291985 -0.000179880978641235 -0.000205879817884782 -0.000212319351030752 -0.000466434787354686 -0.000293880386679164 -0.000476302978377934 -0.000493423969970846
"162" 0.000130065085343408 -4.94391035830769e-05 8.76577353584054e-06 -0.000129427333029034 -0.000192151305332081 9.22260571529894e-05 0.00012804216167364 -0.00019110992002556 -0.000169491036348995 -0.000181550757743457 -0.000205741889113602 -0.000215577068079735 -0.000497475769011852 -0.000313813099626006 -0.000481547107568394 -0.00052800138965513
"163" 0.000124887865578965 -6.03089310349802e-05 -2.58958301625108e-06 -0.000134393577834863 -0.000208437839571768 0.000103218517475295 0.000133206136287753 -0.000184599220233814 -0.00018743093438193 -0.000183064049087363 -0.000205386210580563 -0.000219185222793264 -0.000529070176523481 -0.000333409099186998 -0.000486683720421188 -0.000562399172109096
"164" 0.000119517743545962 -7.03968238817783e-05 -1.35155801210879e-05 -0.00013913361778845 -0.0002240281164778 0.000114150524032471 0.000137757837600605 -0.000177920875678922 -0.000205369150267431 -0.000184382535096286 -0.000204811769988597 -0.000223037945946047 -0.000560809557404566 -0.000352490852638017 -0.000491694911903992 -0.000596245675835678
"165" 0.000114020772438281 -7.96005222112887e-05 -2.3883454889026e-05 -0.000143605624304198 -0.000238699175607027 0.000124916679834157 0.000141724045221386 -0.000171088563261602 -0.000223151386276104 -0.000185475846857226 -0.000204028115507308 -0.000227025012308596 -0.000592280299088168 -0.000370895502933082 -0.000496571469574549 -0.0006291697562703
"166" 0.000108456006791219 -8.78388742524234e-05 -3.35775905087633e-05 -0.000147778737450759 -0.000252240418643774 0.000135412845654088 0.000145124897544712 -0.000164125250349895 -0.000240637700987516 -0.000186329442026311 -0.000203050754115981 -0.00023105186124545 -0.000623102173012406 -0.000388480982720108 -0.00050131557011444 -0.000660831017620774
"167" 0.000102894719223779 -9.50186594555257e-05 -4.24742177237398e-05 -0.00015162092479716 -0.000264442855222642 0.000145530713386588 0.000147989439531324 -0.000157046662933242 -0.000257679016222456 -0.000186922522589786 -0.00020188834099986 -0.00023500691919634 -0.000652867252418184 -0.000405098248738728 -0.000505909520333874 -0.000690876283093822
"168" 9.73942159782296e-05 -0.000101071313119836 -5.04731486789093e-05 -0.000155110816217367 -0.0002751150001281 0.000155157930105017 0.000150347843914202 -0.000149881225448663 -0.000274145345946285 -0.000187256861032629 -0.000200565272051929 -0.000238791055109533 -0.000681199567960246 -0.000420633612831966 -0.000510359681882271 -0.000718989596414818
"169" 9.20216978828198e-05 -0.00010592708856187 -5.74692507382076e-05 -0.000158218419299299 -0.000284086110281684 0.000164190239535792 0.000152238327979262 -0.000142655155510927 -0.000289901853876896 -0.000187325232994516 -0.000199098333912567 -0.000242299085293165 -0.000707735275197518 -0.000434959505358719 -0.000514660002175739 -0.000744865882270047
"170" 8.68256892541008e-05 -0.000109534318951412 -6.33836412786389e-05 -0.000160941982121733 -0.0002912078651616 0.000172513869210015 0.000153690121681428 -0.00013540743288784 -0.000304840728594803 -0.00018715090633607 -0.000197521810605378 -0.000245443848534188 -0.000732136972130446 -0.000447993542416254 -0.000518819173362726 -0.000768233454246241
"171" 8.18704083053426e-05 -0.000111842930609273 -6.81323306830696e-05 -0.000163261435360614 -0.000296336939986792 0.000180031657990593 0.000154742402283246 -0.0001281661643978 -0.000318848489134236 -0.000186744012967558 -0.000195859926955681 -0.000248137359209084 -0.000754082519614216 -0.000459648403890781 -0.000522842314959358 -0.000788837136848557
"172" 7.72079722872849e-05 -0.000112815272822026 -7.16480936731735e-05 -0.000165174575275326 -0.00029936429121864 0.000186640040307879 0.000155438367373242 -0.000120968031201744 -0.00033183225288497 -0.000186133163260052 -0.000194146913216704 -0.000250296234403691 -0.000773270413367198 -0.000469862890547825 -0.000526736985496936 -0.000806446456052222
"173" 7.28718816225721e-05 -0.00011243992080745 -7.38893989424908e-05 -0.000166696943964375 -0.000300212295235603 0.000192239602928278 0.000155806649525976 -0.000113857602694376 -0.00034371615483843 -0.000185369171221921 -0.000192428112323702 -0.000251858554128647 -0.000789444274939892 -0.000478600179986607 -0.000530525901617519 -0.000820864350133669
"174" 6.89164812856527e-05 -0.00011069957568456 -7.48083546898272e-05 -0.00016782760919734 -0.000298809439405467 0.000196752780781574 0.000155895776268048 -0.000106873684578038 -0.000354426863089447 -0.000184480077186694 -0.000190735005897956 -0.000252758498497336 -0.000802358804428141 -0.000485830301250568 -0.000534216984476528 -0.000831920910695833
"175" 6.53740333112143e-05 -0.000107600385754909 -7.4396561605441e-05 -0.000168583972108793 -0.0002951335922481 0.000200098294943569 0.000155740199444098 -0.00010005961215584 -0.000363910943263201 -0.000183526786074273 -0.000189113233627691 -0.000252941337385004 -0.000811806020442894 -0.000491543631212754 -0.000537836860781923 -0.000839469929959443
"176" 6.22744412876e-05 -0.000103157546051715 -7.26363268835608e-05 -0.000168986415794278 -0.000289169649409041 0.000202212876131796 0.000155382911650536 -9.34518961414803e-05 -0.00037213069648732 -0.000182557619481674 -0.000187604323193659 -0.00025237003161846 -0.000817607200083576 -0.000495752608878179 -0.00054139702614264 -0.000843400797327123
"177" 5.9635590856639e-05 -9.74051629955695e-05 -6.95515524290736e-05 -0.000169067872941407 -0.000280945169997811 0.000203035164690425 0.000154860998529523 -8.71011607063752e-05 -0.000379067664612811 -0.000181643494707349 -0.000186260146605274 -0.0002510198098527 -0.000819636342570045 -0.000498489562558741 -0.000544930719938089 -0.000843642510612684
"178" 5.74719305537739e-05 -9.0385256945829e-05 -6.51645279665718e-05 -0.000168862563363919 -0.000270505576663738 0.000202523938252116 0.000154208826416269 -8.10444073967616e-05 -0.000384710049148179 -0.000180847685210045 -0.000185124073536841 -0.0002488742302197 -0.000817775821463176 -0.000499799138606538 -0.000548465035260018 -0.00084013560355529
"179" 5.57973679964918e-05 -8.21542922873118e-05 -5.95223502174229e-05 -0.000168397951297891 -0.000257941385137673 0.000200654648188154 0.000153463048004011 -7.53260996637996e-05 -0.000389066457408556 -0.000180237646003553 -0.00018424497285156 -0.000245925409966442 -0.000811952968199174 -0.000499744386672583 -0.000552025226641162 -0.000832863640762793
"180" 5.46138074751445e-05 -7.2781218325872e-05 -5.26800513389004e-05 -0.000167718833999806 -0.000243344534998331 0.000197410580686334 0.000152664788519265 -6.99804790538864e-05 -0.000392157051164204 -0.000179878607214448 -0.00018366435543331 -0.00024218686512587 -0.000802138215974103 -0.000498403007525941 -0.000555637559762407 -0.000821835613040091
"181" 5.39138409202318e-05 -6.2348376925984e-05 -4.47169843397477e-05 -0.000166868398361314 -0.000226852538443528 0.000192794690587194 0.000151841448745263 -6.50440746619395e-05 -0.000394022919518658 -0.000179845623747365 -0.000183432227326441 -0.00023768238672826 -0.000788340296646689 -0.000495870692852465 -0.00055933303094139 -0.000807105475280827
"182" 5.36801433445879e-05 -5.09565733391009e-05 -3.57309088371676e-05 -0.000165896739875136 -0.00020862894796985 0.000186817990449137 0.000151018248300654 -6.05558893001664e-05 -0.000394717764882193 -0.000180207258435178 -0.000183591103694168 -0.000232444536133411 -0.00077058688665542 -0.000492256867789993 -0.000563146312773203 -0.000788733965281591
"183" 5.3897693770836e-05 -3.87085319063582e-05 -2.58264234266233e-05 -0.000164850620254648 -0.000188855163568021 0.000179515701214425 0.000150222624503497 -5.65433155203656e-05 -0.000394305650475072 -0.000181033725953305 -0.000184187046457916 -0.000226525370570474 -0.000748960057368538 -0.000487683552638307 -0.000567107995837804 -0.000766827505497052
"184" 5.45482380107889e-05 -2.5711610082017e-05 -1.51118867693612e-05 -0.00016376925383683 -0.000167725525304483 0.000170938070687373 0.00014948611550634 -5.30280123415643e-05 -0.000392858345010395 -0.000182371772349819 -0.000185251809031244 -0.000219972829408988 -0.000723560806479639 -0.000482271238641 -0.000571237741457082 -0.00074151510800061
"185" 5.55852781746079e-05 -1.21000181734579e-05 -3.73006373949966e-06 -0.000162713402793982 -0.000145472994625152 0.000161142017086084 0.00014881641090242 -5.00435393251774e-05 -0.000390477262552305 -0.000184300058926196 -0.000186828935330726 -0.00021287397470388 -0.000694553069369949 -0.000476172892003088 -0.0005755785463004 -0.000712966434480883
"186" 5.69845498279411e-05 2.00066374312995e-06 8.18562946865506e-06 -0.000161721402747182 -0.000122333144242438 0.00015020561170147 0.000148236634962202 -4.76000833817838e-05 -0.000387253233726599 -0.000186857607808034 -0.000188945562283254 -0.000205293751517999 -0.000662095273520633 -0.000469526931976801 -0.000580146730382201 -0.000681356810179294
"187" 5.86982354919043e-05 1.64524201594107e-05 2.04843186912265e-05 -0.000160845897149688 -9.85615165513317e-05 0.000138216785020517 0.000147754235201615 -4.57133190938904e-05 -0.000383304417217114 -0.000190101552737773 -0.000191637486267468 -0.000197334088927205 -0.000626415808887409 -0.000462492780083965 -0.000584976151279201 -0.000646908003105578
"188" 6.06928925719013e-05 3.11173983880459e-05 3.3026409283372e-05 -0.000160119862161019 -7.43987190727486e-05 0.000125280146925048 0.000147387240000873 -4.43816010821376e-05 -0.000378732881737501 -0.000194053493595225 -0.000194913600202386 -0.000189076890888092 -0.00058774083227566 -0.000455208459514318 -0.000590077300019372 -0.000609847195791272
"189" 6.2901838937319e-05 4.58441950895572e-05 4.56363246794711e-05 -0.000159604949608525 -5.01471719732658e-05 0.000111500170971437 0.000147119805942341 -4.36266833135471e-05 -0.000373681743113795 -0.000198774061576495 -0.000198813123332501 -0.000180646409915402 -0.000546364807878573 -0.00044785680313571 -0.000595490674028414 -0.000570450842776986
"190" 6.52929582223631e-05 6.04932165559578e-05 5.8164160219275e-05 -0.000159320396488617 -2.60590546795631e-05 9.70054375349354e-05 0.000146968440660507 -4.34343587962525e-05 -0.000368264946199088 -0.000204265838708374 -0.000203335332897241 -0.000172135121890936 -0.000502577547815897 -0.000440572672516308 -0.000601219375213814 -0.000528992558179149
"191" 6.78062571541434e-05 7.49246977255105e-05 7.04551760157509e-05 -0.000159306874282311 -2.4178198075496e-06 8.19204972007918e-05 0.000146916862434454 -4.3798802246133e-05 -0.000362620628110176 -0.000210552894442239 -0.000208495244674646 -0.000163658940387141 -0.000456696771592006 -0.000433522932526632 -0.000607289952104915 -0.000485774219829416
"192" 7.03940251241128e-05 8.89932501755405e-05 8.235141097561e-05 -0.000159596951276367 2.05238548427746e-05 6.63785938518548e-05 0.000146961733987356 -4.47025552784694e-05 -0.000356874705511009 -0.000217644459284797 -0.000214296152812599 -0.000155332962210847 -0.000409077557123572 -0.000426841168140488 -0.000613702658565003 -0.000441120734723933
"193" 7.30005625434404e-05 0.000102561409180892 9.37049802022093e-05 -0.000160218806835604 4.24775223869437e-05 5.05175188083746e-05 0.000147082366557336 -4.61397334388566e-05 -0.00035117153065348 -0.000225550156205358 -0.000220740592327758 -0.000147276635669565 -0.00036008793708103 -0.000420692994651275 -0.00062048504233372 -0.000395366122800564
"194" 7.55810499721326e-05 0.000115503976135824 0.000104371784164101 -0.000161189402005444 6.32093787410341e-05 3.4478147500274e-05 0.000147267860148533 -4.80770316019511e-05 -0.000345631030427425 -0.000234254471404647 -0.000227818807219367 -0.000139599143629927 -0.000310108588081203 -0.000415195158779507 -0.000627632911989947 -0.000348862793879016
"195" 7.80889121759765e-05 0.000127690946245574 0.000114221228199389 -0.000162531993197631 8.24771568789311e-05 1.83998884731311e-05 0.000147492440164117 -5.04910022677996e-05 -0.000340387778472186 -0.000243748571386646 -0.000235520535220178 -0.000132406072769587 -0.000259528393360881 -0.000410476400192881 -0.000635149376053132 -0.000301958635804327
"196" 8.04777109174373e-05 0.000139018260973396 0.00012313385302953 -0.000164255350942814 0.000100060731665229 2.42250079094324e-06 0.000147731938027377 -5.33461478717001e-05 -0.000335556587027164 -0.000254011960634848 -0.0002438273484907 -0.000125807423469303 -0.000208751372214613 -0.000406656826683403 -0.000643036763691463 -0.000255022307225314
"197" 8.27069199824538e-05 0.000149370176050723 0.000130996553344655 -0.000166375464845604 0.000115750977449595 -1.3323561997232e-05 0.000147955166545316 -5.66115798989754e-05 -0.000331267646468658 -0.000265023678358174 -0.000252724188445758 -0.000119906190046639 -0.000158196662039279 -0.000403836668075785 -0.000651292549594642 -0.000208427989817217
"198" 8.47417003833456e-05 0.000158663354836624 0.000137714781086759 -0.000168894820403146 0.000129373260100021 -2.87034524596581e-05 0.000148132272893094 -6.02447720007248e-05 -0.000327621510737743 -0.000276747916844763 -0.000262181815942221 -0.000114789932926643 -0.000108262252474243 -0.000402107319846154 -0.000659906380574695 -0.000162532857620474
"199" 8.65573287543481e-05 0.000166817550375302 0.00014322312636409 -0.000171805445519413 0.000140766260481649 -4.35872210596249e-05 0.000148231975682998 -6.41993990702772e-05 -0.000324720477188349 -0.000289146718386971 -0.00027217053681535 -0.000110538140698309 -5.93506087205708e-05 -0.00040153901390488 -0.000668865831926093 -0.000117707395285121
"200" 8.81173550496469e-05 0.000173764199530151 0.000147441349994783 -0.000175116677578659 0.000149798396651812 -5.7867223816379e-05 0.000148212668770318 -6.84345809031448e-05 -0.000322660097761501 -0.000302183133631306 -0.000282656504234317 -0.00010723289345863 -1.18650855469896e-05 -0.000402199845972921 -0.000678159193466867 -7.43022353239007e-05
"201" 8.94122650175822e-05 0.000179452014900238 0.000150338875164042 -0.000178814686707891 0.000156369579696976 -7.14279559384817e-05 0.000148037952302563 -7.28948961958863e-05 -0.000321516323444506 -0.000315802936404722 -0.000293602269579605 -0.000104930635763514 3.3815076326632e-05 -0.000404122851357271 -0.000687757768082909 -3.26638981552161e-05
"202" 9.04262651058594e-05 0.000183841043430517 0.000151885115936899 -0.000182886259335595 0.000160403427709838 -8.41685467861598e-05 0.000147671621438725 -7.75360010022566e-05 -0.00032136510475353 -0.000329959215212717 -0.000304964504702759 -0.000103687647354756 7.73165122920075e-05 -0.000407350812075835 -0.00069764322857674 6.87879445066072e-06
"203" 9.11521414085778e-05 0.000186906032338019 0.000152069132231076 -0.000187319575530267 0.000161841189623151 -9.60025348143649e-05 0.000147066474086696 -8.23036357585251e-05 -0.00032226486133571 -0.000344600905028262 -0.000316703188136896 -0.000103542091447037 0.000118288947041882 -0.000411889883529542 -0.00070779405806636 4.400884392781e-05
"204" 9.15979425994729e-05 0.000188646416507322 0.000150915485449558 -0.000192086959188472 0.00016067830941499 -0.000106844418790146 0.000146189570090423 -8.71424138898025e-05 -0.000324252527382332 -0.000359655126838644 -0.000328762491509692 -0.000104511419690033 0.000156425523350591 -0.000417739594389018 -0.000718162410912468 7.84541995172122e-05
"205" 9.17607670480826e-05 0.00018905231749828 0.000148432508681339 -0.000197178895286743 0.000156912323120812 -0.000116632900119248 0.000144996108461249 -9.20006764862584e-05 -0.000327375198052161 -0.000375072925033401 -0.000341098240142195 -0.000106630045704669 0.000191405825143574 -0.000424885978695489 -0.00072872138259124 0.000109936452070446
"206" 9.1663889586789e-05 0.000188150783285729 0.000144683110597059 -0.000202552424681456 0.000150586018235432 -0.00012530247290899 0.000143446233582787 -9.68251617913435e-05 -0.000331644631304138 -0.000390779424454031 -0.00035365144144564 -0.000109881480823543 0.000222984219255194 -0.000433294064879121 -0.000739427592271891 0.000138230285409545
"207" 9.13237408175811e-05 0.000185977527653964 0.000139727835273166 -0.000208184328191361 0.000141776748847977 -0.000132809827694383 0.000141506872885104 -0.000101554954253065 -0.00033706496678377 -0.000406701623185831 -0.000366365162507574 -0.000114260666838712 0.000250929897496427 -0.000442911872406873 -0.000750228197267878 0.000163138804261848
"208" 9.0762042531693e-05 0.000182564791718499 0.000133629834834492 -0.000214045873241612 0.000130545846899241 -0.000139126601174185 0.000139126563305373 -0.000106152335179815 -0.000343645815282208 -0.000422783770267118 -0.000379189723621943 -0.000119755283010544 0.00027503538456066 -0.000453689700982574 -0.000761084945114167 0.000184483064275967
"209" 9.00152690546265e-05 0.000177973646925091 0.000126500582706207 -0.000220090948098009 0.000117035947267977 -0.000144223569696114 0.00013628162735994 -0.000110556145370685 -0.000351354461538139 -0.000438932063176039 -0.000392053879583477 -0.000126319870161749 0.000295159573282064 -0.000465545988435436 -0.000771931671035388 0.00020214187116372
"210" 8.91156108843748e-05 0.000172271470950799 0.000118432263818136 -0.000226287183043364 0.000101374912180575 -0.000148093866674243 0.00013292986988016 -0.000114721891413388 -0.000360168979808538 -0.000455074534790575 -0.00040490262844807 -0.000133917462694165 0.000311178720701312 -0.000478394748634728 -0.000782712081312412 0.000216016368251693
"211" 8.8105091845407e-05 0.000165532013723547 0.000109547903738103 -0.000232586640078502 8.37288562286286e-05 -0.000150739281156912 0.000129045233767565 -0.000118600149568131 -0.000370043212140925 -0.000471128927241119 -0.000417670150825838 -0.000142492380027909 0.000323018258953324 -0.000492133469210527 -0.00079335993673844 0.000226048926352977
"212" 8.70288997247228e-05 0.000157839237996006 9.99770493662363e-05 -0.000238943299049034 6.42746056481832e-05 -0.00015216655872987 0.000124596391140055 -0.000122148467484836 -0.000380926832869802 -0.000487008645308696 -0.000430291032447629 -0.000151982450802119 0.000330646685957639 -0.000506659449645546 -0.000803810279009093 0.000232220795071629
"213" 8.59334859626743e-05 0.000149286483150817 8.98525426236787e-05 -0.000245311021530062 4.3212810867596e-05 -0.000152403569227487 0.000119554014118818 -0.000125327520999062 -0.000392749199410851 -0.000502626648984645 -0.000442700469269601 -0.000162312876343112 0.000334072646859886 -0.000521850957034009 -0.000813988068806237 0.00023456138914645
"214" 8.48659746874264e-05 0.000139967101147959 7.93135188588918e-05 -0.000251635747435394 2.07519834651097e-05 -0.000151481954799617 0.000113898655993616 -0.000128101327238549 -0.000405437183520098 -0.000517892788257263 -0.00045483056740117 -0.000173411687444413 0.000333337771024613 -0.00053758030439877 -0.000823816413408235 0.000233117297835439
"215" 8.38685860965344e-05 0.00012998394663163 6.85012700128031e-05 -0.000257879504465001 -2.88924883176912e-06 -0.00014944938379354 0.000107599350005726 -0.000130441993195218 -0.00041891883736887 -0.000532728057933715 -0.000466627182056817 -0.000185203006138604 0.000328519576417823 -0.000553726611642307 -0.00083322921126686 0.000227980878977336
"216" 8.30084103934699e-05 0.000119448546020919 5.75772598734936e-05 -0.000263966467520844 -2.74572823745225e-05 -0.000146349298784343 0.000100653034949913 -0.00013231233372355 -0.000433082039065285 -0.000547018509565825 -0.000478008564545334 -0.000197579758925101 0.00031975832169029 -0.000570136493234311 -0.000842129462614156 0.000219290719177685
"217" 8.23202479009805e-05 0.000108460186900173 4.66768885750365e-05 -0.000269858985222931 -5.27295326130045e-05 -0.000142253516549316 9.30420636615745e-05 -0.000133696380417716 -0.000447834141475943 -0.000560682868003173 -0.000488917109966503 -0.000210466125633028 0.000307190321439099 -0.000586667664857968 -0.000850437935644985 0.000207190016629401
"218" 8.18519325241608e-05 9.71351522647895e-05 3.59556718469518e-05 -0.000275496880798874 -7.84459058821266e-05 -0.000137232734736672 8.47507146825836e-05 -0.000134571992161429 -0.000463070799079983 -0.000573625565966816 -0.000499291507390327 -0.00022376283723965 0.00029101308538423 -0.000603184079102285 -0.000858075013420793 0.000191878213957225
"219" 8.16482823858072e-05 8.55769059256161e-05 2.55464361130869e-05 -0.000280829108624092 -0.000104369070476029 -0.000131362122102964 7.57752375337855e-05 -0.000134930620122707 -0.000478678674379324 -0.000585753867171097 -0.000509071592623964 -0.00023738227113685 0.000271429430892094 -0.000619537509781744 -0.000864954660233078 0.000173554847604749
"220" 8.1756288986376e-05 7.38945957486428e-05 1.55988082132467e-05 -0.00028579578823627 -0.000130235802981626 -0.000124731692219133 6.61186321987141e-05 -0.00013475656049241 -0.000494534966248462 -0.000596968781698176 -0.000518188647810212 -0.00025122017881695 0.000248691022799174 -0.000635566644296764 -0.000870989062567703 0.000152466924282054
"221" 8.22023310736606e-05 6.2188911727597e-05 6.22659775276845e-06 -0.000290351170903627 -0.000155818254310968 -0.000117435760819395 5.57739875466886e-05 -0.000134057861796601 -0.00051052427474112 -0.000607186903593319 -0.000526594725932296 -0.000265192887790486 0.000223045260232377 -0.000651145981190899 -0.0008761008335986 0.000128850961649444
"222" 8.30131521223864e-05 5.05557691919547e-05 -2.44609974256604e-06 -0.000294450048559504 -0.000180873658706296 -0.000109577414164308 4.47485982225606e-05 -0.000132833414092969 -0.00052652096098242 -0.000616322066135486 -0.000534236812993521 -0.000279210029485733 0.000194766323675728 -0.000666127422025821 -0.000880213893926794 0.000102980808234378
"223" 8.421594482928e-05 3.90957263011294e-05 -1.03128625396508e-05 -0.000298038793704169 -0.000205171263757961 -0.000101259138235807 3.305418807407e-05 -0.000131091554491743 -0.000542401984403171 -0.000624283477284854 -0.00054106086155869 -0.000293178886831046 0.000164150722813476 -0.000680370688560437 -0.000883245250586449 7.51306638792469e-05
"224" 8.58240718717891e-05 2.78970570285772e-05 -1.72773999356076e-05 -0.000301078184089408 -0.000228486629829185 -9.25933693225279e-05 2.07011001483902e-05 -0.000128848694838968 -0.000558049050175508 -0.00063100004594216 -0.000547024822578092 -0.000307022299290999 0.000131491895106409 -0.000693750247810908 -0.000885128776349003 4.55901474226684e-05
"225" 8.78438447207469e-05 1.70390346055249e-05 -2.32632094386472e-05 -0.000303528229153343 -0.000250620961984042 -8.36940018032999e-05 7.70550358590147e-06 -0.000126124067064594 -0.000573330256715321 -0.000636392986496811 -0.000552087408619663 -0.000320654448877564 9.71024496822112e-05 -0.00070613714410749 -0.000885799783769281 1.46451953397687e-05
"226" 9.02590585002612e-05 6.58821989450072e-06 -2.82172502381683e-05 -0.000305369730376934 -0.00027140121685786 -7.46864327879015e-05 -5.92200718884978e-06 -0.000122952719679578 -0.000588144991936356 -0.000640416334669237 -0.00055622457726905 -0.000334018184568868 6.12738003941805e-05 -0.000717435449469485 -0.000885212615325211 -1.7425595016148e-05
"227" 9.30645888664074e-05 -3.38499564131603e-06 -3.20929178438379e-05 -0.000306566007923389 -0.000290643771048102 -6.56815605164828e-05 -2.01451963877131e-05 -0.000119357268789997 -0.00060236159521102 -0.000642997774674395 -0.000559397859199916 -0.000347040476770814 2.43144207664017e-05 -0.00072752915211161 -0.000883308152636041 -5.03373305909648e-05
"228" 9.62368673718754e-05 -1.28313126764038e-05 -3.4862341151336e-05 -0.000307100624593346 -0.000308200782435329 -5.68061934467509e-05 -3.49414255508223e-05 -0.000115377197271314 -0.000615878387695807 -0.000644097151462745 -0.000561592756892781 -0.000359663528772031 -1.34707066940145e-05 -0.000736330475522276 -0.000880056489627556 -8.3803312900612e-05
"229" 9.97279545908059e-05 -2.17049857713746e-05 -3.65359629696152e-05 -0.000306970692464364 -0.000323955981586869 -4.81812739480373e-05 -5.02889208755362e-05 -0.000111063989352515 -0.000628599907178151 -0.000643689932101151 -0.000562799740714153 -0.000371845308719186 -5.1796004449952e-05 -0.000743770131518412 -0.000875433827826795 -0.000117567958038598
"230" 0.00010349693334251 -2.99734996156102e-05 -3.71270717975752e-05 -0.000306166147817821 -0.000337815535952527 -3.99239278361877e-05 -6.61479459867764e-05 -0.000106456544999755 -0.000640428072234637 -0.000641748207057597 -0.000563012258260062 -0.000383542231634395 -9.03818870204948e-05 -0.000749783963625314 -0.000869430983561976 -0.000151371459889024
"231" 0.000107481349927712 -3.76184886675956e-05 -3.66751656253193e-05 -0.000304699945122806 -0.00034969734340228 -3.21555284992929e-05 -8.24846988544582e-05 -0.000101610171430153 -0.000651278193555274 -0.000638269585675524 -0.000562237058201503 -0.00039472597286428 -0.000128960324791624 -0.000754331541285329 -0.000862044678232948 -0.00018497540044532
"232" 0.000111606400783946 -4.46290651858326e-05 -3.52527537360121e-05 -0.00030258581782135 -0.000359565482583517 -2.4988075288751e-05 -9.9258387537902e-05 -9.65825313188219e-05 -0.000661075661242875 -0.000633256986416951 -0.000560483828637681 -0.000405372505566192 -0.000167283307035023 -0.000757377967357313 -0.000853297652099775 -0.000218155136494905
"233" 0.000115789844998465 -5.1006435786501e-05 -3.29457104375207e-05 -0.000299851095962898 -0.000367406684843845 -1.85328017890526e-05 -0.000116431992517121 -9.1430949724424e-05 -0.000669758912919641 -0.000626734556191019 -0.000557776910358456 -0.000415468495852777 -0.000205107586942382 -0.00075891443261546 -0.000843217458864533 -0.000250695843852164
"234" 0.000119934403327954 -5.67662000577154e-05 -2.98625844184182e-05 -0.000296532593801517 -0.000373236845445341 -1.28915305039647e-05 -0.000133961548566703 -8.62233965062601e-05 -0.000677275927306489 -0.000618741669109893 -0.000554148657381124 -0.000425014093855358 -0.000242222898488437 -0.000758948341993475 -0.000831856043381596 -0.00028241611185412
"235" 0.000123937596372486 -6.19337601664398e-05 -2.61328881584636e-05 -0.000292673858219123 -0.000377102892830878 -8.15794480774033e-06 -0.000151792326459706 -8.10191558580657e-05 -0.000683589276275069 -0.000609326665625643 -0.000549638019005243 -0.00043401737706945 -0.000278443085386547 -0.000757500051716613 -0.00081926926815558 -0.000313154469783986
"236" 0.000127680526517842 -6.65490507405717e-05 -2.19180642035205e-05 -0.000288332503500144 -0.000379090902621615 -4.42320651308983e-06 -0.000169883468461963 -7.58920971137837e-05 -0.000688668743233255 -0.000598563538736725 -0.000544298486311294 -0.000442494238084114 -0.000313583564999119 -0.000754616067052376 -0.000805549223692252 -0.000342754954040399
"237" 0.000131046186444084 -7.06579505462515e-05 -1.73815728883468e-05 -0.000283566353701386 -0.000379297700423278 -1.76201341679349e-06 -0.000188182358532213 -7.09045282002895e-05 -0.000692501856062303 -0.000586527273077923 -0.000538180365446403 -0.000450460193326698 -0.000347490491029641 -0.000750345139652964 -0.00079077268290048 -0.000371089159699575
"238" 0.000133906320375544 -7.43116434257339e-05 -1.27087842515296e-05 -0.000278445734156407 -0.00037786218500625 -2.37986621130233e-07 -0.000206625858576014 -6.61217972441494e-05 -0.000695085669235536 -0.0005733101094947 -0.00053135239954029 -0.000457951392675994 -0.000380035692167588 -0.000744764479075675 -0.000775055728306826 -0.000398049887788982
"239" 0.000136113176957594 -7.75923408200856e-05 -8.12080197088325e-06 -0.000273059693786755 -0.000374962031856043 8.85323946609089e-08 -0.000225172607713069 -6.16226131525915e-05 -0.00069643604734063 -0.000559037194104774 -0.000523890801559646 -0.000465016596619835 -0.000411118349768034 -0.000737969533089327 -0.000758520385898579 -0.000423562324165336
"240" 0.000137539975966074 -8.05633230280711e-05 -3.82176196000703e-06 -0.000267485493382407 -0.000370777103183809 -8.1927420763404e-07 -0.00024375683939696 -5.74646624505318e-05 -0.000696575236671308 -0.00054381940996629 -0.000515873719715293 -0.000471696151668302 -0.000440641524736573 -0.000730058253364866 -0.000741298623346541 -0.000447553716040964
"241" 0.000138036302935124 -8.33191138119501e-05 -4.81731754426676e-08 -0.00026182029257163 -0.000365529114879715 -2.99638009767154e-06 -0.00026232858318228 -5.37194448239598e-05 -0.000695545774797967 -0.000527794431340212 -0.000507388102027612 -0.000478042608038621 -0.000468546555535743 -0.00072114823064468 -0.000723535946090371 -0.000469981832886145
"242" 0.000137473927528858 -8.59391637223098e-05 2.97497825581405e-06 -0.000256149321591335 -0.000359447660481635 -6.44829739936214e-06 -0.000280817146850522 -5.04375491257975e-05 -0.000693385896952126 -0.000511096293679069 -0.00049852036815824 -0.000484113587370015 -0.000494783236918799 -0.000711365226187105 -0.00070538119166844 -0.000490814989669287
"243" 0.000135709342213736 -8.85240909162745e-05 5.00549562859324e-06 -0.000250573261296966 -0.000352784105539329 -1.11784349536404e-05 -0.000299163153898848 -4.76809629902629e-05 -0.000690155352928323 -0.000493875414288515 -0.000489363646719342 -0.000489970636591817 -0.00051933203293716 -0.000700836703018319 -0.000686988487433248 -0.00051005187744096
"244" 0.000132607085821067 -9.1172846119433e-05 5.80188715954886e-06 -0.000245195384093225 -0.000345809623225335 -1.71767733863941e-05 -0.000317313519536601 -4.55045416307514e-05 -0.00068592416664031 -0.000476285595863942 -0.000480018591278081 -0.00049568343171266 -0.000542186041960568 -0.000689710403765308 -0.000668528227970484 -0.000527699783276045
"245" 0.000128044419642238 -9.39853322780391e-05 5.12772337238831e-06 -0.000240111602560528 -0.000338807399018636 -2.44095647975303e-05 -0.000335204552019502 -4.39562195437446e-05 -0.000680773488954221 -0.000458485496603396 -0.000470583174317323 -0.000501315512128772 -0.000563363211723905 -0.000678135148714146 -0.000650162726575848 -0.000543789838849743
"246" 0.000121907539877427 -9.70574658722523e-05 2.76335682566304e-06 -0.00023541725896795 -0.000332046287723707 -3.28342554900249e-05 -0.000352769466003742 -4.30730663028942e-05 -0.000674777354168475 -0.000440624349676579 -0.000461149609646172 -0.000506932786248027 -0.000582883558829205 -0.000666253210096257 -0.00063205260597643 -0.000558351343236395
"247" 0.000114094523465503 -0.000100490130747285 -1.50524301983697e-06 -0.000231200530779538 -0.000325802852796783 -4.23927335592257e-05 -0.000369945752903325 -4.28847149147734e-05 -0.000668023338928107 -0.000422853098189712 -0.000451810916273483 -0.000512600129855401 -0.00060079446490091 -0.000654208513252597 -0.00061435272013342 -0.000571440481558739
"248" 0.000104507330995111 -0.000104382293264293 -7.88857593411742e-06 -0.000227559563290894 -0.000320371760911371 -5.30170287228974e-05 -0.000386679949274171 -4.34285460940514e-05 -0.000660610443679915 -0.000405328883280183 -0.000442666976141959 -0.000518384095695525 -0.000617157213946996 -0.000642151386025641 -0.000597228510003104 -0.000583127900971495
"249" 9.3075580159753e-05 -0.000108822953875049 -1.65595395070664e-05 -0.000224567011578441 -0.000316015826035027 -6.46245240832153e-05 -0.000402908805794567 -4.47192401316815e-05 -0.000652626954694838 -0.000388188911183491 -0.000433800193735869 -0.000524340167982029 -0.000632028944746022 -0.00063022364572322 -0.000580823607659977 -0.000593479878444974
"250" 7.97460301063537e-05 -0.000113895005772148 -2.76718961206839e-05 -0.000222296361336601 -0.000312972996748512 -7.71176041452291e-05 -0.000418563536089154 -4.67591344534749e-05 -0.0006441620540104 -0.000371558363161376 -0.00042528909091692 -0.000530521059462402 -0.000645497028747142 -0.000618533231251893 -0.000565257277839779 -0.00060258208172112
"251" 6.44732207830538e-05 -0.000119681663509302 -4.13648093113946e-05 -0.000220820146542097 -0.000311506979194539 -9.03976672809638e-05 -0.000433601006350301 -4.95638743651535e-05 -0.000635326107755088 -0.000355575905819287 -0.000417218665620823 -0.000536978969248727 -0.000657638503927033 -0.000607234262347967 -0.000550680066336707 -0.000610522420755357
"252" 4.72447793299944e-05 -0.000126240151499346 -5.77383699989389e-05 -0.000220186240114131 -0.00031181704048621 -0.000104347703331995 -0.000447956161220894 -5.31188591607707e-05 -0.00062619759426817 -0.000340342351835833 -0.000409649263566153 -0.000543754392359499 -0.000668550557658005 -0.000596416837135058 -0.000537186529743498 -0.000617395860109093
"253" 2.8061044356441e-05 -0.000133637510494038 -7.68651917604695e-05 -0.000220441166003152 -0.000314093657661398 -0.000118850843625291 -0.000461576446565528 -5.7408387598552e-05 -0.000616870867677002 -0.000325955751541017 -0.000402641346454406 -0.000550874992182716 -0.000678319847199715 -0.000586186389535006 -0.000524873101298507 -0.000623296214636312
"254" 6.94489916300664e-06 -0.000141916269124766 -9.87933638076817e-05 -0.000221622534353291 -0.000318521219019983 -0.000133780602713411 -0.000474417366713228 -6.2419916037077e-05 -0.000607438844673178 -0.00031251079565293 -0.000396250023259368 -0.000558372171136406 -0.000687051872044658 -0.000576637754140765 -0.00051382839109146 -0.000628325974836153
"255" -1.60466361000369e-05 -0.000151101547273609 -0.000123512407399025 -0.00022373616735588 -0.000325189679400385 -0.000149000967322049 -0.000486415691698357 -6.81071636327004e-05 -0.000597963630869318 -0.000300056880126806 -0.000390505439566869 -0.000566241480468077 -0.000694817495520739 -0.000567821824480023 -0.000504098614172176 -0.000632569145677206
"256" -4.08530727998377e-05 -0.000161223042798901 -0.000151006052724064 -0.000226805151276362 -0.000334225875836458 -0.000164383379706299 -0.000497532886048687 -7.44375148525661e-05 -0.000588528750931881 -0.000288657952888607 -0.00038544382939418 -0.000574499135435609 -0.000701731351584656 -0.000559809480781634 -0.000495735312906867 -0.000636133944245144
"257" -6.73805827080771e-05 -0.000172284981226842 -0.000181207252426162 -0.000230822409067444 -0.000345678121565068 -0.000179791664970508 -0.000507727781269946 -8.13644473415949e-05 -0.000579199649311228 -0.000278350959101284 -0.000381081275438128 -0.000583133236551185 -0.000707872989580274 -0.000552638215906421 -0.000488766016680768 -0.000639105881669583
"258" -9.55138572286083e-05 -0.00018427103594481 -0.000214015330521033 -0.000235766164110811 -0.000359575218863613 -0.000195089079126461 -0.000516954656797454 -8.88289389512528e-05 -0.00057003366243773 -0.000269152904805652 -0.000377426869717944 -0.00059211878922615 -0.000713322893679653 -0.000546328357640589 -0.000483195285737476 -0.000641568663374874
"259" -0.000125126055260616 -0.000197165861804331 -0.000249305474349946 -0.000241620845262614 -0.0003759082558693 -0.000210149119339638 -0.000525182532043738 -9.67781922157112e-05 -0.000561084100377467 -0.000261078306099771 -0.000374483362788513 -0.000601429215383016 -0.000718156804128033 -0.000540902024680648 -0.000479020701780249 -0.000643604199262147
"260" -0.000156052627865599 -0.000210920327607456 -0.00028689745013047 -0.000248328467707163 -0.000394612505966353 -0.000224828624169088 -0.000532368653179035 -0.000105132449244093 -0.000552379891374425 -0.000254100121563221 -0.000372223205879884 -0.000611007894337685 -0.000722431985257837 -0.000536339875096618 -0.000476206769147542 -0.000645274278658257
"261" -0.000188137126843157 -0.000225497498642044 -0.000326606746739793 -0.000255855881568813 -0.000415615979107056 -0.000239012522657238 -0.00053848983660966 -0.000113824245287971 -0.000543957752785376 -0.000248211058259832 -0.00037063670370248 -0.000620811228066874 -0.000726211893524422 -0.000532628014345404 -0.000474714377567884 -0.000646649471213057
"262" -0.000221183756466684 -0.000240817421392626 -0.000368200049072022 -0.000264129775679263 -0.000438794635522638 -0.000252573000846915 -0.000543515124569657 -0.000122776431193332 -0.000535843115801218 -0.000243362871383439 -0.000369680419701649 -0.000630768629074816 -0.000729530564488329 -0.000529740435582461 -0.000474491663386366 -0.000647768829777452
"263" -0.000254997173113419 -0.000256811246722471 -0.000411428809311162 -0.000273088408043053 -0.000463996292094804 -0.00026540052998923 -0.000547423422567117 -0.000131907873242506 -0.000528044418480319 -0.000239511676558036 -0.000369318340113397 -0.000640800809866602 -0.000732417682323447 -0.000527621850455631 -0.000475462248003107 -0.000648674482376067
"264" -0.000289366497339574 -0.000273389822407576 -0.000456025320434954 -0.000282649440577067 -0.000491046346670939 -0.000277385195675197 -0.000550193485721477 -0.000141133397311238 -0.000520572134932246 -0.000236599489872824 -0.000369496908178986 -0.000650828036928684 -0.000734907048688886 -0.000526223490282295 -0.000477544166976202 -0.000649404748695245
"265" -0.000324072586050391 -0.000290451549942721 -0.00050169075747954 -0.00029273206201455 -0.000519735413894702 -0.000288430840695521 -0.000551812095980796 -0.000150367303979115 -0.000513421361476782 -0.000234556373375635 -0.00037016282029997 -0.000660757650468912 -0.000736998510827763 -0.000525482100955963 -0.000480648913571685 -0.000649967923530714
"266" -0.000358873516277492 -0.000307882914534192 -0.000548110473990788 -0.000303234461810937 -0.000549823044266462 -0.000298443439562011 -0.000552264641209449 -0.000159519191835278 -0.000506572555630548 -0.000233296414864501 -0.000371238703814665 -0.000670474466393421 -0.000738671578262638 -0.000525310202610319 -0.000484659393564636 -0.00065036201507835
"267" -0.000393550003530028 -0.000325569026693465 -0.000594972001784324 -0.000314068524414399 -0.000581062374406833 -0.000307350860647825 -0.000551545579206454 -0.000168506574335488 -0.000500018969881061 -0.000232747287078343 -0.000372665254747144 -0.000679890107768818 -0.000739930122502237 -0.000525640359921346 -0.000489477571542025 -0.000650592635028951
"268" -0.000427853919507129 -0.000343384856356796 -0.000641933746867187 -0.000325123537962046 -0.000613178380753105 -0.000315075266531496 -0.000549647557756376 -0.000177236607074558 -0.000493726287453268 -0.000232805614200462 -0.000374355916705286 -0.000688878376455466 -0.000740731427186023 -0.000526369952455327 -0.000494969181685166 -0.000650634905118897
"269" -0.000461553598244171 -0.000361197578859079 -0.00068865479638172 -0.00033630092237744 -0.000645882160464465 -0.00032156745131904 -0.000546573611227656 -0.000185625361152663 -0.000487662489065127 -0.000233377322727743 -0.000376230799424831 -0.000697325601732503 -0.000741026189125681 -0.00052740819479722 -0.000501009971313743 -0.000650450163944586
"270" -0.000494397550622461 -0.000378871336814465 -0.000734787218586285 -0.000347479150310242 -0.00067886904800132 -0.000326767441840911 -0.000542318890702 -0.000193582959764249 -0.000481778886229701 -0.000234351394831607 -0.000378198636690694 -0.000705106408646174 -0.000740777605675428 -0.000528643264506274 -0.000507454726588692 -0.000650009916008016
"271" -0.000526165125787731 -0.000396277931905957 -0.000780000717380034 -0.000358562741146914 -0.000711850641812693 -0.000330651713439488 -0.000536904398322999 -0.000201040206541916 -0.000476048300953701 -0.000235639275915714 -0.000380178823764822 -0.000712106503689863 -0.000739914858816769 -0.00052998187513081 -0.000514183011119489 -0.000649262743994693
"272" -0.000556623083696131 -0.000413272807258499 -0.000823947021796519 -0.000369434760364295 -0.000744491541251526 -0.000333187407832479 -0.000530331556453258 -0.000207908208578864 -0.000470406697796958 -0.00023711858638335 -0.000382071682095439 -0.00071820240001905 -0.000738374455627919 -0.000531308119615231 -0.000521041017172612 -0.000648147635676019
"273" -0.000585539592036427 -0.000429711328398967 -0.00086628274694374 -0.000379971184897619 -0.000776478464565586 -0.000334356585226845 -0.000522610304024942 -0.000214113807712528 -0.000464798462401133 -0.000238677988509672 -0.000383781098839666 -0.000723263522906515 -0.000736074036724617 -0.000532502723084312 -0.000527870761410674 -0.000646600288667099
"274" -0.000612712964600513 -0.000445473159648456 -0.000906695254220896 -0.000390082871559499 -0.000807507613658396 -0.000334164860878148 -0.000513775129604567 -0.000219594237788709 -0.000459175300724195 -0.000240217977466017 -0.000385219570526547 -0.000727184454310834 -0.000732941434316727 -0.000533468503604955 -0.000534545910748253 -0.000644555746250148
"275" -0.000637939033500008 -0.000460416588922544 -0.000944865420137629 -0.000399647840306775 -0.000837266175928141 -0.000332614895791238 -0.000503843856123037 -0.000224286679331523 -0.000453471467800397 -0.000241624049418994 -0.000386291524713747 -0.000729844364282356 -0.000728889549180949 -0.000534081349434999 -0.00054090037791679 -0.000641939863056888
"276" -0.000661025629800718 -0.000474417596535326 -0.000980493304812404 -0.000408567585960785 -0.000865446915278156 -0.000329727870404717 -0.00049284248944807 -0.000228132397223535 -0.000447621886703392 -0.000242784886155805 -0.000386897263406081 -0.000731127077698902 -0.000723835493436283 -0.000534225193276957 -0.000546788947577478 -0.000638673189582718
"277" -0.00068180528392477 -0.000487358562733456 -0.00101330194627453 -0.000416741481294771 -0.000891752083223461 -0.000325536016169552 -0.000480809721552568 -0.000231082342202942 -0.000441563855409478 -0.000243593776757415 -0.000386949859368332 -0.00073093893072447 -0.000717701366580647 -0.000533789338155203 -0.000552061877898488 -0.000634686286212267
"278" -0.000700110400105261 -0.000499120724433373 -0.00104301498815426 -0.000424068200704745 -0.00091589974951488 -0.000320075036990937 -0.000467784061236164 -0.000233098839595362 -0.000435232095856903 -0.000243948995030704 -0.000386357915915033 -0.00072917228737982 -0.000710392316781662 -0.000532666007379999 -0.00055656770721443 -0.00062989217878733
"279" -0.000715802412048818 -0.000509605112489735 -0.0010693954328828 -0.000430458913009991 -0.000937610194109656 -0.000313399044349907 -0.000453804401225491 -0.000234140345258461 -0.000428558327002944 -0.000243740047142401 -0.000385034005807211 -0.000725745321533158 -0.000701842354555289 -0.00053073833550421 -0.000560158091319623 -0.000624228049490185
"280" -0.000728757975666788 -0.000518710218578483 -0.00109221443506145 -0.000435824188097084 -0.000956631264947109 -0.000305565729142996 -0.000438919177780122 -0.000234181750255812 -0.000421474228688238 -0.000242869891669672 -0.000382890050390716 -0.000720567067323794 -0.000691969011476299 -0.00052789655603103 -0.00056268314866524 -0.000617615162242928
"281" -0.000738876091736065 -0.000526355812059207 -0.00111128312007296 -0.000440093718234028 -0.00097273142724879 -0.000296648783321417 -0.000423192207888639 -0.000233214021152851 -0.000413927772115586 -0.000241252241028514 -0.000379857021660794 -0.000713576686831825 -0.000680714902853762 -0.00052404942429783 -0.000564011211389743 -0.000609988826946877
"282" -0.000746076888380623 -0.000532473039782088 -0.00112642526836169 -0.000443195438466564 -0.000985684471638924 -0.00028672824306858 -0.000406679152745876 -0.000231223540082381 -0.000405849639292045 -0.000238797564994231 -0.000375857576310165 -0.000704712737514861 -0.000668017909110717 -0.000519090365182412 -0.000564000626832122 -0.000601293654288721
"283" -0.000750292459852574 -0.000536995140518123 -0.00113748833451384 -0.000445060929126292 -0.000995286034042082 -0.000275887869528654 -0.00038944361271321 -0.000228209411299398 -0.000397183681988766 -0.00023542011324621 -0.000370822672422114 -0.000693923946176213 -0.000653829851121539 -0.000512931054882907 -0.000562520215884228 -0.000591472992266987
"284" -0.000751493160341048 -0.000539885395725622 -0.00114436567897633 -0.000445647016654895 -0.00100137915862035 -0.000264227834877887 -0.000371565469879794 -0.00022418957824117 -0.000387881394410345 -0.000231054803864192 -0.000364700946214488 -0.000681184160809629 -0.000638119907720905 -0.000505494403534469 -0.000559453094587226 -0.000580486672520022
"285" -0.000749662535688102 -0.00054110328331368 -0.00114696047481058 -0.000444904561691563 -0.00100380004007952 -0.000251849576655488 -0.000353116027631192 -0.000219177314487974 -0.000377893681103338 -0.00022563085555393 -0.00035743471722186 -0.000666462606519398 -0.000620857083902677 -0.000496697413051405 -0.000554683112012763 -0.00056829796183487
"286" -0.00074481152477923 -0.00054063190447489 -0.00114521980725928 -0.000442804392123436 -0.00100242964739824 -0.000238863369866389 -0.000334187209157934 -0.000213205417956539 -0.000367177626418651 -0.000219098716564803 -0.000348984391660563 -0.000649759377825949 -0.000602035784530812 -0.000486480601600595 -0.000548107860983786 -0.000554885495230441
"287" -0.000736968485032965 -0.000538467611080884 -0.00113910721974093 -0.000439321260788977 -0.000997169802968467 -0.000225384251852864 -0.000314862613325027 -0.000206307642482954 -0.000355696608996022 -0.000211405529154412 -0.000339314249261879 -0.000631076115302077 -0.000581643193187861 -0.000474790803551476 -0.000539633861244741 -0.000540227878542957
"288" -0.000726206045250596 -0.000534629068118307 -0.0011286468462369 -0.00043445338097677 -0.000987972147516393 -0.000211539604586172 -0.000295248588678863 -0.000198542471374314 -0.000343441927299042 -0.000202537665437487 -0.000328411692365577 -0.0006104502631209 -0.000559725333597862 -0.000461596695468024 -0.000529198417689728 -0.000524344279029316
"289" -0.000712598897783343 -0.000529136601602472 -0.00111385821907791 -0.000428196892255077 -0.000974784510317088 -0.000197448579382197 -0.000275437934472285 -0.000189959261540511 -0.00033037855862428 -0.000192457343862322 -0.000316258415089953 -0.000587905567601651 -0.000536284356499054 -0.000446860417878974 -0.00051672556499089 -0.000507222508229028
"290" -0.000696263782423618 -0.000522038818254651 -0.00109482291341417 -0.000420575543141475 -0.000957617211016322 -0.000183248975795715 -0.000255548607289293 -0.000180627080859819 -0.000316518745469103 -0.000181177170029977 -0.000302864521044476 -0.000563513723507343 -0.000511383603267931 -0.000430589491653845 -0.000502191865514981 -0.00048889625799444
"291" -0.000677331019081562 -0.000513387462027442 -0.001071640724053 -0.000411607737495843 -0.000936502564101557 -0.000169066681569945 -0.000235688536613348 -0.00017062109549753 -0.000301856849355396 -0.000168697377553191 -0.000288238333727789 -0.000537333990292878 -0.000485076542385778 -0.000412785216890768 -0.000485560288061435 -0.000469399817293188
"292" -0.000655969237884628 -0.000503262320509004 -0.00104445473351234 -0.000401349921242763 -0.000911510972177293 -0.000155043532022908 -0.000215980731815341 -0.000160028431451195 -0.000286423951765271 -0.000155054140957653 -0.000272417471020229 -0.000509468799777139 -0.000457446072523907 -0.000393480407052477 -0.000466844112491713 -0.000448782067224036
"293" -0.000632352753451834 -0.000491747550826344 -0.00101343001691651 -0.000389844728025028 -0.000882731257894669 -0.000141311228909502 -0.000196539504828164 -0.00014892895347488 -0.00027023546102901 -0.000140277557025496 -0.000255439332467452 -0.000480017826863343 -0.000428584602697259 -0.000372715396650683 -0.000446053167253823 -0.000427104795993348
"294" -0.000606698108141625 -0.000478952816541312 -0.000978776474361464 -0.000377172312655892 -0.000850327211907745 -0.000128009896358932 -0.000177500539555326 -0.000137433947258555 -0.000253352539745622 -0.000124445562656796 -0.000237369979193451 -0.000449108028606425 -0.000398595597187164 -0.000350574168613646 -0.00042324957814744 -0.000404433309401557
"295" -0.000579227271913214 -0.000464985359297091 -0.000940721477627376 -0.000363408825431401 -0.000814445625725381 -0.000115272590809387 -0.000158981421010076 -0.000125633535036683 -0.000235815745096764 -0.000107621320792539 -0.000218273693517168 -0.000416875670864406 -0.000367595412301319 -0.000327128468736293 -0.000398492834696604 -0.000380853405560524
"296" -0.000550191937656318 -0.000449982549993347 -0.000899542305118448 -0.000348655350658866 -0.000775321079220719 -0.000103233283828295 -0.000141119201612359 -0.000113646135702174 -0.000217713127278346 -8.99163409024058e-05 -0.000198250949518947 -0.00038348594972624 -0.000335732261883843 -0.000302506331155889 -0.000371894646793556 -0.000356469021814332
"297" -0.000519851234840941 -0.000434077166811602 -0.000855517932004239 -0.000333012839731929 -0.000733174793102937 -9.20178085952778e-05 -0.000124033094512826 -0.000101573519638993 -0.000199111761047912 -7.14287865760621e-05 -0.000177395819065896 -0.000349097910563375 -0.000303134566540529 -0.000276825405392771 -0.000343569795282264 -0.000331370489107319
"298" -0.000488498898784479 -0.000417431982692171 -0.000808988557953591 -0.000316613909081085 -0.000688303646984188 -8.17565023572309e-05 -0.000107860474407711 -8.95449252088397e-05 -0.000180123271312836 -5.23090408136294e-05 -0.000155838158373531 -0.000313912047312821 -0.000269979031538403 -0.000250256267594666 -0.000313692167610482 -0.000305686472221651
"299" -0.000456424104868336 -0.00040019962437818 -0.000760286099087327 -0.000299580680548462 -0.00064100546786758 -7.25649820893894e-05 -9.27206623745363e-05 -7.76659332664616e-05 -0.000160845523756315 -3.26868245489354e-05 -0.000133701301813428 -0.000278115151093476 -0.000236413024537119 -0.000222958554476305 -0.000282426232207402 -0.000279525955275149
"300" -0.000423938575256889 -0.000382553959356357 -0.000709794043688478 -0.000282059778789029 -0.000591617995820587 -6.45582957591034e-05 -7.8735868360859e-05 -6.60603454534502e-05 -0.000141402825334388 -1.27347694407274e-05 -0.000111136564925551 -0.000241927664232407 -0.000202632209820573 -0.000195127782563138 -0.000249988864890776 -0.000253038383975979
"301" -0.000391355581769715 -0.000364669412972392 -0.000657896025007288 -0.000264200903701366 -0.000540513238249648 -5.78367248356585e-05 -6.6018390365039e-05 -5.48403357981024e-05 -0.000121919250948969 7.37446319738907e-06 -8.82996216919528e-05 -0.00020556373631318 -0.000168809967204705 -0.00016696884881646 -0.000216605095001873 -0.000226350165001152
"302" -0.000359001820326688 -0.000346731928273525 -0.000605010916044074 -0.000246169868415097 -0.000488081926982554 -5.25005292013305e-05 -5.46848241084335e-05 -4.41286564040078e-05 -0.000102541681961589 2.74408222166231e-05 -6.53676001569512e-05 -0.000169263115935686 -0.000135148226714244 -0.00013871740841904 -0.000182546720064574 -0.000199616317618612
"303" -0.000327191549567927 -0.000328915932733876 -0.000551541859394656 -0.000228120950611838 -0.00043472621449334 -4.86303401813342e-05 -4.48285223284656e-05 -3.40336578955166e-05 -8.34079037062555e-05 4.72765701392421e-05 -4.25135765538455e-05 -0.000133251979942783 -0.000101825342674284 -0.000110593279754602 -0.000148078198838973 -0.000172970996047795
"304" -0.000296255604326405 -0.000311417429893131 -0.000497939411279971 -0.000210235845072455 -0.000380879878004114 -4.63029773087721e-05 -3.65410488165455e-05 -2.46628479452378e-05 -6.46690644838742e-05 6.66674460214447e-05 -1.99302740501632e-05 -9.77824793661226e-05 -6.90563231936272e-05 -8.28430899344486e-05 -0.000113498066812717 -0.000146585757440906
"305" -0.000266503270348464 -0.000294414671876986 -0.000444625090271827 -0.000192680899466399 -0.000326977884174579 -4.55760951348702e-05 -2.99054036548099e-05 -1.61228328275333e-05 -4.6478582321872e-05 8.54003888145481e-05 2.19244131672054e-06 -6.30925150956632e-05 -3.70328637082869e-05 -5.57181465110097e-05 -7.91213078886494e-05 -0.000120606706033519
"306" -0.000238244647662743 -0.000278093084051627 -0.000392038440793721 -0.000175630778268793 -0.000273453952253616 -4.65012551446033e-05 -2.49820877380835e-05 -8.50053810417379e-06 -2.89811790238382e-05 0.000103264804930702 2.3658074549106e-05 -2.94204399841764e-05 -5.94868838481306e-06 -2.94542963049511e-05 -4.52553896463716e-05 -9.51883174847689e-05
"307" -0.000211772988256442 -0.000262623405361477 -0.000340606628444652 -0.000159259020980423 -0.000220757729008381 -4.91112496806847e-05 -2.18263658693518e-05 -1.88902286857511e-06 -1.23294653352885e-05 0.000120043540344186 4.42713285896205e-05 2.99138096660572e-06 2.40009801262957e-05 -4.2986917419133e-06 -1.22354981213498e-05 -7.04867228187542e-05
"308" -0.000187363354082329 -0.000248182744192869 -0.00029075872843334 -0.000143737037974836 -0.000169334788027976 -5.34268956754829e-05 -2.04794851257891e-05 3.63414740025419e-06 3.32943165571091e-06 0.000135520505272042 6.38297688701008e-05 3.39057813910052e-05 5.26176883244726e-05 1.95042005873988e-05 1.96162819179643e-05 -4.66619707377194e-05
"309" -0.000165269440013804 -0.00023491894736387 -0.000242886461696906 -0.000129220003239804 -0.000119592026423486 -5.94530112049458e-05 -2.0954232082909e-05 8.00654364334375e-06 1.78696626081316e-05 0.000149507792257138 8.21536675987094e-05 6.31166909665185e-05 7.97446891161189e-05 4.17527715429167e-05 4.99828558509651e-05 -2.38447143763252e-05
"310" -0.000145730513671964 -0.000222990761500758 -0.00019738737502069 -0.000115873103359826 -7.19537195326834e-05 -6.71796479198256e-05 -2.32639133649424e-05 1.11665980257778e-05 3.11532236195341e-05 0.000161800521346268 9.90496393633376e-05 9.03952119771803e-05 0.000105175892015988 6.22236954284284e-05 7.8544995040673e-05 -2.20304370650122e-06
"311" -0.000128942010604015 -0.000212526783893736 -0.000154613472860872 -0.000103838250765319 -2.67943733399837e-05 -7.65800760500216e-05 -2.73944128848687e-05 1.30774448484167e-05 4.30767571963649e-05 0.000172228958754481 0.000114350846052294 0.000115561698718514 0.000128787069143616 8.07362130970839e-05 0.000105015330366646 1.81529256178861e-05
"312" -0.000115086557871356 -0.000203648753936316 -0.000114894343010041 -9.32526205692991e-05 1.55246252424626e-05 -8.76186935382201e-05 -3.33171180693892e-05 1.37000057879287e-05 5.35375838661311e-05 0.000180628696730626 0.00012789405803447 0.000138431977172263 0.000150411003689653 9.71310995754942e-05 0.000129106901505122 3.70810178997873e-05
"313" -0.000104300140370145 -0.000196460503600435 -7.85247995337497e-05 -8.42356037332829e-05 5.46841597702606e-05 -0.000100234507073397 -4.09777952641068e-05 1.30261426792855e-05 6.24558380817296e-05 0.000186861611220132 0.000139535721169972 0.000158852571005029 0.000169922770373167 0.000111274503337028 0.00015057988496698 5.44657104281355e-05
"314" -9.66906842564622e-05 -0.000191042079270178 -4.57612394433422e-05 -7.68908426804936e-05 9.04063112316458e-05 -0.000114360325325385 -5.03218447483027e-05 1.1046048920384e-05 6.97659571880386e-05 0.000190810679724209 0.000149150791000489 0.000176693085435287 0.000187209340268076 0.000123062657648177 0.000169206458621514 7.02098577498907e-05
"315" -9.23273677444922e-05 -0.000187458205574996 -1.68154120443289e-05 -7.13102769085686e-05 0.000122436052410874 -0.000129910842631757 -6.12670583034368e-05 7.76532856189468e-06 7.54207915182736e-05 0.000192375812412435 0.000156627247723264 0.000191842670974401 0.000202176838060999 0.000132414572265414 0.000184789387075368 8.4214607045449e-05
"316" -9.12441808420342e-05 -0.000185756719720173 8.14290358797076e-06 -6.75662320931741e-05 0.000150598294214184 -0.00014678748439592 -7.37120714250037e-05 3.21473507567447e-06 7.9404863613781e-05 0.000191498323988177 0.000161883946575762 0.000204220757876495 0.000214745063287791 0.000139301506203814 0.000197187975047052 9.64049163473291e-05
"317" -9.3429874555811e-05 -0.000185951257968167 2.90014518758396e-05 -6.57015075913088e-05 0.000174750179848351 -0.000164879727248656 -8.75426531235956e-05 -2.57159812923473e-06 8.17166713134245e-05 0.000188140739962654 0.000164863140596631 0.00021378362544118 0.00022487511402343 0.000143714574132133 0.000206287892175717 0.00010672768160832
"318" -9.88438785666254e-05 -0.00018805144786011 4.56844301196794e-05 -6.57511460506776e-05 0.00019478918815367 -0.000184060377772652 -0.000102637609042989 -9.54716196325461e-06 8.23674563242538e-05 0.000182287629093053 0.000165522166087401 0.000220496218454196 0.00023252024526135 0.000145675535234451 0.000212009545309599 0.000115122201428408
"319" -0.000107397788740206 -0.000192026410815215 5.81748111200744e-05 -6.77236821906447e-05 0.000210686780765223 -0.000204201144839598 -0.000118850906107069 -1.76462415168366e-05 8.14025614801797e-05 0.000173960978353351 0.000163852563356098 0.000224369784584256 0.000237680087078941 0.00014524448793348 0.0002143281461078 0.000121577067321462
"320" -0.000118964581926771 -0.000197828073762528 6.65136152769465e-05 -7.15961021634413e-05 0.000222452029011798 -0.000225148813992157 -0.000136029253462254 -2.67928885593921e-05 7.88850272807298e-05 0.000163213605459112 0.000159874841754433 0.000225449405372736 0.000240378280468594 0.000142515662761743 0.000213256402713772 0.000126076255800973
"321" -0.000133401429717733 -0.000205401889915012 7.0765985822731e-05 -7.73468703960532e-05 0.000230140427559572 -0.000246759159916832 -0.000154015641287809 -3.69122727686821e-05 7.48841477968889e-05 0.00015011213195219 0.000153621266575214 0.000223783852991758 0.000240635696328818 0.000137600924995202 0.000208840199007367 0.00012862453537359
"322" -0.000150503774839346 -0.000214647839359087 7.1074915524565e-05 -8.49110405369531e-05 0.000233876061629072 -0.000268866285948442 -0.000172633275726595 -4.78985732287897e-05 6.95097797289569e-05 0.000134767372699133 0.000145165337843408 0.000219477490914944 0.000238527582105686 0.000130649405765396 0.000201179416637436 0.000129256779773081
"323" -0.000170056764582913 -0.000225465677698792 6.76101739219412e-05 -9.42161326464567e-05 0.000233809628104661 -0.000291307306667621 -0.000191702738835308 -5.96540713081163e-05 6.28665622780098e-05 0.000117305699877229 0.000134594102998754 0.000212636607083914 0.000234121083933326 0.000121828720894198 0.000190400928232168 0.000128005717537939
"324" -0.000191806721626314 -0.000237723119849729 6.0593159348358e-05 -0.00010516175915932 0.000230147500139434 -0.000313908606169439 -0.000211043882560843 -7.20667421318249e-05 5.50912971881584e-05 9.78822849045055e-05 0.000122022134998379 0.000203421796535581 0.000227536645060327 0.00011132051646487 0.000176674376257293 0.000124945346548137
"325" -0.000215477289864299 -0.000251277185597418 5.02821918553412e-05 -0.000117627995998144 0.00022312925268096 -0.000336495089651145 -0.000230462377225732 -8.50130910441778e-05 4.63211636295174e-05 7.66710625205164e-05 0.000107590683068551 0.000191988512160545 0.000218887089193911 9.93338764385568e-05 0.000160197807944778 0.000120148428692782
"326" -0.00024077492409063 -0.000265973233859754 3.69712276551985e-05 -0.000131487028315534 0.000213027678451367 -0.000358894563067776 -0.000249771385716574 -9.8373125366794e-05 3.67093582757868e-05 5.38673531296617e-05 9.14525773753356e-05 0.000178529632128761 0.000208312599030984 8.60874367989811e-05 0.000141197816229102 0.000113708202545398
"327" -0.000267378728972584 -0.000281629588981543 2.09840110075946e-05 -0.000146582227237257 0.000200143719307908 -0.000380927002730454 -0.000268776765434701 -0.000112018616438975 2.64144056989618e-05 2.96776894990312e-05 7.37817011324041e-05 0.000163245564145084 0.000195971085376447 7.17970748100759e-05 0.000119925516427941 0.000105731661520724
"328" -0.000294969191147438 -0.00029806797508441 2.66781666252453e-06 -0.000162758336686438 0.000184807695206838 -0.000402423439334933 -0.000287298630651828 -0.000125820489652025 1.55983587042817e-05 4.32417023247833e-06 5.47656203858693e-05 0.000146351455400915 0.000182027784696845 5.66952976606759e-05 9.66501424417421e-05 9.63403619109e-05
"329" -0.000323197174451959 -0.000315087907305776 -1.7600181934506e-05 -0.000179824923755777 0.000167370704365221 -0.000423206071935526 -0.000305142868017416 -0.000139641518736403 4.43799244525931e-06 -2.19486059745187e-05 3.46160280574091e-05 0.000128088083614748 0.000166672345084174 4.10230143633927e-05 7.16714072055174e-05 8.56692414146533e-05
"330" -0.000351724273267639 -0.000332494657207482 -3.94392772312304e-05 -0.000197599284542853 0.000148194993490199 -0.000443110728127056 -0.000322125330225012 -0.000153348019066753 -6.89493622915569e-06 -4.89001364694704e-05 1.35450145035005e-05 0.000108691853481291 0.000150095652744712 2.5014936166487e-05 4.52849097676873e-05 7.38619246495685e-05
"331" -0.000380199872015571 -0.000350075593026542 -6.24498441617271e-05 -0.000215886448658381 0.00012764648283268 -0.000461971418655489 -0.000338076023904316 -0.000166807919047652 -1.8232542199419e-05 -7.62811083610523e-05 -8.22474704460772e-06 8.84014275875696e-05 0.000132485839636075 8.89171438749666e-06 1.78054872395081e-05 6.10632673937729e-05
"332" -0.000408281342349014 -0.000367626032009698 -8.62324454419739e-05 -0.00023447339204159 0.000106108941624951 -0.000479631893000837 -0.000352822242444825 -0.000179887339500659 -2.93967096331166e-05 -0.000103833103832417 -3.04608546805903e-05 6.74779938497034e-05 0.000114057091259089 -7.10893559861019e-06 -1.04487843924036e-05 4.74379155563274e-05
"333" -0.00043563509595036 -0.00038494257781054 -0.000110394083287736 -0.000253167784557062 8.39321835904611e-05 -0.000495947209573787 -0.000366214016753514 -0.000192470999303628 -4.02391995361615e-05 -0.000131316597290257 -5.29371636065571e-05 4.61496809150113e-05 9.49939701879522e-05 -2.27860979584696e-05 -3.91716771549308e-05 3.31237783517182e-05
"334" -0.000461921451932804 -0.000401812327838984 -0.000134525407910025 -0.00027174553374556 6.15161186796083e-05 -0.000510773153093908 -0.000378086930985231 -0.000204415918915976 -5.05724435595752e-05 -0.00015845622138871 -7.5404205243998e-05 2.46803493257485e-05 7.55215793029552e-05 -3.79081606649689e-05 -6.80189728373829e-05 1.83088276786651e-05
"335" -0.000486828850118337 -0.000418030714828068 -0.000158249418265465 -0.000290000154322801 3.92004529102466e-05 -0.000523979380162409 -0.000388312485008645 -0.0002156170699894 -6.02652323191419e-05 -0.000185022476254025 -9.76419391193736e-05 3.29612643820919e-06 5.58247208898916e-05 -5.22985634623799e-05 -9.67012554721715e-05 3.1394350648978e-06
"336" -0.000510051237440519 -0.00043340502961937 -0.000181184737251101 -0.000307718686954189 1.73496487283156e-05 -0.000535444496142177 -0.00039675388261504 -0.000225948228709491 -6.91510705810578e-05 -0.000210751075765546 -0.000119405792315598 -1.77579477557318e-05 3.6111514966747e-05 -6.57508356550514e-05 -0.000124889284292827 -1.22124588534301e-05
"337" -0.000531316995916237 -0.000447756873804406 -0.000202991848176502 -0.000324710871745448 -3.7313291557173e-06 -0.000545068789346481 -0.000403311466625536 -0.000235319010545149 -7.71082033245703e-05 -0.0002354270405121 -0.00014047933840557 -3.82767179906275e-05 1.65534640615265e-05 -7.81096341412457e-05 -0.000152300306382365 -2.76048592916777e-05
"338" -0.000550343180172998 -0.000460893560482707 -0.000223317309147708 -0.000340755743777053 -2.3706252302816e-05 -0.000552740107779017 -0.000407866373744209 -0.000243614532274449 -8.39897995287953e-05 -0.000258802668149421 -0.000160629418958365 -5.80320833263782e-05 -2.65443543623055e-06 -8.91955361553437e-05 -0.000178629507352603 -4.28730339354444e-05
"339" -0.000566907790958175 -0.000472660626020471 -0.000241868268172051 -0.000355680119998642 -4.22989722260696e-05 -0.000558388110278737 -0.000410343764795109 -0.000250758240470508 -8.96907978536731e-05 -0.000280675878479313 -0.000179655091510703 -7.68387428728856e-05 -2.13494135930133e-05 -9.88706491398031e-05 -0.000203608700921028 -5.78748664434886e-05
"340" -0.000580787429945406 -0.000482896690883938 -0.00025834839734508 -0.000369287243474285 -5.92299733088103e-05 -0.000561931551694276 -0.000410664654869586 -0.000256655020412724 -9.40904379365602e-05 -0.000300821951011767 -0.000197340597075555 -9.45026534487519e-05 -3.93650372365794e-05 -0.000106993900742867 -0.000226966498738154 -7.24621553184155e-05
"341" -0.000591799902140909 -0.000491474381661361 -0.00027252024654881 -0.000381415894053302 -7.42829094777976e-05 -0.000563318319418516 -0.000408781106034316 -0.000261248866026422 -9.71076814366596e-05 -0.000319070129724332 -0.00021350603419263 -0.000110866158758468 -5.65730180541637e-05 -0.000113460243785939 -0.000248464731435249 -8.65246516726548e-05
