"V1" "V2" "V4" "V5" "V7" "V8" "V10" "V11" "V13" "V14" "V15" "V17" "V18" "V20" "V21" "V23"
"1" 9.75187441504162e-06 -7.60826084813955e-05 1.78368459975217e-05 8.68077906813098e-05 -0.000131788925615159 -7.40571813364333e-05 6.64067061219826e-05 0.000103067795304925 0.000470030622134096 5.46263206184754e-05 0.00026378289560426 -1.2030558883501e-05 8.47776723819957e-05 0.000126306465403083 -0.000109640647603966 -0.000164767071405284
"2" 1.07412109974892e-05 -6.81687268366974e-05 2.48959481320543e-05 9.12943894797702e-05 -0.000126533584086282 -6.78832957790738e-05 6.65567822152367e-05 0.000108432971524916 0.000467002477735297 5.74731956873897e-05 0.00026224375740554 -1.17835273859853e-05 7.95227823075781e-05 0.000122505988525546 -0.000108175511443295 -0.000168045379696444
"3" 1.08881074829129e-05 -6.10730546531134e-05 3.11826028556175e-05 9.50443278000184e-05 -0.000121762285631514 -6.2242369094584e-05 6.62254725270886e-05 0.000113155629498054 0.00046421022184275 6.02024986604722e-05 0.000260784775928994 -1.15706945534494e-05 7.47965993667807e-05 0.000118645887304767 -0.000106674327877099 -0.000170784277642617
"4" 1.01708850056746e-05 -5.48631454929786e-05 3.66697406258855e-05 9.80251560588509e-05 -0.000117525047898204 -5.71725669671889e-05 6.53820045954595e-05 0.000117202262711857 0.000461586782902258 6.2780111645183e-05 0.000259354873660995 -1.1373853985123e-05 7.06108156955689e-05 0.000114756664465862 -0.000105145132227615 -0.000172924615040624
"5" 8.57129990864037e-06 -4.95939931207297e-05 4.13238055854149e-05 0.000100210277570633 -0.00011385733439727 -5.2711588005856e-05 6.40063663623633e-05 0.000120553169854958 0.000459056024310454 6.51762420525441e-05 0.000257903078785061 -1.11712825620609e-05 6.69820417454741e-05 0.00011086975890939 -0.000103581292257105 -0.000174415716285685
"6" 6.0843801655718e-06 -4.53081217017857e-05 4.51361141610245e-05 0.000101583480601219 -0.000110786446927654 -4.88826358104004e-05 6.20856956016264e-05 0.000123191554647599 0.000456548772553998 6.73694382924443e-05 0.000256379612606252 -1.09418547831784e-05 6.39128802136663e-05 0.00010701628011629 -0.000101984935171816 -0.00017521048131323
"7" 2.71678274222914e-06 -4.20405004208017e-05 4.80902592636971e-05 0.00010213376824207 -0.000108334656894221 -4.5708417673564e-05 5.96064294885569e-05 0.000125110036979017 0.000453991432270804 6.93349395771376e-05 0.000254740429591956 -1.06607393163467e-05 6.14065181112603e-05 0.000103225174043643 -0.000100350902502443 -0.000175265838762421
"8" -1.5133319737398e-06 -3.98105305485695e-05 5.01907528672834e-05 0.000101857073649582 -0.000106519771651804 -4.32010629931627e-05 5.65722079542461e-05 0.000126309816147392 0.00045131365281442 7.10570460889019e-05 0.000252938515848357 -1.03060243002719e-05 5.94663971110231e-05 9.95264567867525e-05 -9.86693814770485e-05 -0.000174544488138036
"9" -6.58140319965634e-06 -3.86313421917577e-05 5.14458695214479e-05 0.000100759258286276 -0.000105347397466561 -4.13636416251925e-05 5.29828706507606e-05 0.000126797037503775 0.000448442411141348 7.25159674713918e-05 0.000250928326118836 -9.85263207563822e-06 5.8085449784915e-05 9.59459646741351e-05 -9.69354933032527e-05 -0.000173018079349687
"10" -1.24477245858251e-05 -3.84988102795813e-05 5.18742341321231e-05 9.8853582693616e-05 -0.000104817241691041 -4.01983999421064e-05 4.88526745057921e-05 0.000126589833839476 0.000445310715754541 7.37013180074648e-05 0.000248672494269916 -9.27877979745064e-06 5.7255030084848e-05 9.25105756098925e-05 -9.51402017225711e-05 -0.000170665177575063
"11" -1.90663106880464e-05 -3.94029013032065e-05 5.14984985231356e-05 9.61593279041222e-05 -0.000104920804998581 -3.96936660871185e-05 4.42000926798578e-05 0.000125703880227532 0.00044185423794521 7.46052458315373e-05 0.000246135093172377 -8.55975580761791e-06 5.6964590671351e-05 8.92377218337462e-05 -9.32719943732465e-05 -0.000167466675030741
"12" -2.63824462198027e-05 -4.13216354562917e-05 5.03541555243162e-05 9.27048035933637e-05 -0.000105636712648066 -3.9832997478622e-05 3.90466440065519e-05 0.000124176721105237 0.000438006240753377 7.52228506194827e-05 0.000243281175560716 -7.67423797799965e-06 5.71949802100032e-05 8.61490381133303e-05 -9.13226190448248e-05 -0.000163417346673848
"13" -3.43365180369943e-05 -4.42186386160574e-05 4.84817809943275e-05 8.85199475607015e-05 -0.000106949144924079 -4.0594726481648e-05 3.34266736920172e-05 0.000122037281355865 0.000433709363268671 7.55499091687556e-05 0.000240078411342448 -6.60397768906335e-06 5.79287289576738e-05 8.32619595426388e-05 -8.92835059032245e-05 -0.00015851747246287
"14" -4.28508844159175e-05 -4.80535062529815e-05 4.59278091986329e-05 8.36506140917846e-05 -0.000108820824833899 -4.19503890201127e-05 2.73730310357652e-05 0.000119327504029099 0.000428909570213779 7.55920391867123e-05 0.000236504983028917 -5.32882635140447e-06 5.9140447337953e-05 8.05868812649988e-05 -8.71462182291379e-05 -0.000152775362762659
"15" -5.18538633201528e-05 -5.27716113741018e-05 4.27465090638756e-05 7.81368038779352e-05 -0.000111219503357227 -4.38620171946691e-05 2.09251993876312e-05 0.000116094989898047 0.000423556608677531 7.53532547621828e-05 0.000232537709137399 -3.83196252032182e-06 6.0801515596649e-05 7.81330879607896e-05 -8.48987222328254e-05 -0.00014620456696947
"16" -6.12645846986578e-05 -5.83157325814452e-05 3.89917601705802e-05 7.20332845373743e-05 -0.000114099624497131 -4.62905139003302e-05 1.41341925689121e-05 0.000112386596072132 0.00041760202361611 7.48461546678024e-05 0.000228161066411326 -2.10140913300973e-06 6.28782819978702e-05 7.5902557448505e-05 -8.2540514952846e-05 -0.000138831913324583
"17" -7.09944392659573e-05 -6.46143656543599e-05 3.4728034742387e-05 6.53927482379333e-05 -0.000117413898688063 -4.91925319194538e-05 7.0440276058624e-06 0.000108260404753594 0.000411007860559766 7.40793370936018e-05 0.000223359313075805 -1.25968044166704e-07 6.53387854559884e-05 7.38997239133016e-05 -8.00621082161371e-05 -0.000130693683069884
"18" -8.09557058440885e-05 -7.15950093703083e-05 3.00200659789111e-05 5.82744507968267e-05 -0.000121110927868331 -5.25189304031501e-05 -2.90627457658808e-07 0.000103767322960973 0.000403741048071482 7.30738715846122e-05 0.000218125119275456 2.10125551286262e-06 6.81408417253849e-05 7.21182716506242e-05 -7.74645747573155e-05 -0.000121827045376186
"19" -9.10614022778331e-05 -7.91763950765685e-05 2.49325534449021e-05 5.07431866479133e-05 -0.000125135366687025 -5.62126943788515e-05 -7.81546298568139e-06 9.8969079819181e-05 0.000395772169802181 7.18450695645206e-05 0.000212457033412407 4.58557137161657e-06 7.12415280761235e-05 7.0550522313457e-05 -7.47504709445587e-05 -0.000112285839858277
"20" -0.000101215216659492 -8.72726230207355e-05 1.95404367975729e-05 4.28591396612283e-05 -0.000129430582115702 -6.02242071698639e-05 -1.54736834286595e-05 9.39254206316253e-05 0.000387078720989187 7.04118347859554e-05 0.000206350000479942 7.32446106404918e-06 7.45923107169609e-05 6.91820132272885e-05 -7.19213898389476e-05 -0.000102129509631884
"21" -0.000111331952308592 -9.579558938744e-05 1.39064588014505e-05 3.46918808719093e-05 -0.000133933978820049 -6.44929028240072e-05 -2.32067296924741e-05 8.86993227826895e-05 0.000377644291068378 6.88017914457381e-05 0.000199812451647315 1.03159647388067e-05 7.81489902888623e-05 6.79959520220637e-05 -6.89874641841166e-05 -9.14247989937316e-05
"22" -0.00012132291823273 -0.000104653796204338 8.10357912053138e-06 2.63068015519361e-05 -0.000138587098264665 -6.89618332973909e-05 -3.09549791176949e-05 8.3347653551679e-05 0.000367461055103448 6.70381398914439e-05 0.000192851376742371 1.35501495362321e-05 8.18538340120165e-05 6.69715346060333e-05 -6.59587593783295e-05 -8.02480788853624e-05
"23" -0.000131098611139975 -0.000113757217926803 2.19675754907438e-06 1.7771899580787e-05 -0.000143328147803527 -7.35734217051375e-05 -3.86604752121493e-05 7.79302452780317e-05 0.000356522534182378 6.5149676508427e-05 0.000185476391202695 1.70176108992023e-05 8.56540734885761e-05 6.60819393778322e-05 -6.28529150590204e-05 -6.86794801084775e-05
"24" -0.000140580351004315 -0.000123007829662873 -3.74431101629431e-06 9.15497520720857e-06 -0.000148095800544273 -7.82660183982208e-05 -4.62691903790739e-05 7.25102120798556e-05 0.000344833837189804 6.31645831800504e-05 0.000177705994384263 2.06992896191853e-05 8.94926084194056e-05 6.52986448660877e-05 -5.96877138338908e-05 -5.68102887338133e-05
"25" -0.000149690788991666 -0.000132320623221706 -9.65894416033495e-06 5.20726902578976e-07 -0.000152835493479924 -8.29849296676725e-05 -5.37231401461989e-05 6.71359096184758e-05 0.000332404381403923 6.11125686797494e-05 0.000169556915008022 2.45753470802375e-05 9.33094026059665e-05 6.45870611072127e-05 -5.64924095148183e-05 -4.47344067561439e-05
"26" -0.000158355615945534 -0.000141599140498341 -1.54860582351237e-05 -8.06800293054087e-06 -0.000157488416187596 -8.76741863745992e-05 -6.09719801230159e-05 6.18648119723749e-05 0.000319247221013019 5.90253309722548e-05 0.000161051382667777 2.86202432299316e-05 9.70449280130237e-05 6.39135136934996e-05 -5.32879706494835e-05 -3.25538315143569e-05
"27" -0.000166515888265441 -0.000150760880377117 -2.11735180453283e-05 -1.65479204569366e-05 -0.000162003055305138 -9.22799952260397e-05 -6.7962515945912e-05 5.67473019208082e-05 0.000305385313987149 5.69293789913625e-05 0.000152213940614833 3.28100925086022e-05 0.000100638623536191 6.32355201722424e-05 -5.0112050318574e-05 -2.03703186371321e-05
"28" -0.000174108891800712 -0.000159718085186521 -2.66622268925704e-05 -2.48599042814652e-05 -0.000166325642998947 -9.67500636288808e-05 -7.46496541582491e-05 5.18285783318254e-05 0.000290842407885741 5.48578085571123e-05 0.00014307226860491 3.71104342327947e-05 0.000104027864135115 6.25130735170175e-05 -4.69933574495614e-05 -8.29292016022045e-06
"29" -0.000181085684718461 -0.000168393531785111 -3.19136456536674e-05 -3.29524746476089e-05 -0.000170414877383175 -0.00010103928557477 -8.09943162237929e-05 4.71483708894668e-05 0.000275648792070562 5.28419301199202e-05 0.000133648877172329 4.14872710831633e-05 0.000107151819567498 6.17048514594364e-05 -4.39779176970042e-05 3.56832463335315e-06
"30" -0.000187405693316965 -0.000176713995657829 -3.68830862541786e-05 -4.07718894940953e-05 -0.000174227488888535 -0.000105103590539669 -8.69555414729864e-05 4.27461821503805e-05 0.000259844928975005 5.09076924921623e-05 0.00012398088127893 4.59026292513877e-05 0.00010995275268235 6.07637100362053e-05 -4.1104938655584e-05 1.51056082555728e-05
"31" -0.000193037042660757 -0.000184610032387443 -4.15352436014967e-05 -4.82727584806477e-05 -0.000177727465228201 -0.00010890304849002 -9.2502706485879e-05 3.86514763446697e-05 0.000243467422397141 4.90885811524726e-05 0.000114095807858193 5.03210525244062e-05 0.000112368683964083 5.96454627217447e-05 -3.8414728352983e-05 2.62093745917654e-05
"32" -0.000197954643542187 -0.000192021783203558 -4.58392795708608e-05 -5.54154470510591e-05 -0.000180878870283151 -0.000112401900276244 -9.76074199138766e-05 3.48888310989659e-05 0.000226557750395421 4.74040496015906e-05 0.00010402336463398 5.46979300866203e-05 0.000114347959385443 5.8304964973831e-05 -3.59555927750308e-05 3.67710588958217e-05
"33" -0.000202144647255576 -0.000198894889673827 -4.97762663111358e-05 -6.21610702751916e-05 -0.000183659069102145 -0.000115572538636837 -0.000102246105008959 3.14840865856426e-05 0.000209168712108665 4.58858089166258e-05 9.37988225791059e-05 5.89926331585448e-05 0.000115830710527802 5.67010374721955e-05 -3.37712182633355e-05 4.66857855472863e-05
"34" -0.000205600565692588 -0.000205182027665571 -5.33214296201136e-05 -6.84813943803128e-05 -0.000186044737845573 -0.000118387527934225 -0.000106405721662283 2.84503133457553e-05 0.00019134644005351 4.45546543809166e-05 8.34539159745613e-05 6.31618303990306e-05 0.000116774124556248 5.47852978276009e-05 -3.19122087962715e-05 5.58564148762252e-05
"35" -0.000208329811762904 -0.000210849938194999 -5.64692492654886e-05 -7.43489004842584e-05 -0.000188018424780621 -0.000120827466050711 -0.000110075916264053 2.57971485081967e-05 0.000173142411938835 4.34316074474844e-05 7.3019100294632e-05 6.71650787973723e-05 0.000117126942976746 5.25203144846739e-05 -3.04228037441615e-05 6.41896491763694e-05
"36" -0.000210342749963142 -0.000215863221390243 -5.92100996747241e-05 -7.97476812059365e-05 -0.000189570211545401 -0.000122877874142683 -0.000113250511327126 2.35296743634019e-05 0.000154613721143296 4.25355620949756e-05 6.25239819785208e-05 7.0959229568169e-05 0.000116850451146254 4.98662959277903e-05 -2.93495974880325e-05 7.15975097578494e-05
"37" -0.000211662202719961 -0.000220206127470627 -6.15460157809227e-05 -8.46593051709021e-05 -0.00019068734973172 -0.000124527642854404 -0.000115932663178726 2.16485148101253e-05 0.000135815088554048 4.1881643511985e-05 5.20013566526884e-05 7.45042017087062e-05 0.000115909748187406 4.67859846860975e-05 -2.87373893859527e-05 7.80042534522657e-05
"38" -0.000212322834411414 -0.000223862994542459 -6.34805152631525e-05 -8.90787324170308e-05 -0.000191377018684347 -0.000125773265868421 -0.000118125909985194 2.01440673013399e-05 0.00011680184364553 4.14839935767963e-05 4.14801969093944e-05 7.7759267885065e-05 0.000114271878818214 4.32472266422723e-05 -2.86259375909186e-05 8.33398062098067e-05
"39" -0.000212358109045699 -0.000226833692405386 -6.50245086983649e-05 -9.30035570800886e-05 -0.000191632927514114 -0.000126616310178212 -0.000119845329688647 1.90089528279803e-05 9.76298239567769e-05 4.13560383918921e-05 3.09864801235205e-05 8.06907943801391e-05 0.000111915352993644 3.92229015272011e-05 -2.90541707800284e-05 8.75455089783733e-05
"40" -0.000211820184384126 -0.000229118229961665 -6.61921303537581e-05 -9.64368487526768e-05 -0.000191463835512327 -0.000127058611865695 -0.000121109115941126 1.82239049082273e-05 7.83592631430051e-05 4.14987513330949e-05 2.05457438920067e-05 8.32591853391548e-05 0.000108819563024101 3.46885176830879e-05 -3.0060979902781e-05 9.05735672271251e-05
"41" -0.000210758910147951 -0.000230733324547541 -6.70023002606977e-05 -9.93882779222379e-05 -0.000190884771494118 -0.000127114153038085 -0.000121941056998479 1.77718655084537e-05 5.90415532838792e-05 4.19234415765381e-05 1.01819365968933e-05 8.54358114711993e-05 0.000104972238686139 2.96221840489401e-05 -3.16772092267561e-05 9.23891024169755e-05
"42" -0.000209237422076254 -0.000231701927297195 -6.74814210590523e-05 -0.000101870177986638 -0.000189908139616766 -0.000126794341101535 -0.000122368137686048 1.76240770010953e-05 3.9733903805782e-05 4.26239931369556e-05 -8.28003065603845e-08 8.71920289192751e-05 0.000100368824703405 2.40125351324715e-05 -3.39288669335212e-05 9.29665395626656e-05
"43" -0.000207323085497394 -0.000232048209965698 -6.76539612921539e-05 -0.000103904019352801 -0.000188553925039251 -0.000126119635241633 -0.000122424341077401 1.77555440972003e-05 2.04873684182513e-05 4.36026991218672e-05 -1.02335379961414e-05 8.85025223308174e-05 9.50112851094041e-05 1.78486007047391e-05 -3.68404218246576e-05 9.22904825451181e-05
"44" -0.000205084018239857 -0.000231811029474775 -6.75528784082765e-05 -0.000105510797901058 -0.000186843632557333 -0.000125114553461473 -0.000122145532779939 1.81302121526862e-05 1.35764143130533e-06 4.48533817516514e-05 -2.02495553771221e-05 8.93446916654138e-05 8.89043874175756e-05 1.11248969026945e-05 -4.04333328829145e-05 9.03628658401709e-05
"45" -0.000202599425012161 -0.000231032945434728 -6.72099506573347e-05 -0.000106720825642751 -0.000184806136446004 -0.000123804738701637 -0.000121571805049439 1.87190923750778e-05 -1.76119381468378e-05 4.63664735769768e-05 -3.01163117127998e-05 8.97047675978662e-05 8.20630715518507e-05 3.8437283860576e-06 -4.47155219359278e-05 8.71922822830178e-05
"46" -0.00019995005885971 -0.000229764325961862 -6.66638618431634e-05 -0.000107563539505531 -0.000182469588244068 -0.000122219933203559 -0.000120750390151305 1.94796692694909e-05 -3.63722116120595e-05 4.81296778893621e-05 -3.98275106694761e-05 8.95651273047296e-05 7.45053478668175e-05 -3.99203568546663e-06 -4.97017687215991e-05 8.28007744696662e-05
"47" -0.000197212348304294 -0.000228058828503607 -6.59533076850979e-05 -0.000108076830030263 -0.000179863977222159 -0.000120394438579843 -0.000119724080891148 2.03714321037854e-05 -5.48807156445701e-05 5.01277784701451e-05 -4.93686592809617e-05 8.89192250322141e-05 6.62565002735266e-05 -1.23683606062776e-05 -5.53921527475457e-05 7.72205697365291e-05
"48" -0.000194474325695908 -0.000225975095646907 -6.51194034520281e-05 -0.000108299074010576 -0.000177028704443146 -0.000118364001991769 -0.000118545214569445 2.13587191219888e-05 -7.30955377943476e-05 5.23414747495927e-05 -5.87373877050302e-05 8.77613451916316e-05 5.73472915497439e-05 -2.12716734689394e-05 -6.17834578113929e-05 7.04907341033682e-05
"49" -0.000191817070465047 -0.000223574696632645 -6.42025457499149e-05 -0.000108267859620404 -0.000173998579786269 -0.000116166919644071 -0.000117264270181456 2.23927384436942e-05 -9.09818772069179e-05 5.47515676949933e-05 -6.79286016603058e-05 8.60859553305473e-05 4.78103145148236e-05 -3.06802787580183e-05 -6.88725734869128e-05 6.2665459596577e-05
"50" -0.000189328917169561 -0.000220928471039381 -6.32433935580939e-05 -0.000108032032415078 -0.000170814270586123 -0.000113842711189023 -0.000115936051571801 2.34337168453521e-05 -0.000108506524109002 5.73336416649964e-05 -7.69418487996103e-05 8.38990362955485e-05 3.76843637569395e-05 -4.05695219883694e-05 -7.66476247928188e-05 5.38020879280617e-05
"51" -0.000187088838116297 -0.000218103521654268 -6.22872182803589e-05 -0.000107630476934918 -0.000167521838348122 -0.000111437763736972 -0.000114611989304628 2.44350748134965e-05 -0.000125640341304803 6.00591031504969e-05 -8.57774419542648e-05 8.12043858208193e-05 2.70105330455969e-05 -5.09125794537188e-05 -8.50914032382695e-05 4.39676091683228e-05
"52" -0.000185179124181011 -0.000215169377636295 -6.13774385319132e-05 -0.000107113152084631 -0.000164157477644137 -0.000108990148114654 -0.00011334426333689 2.53565605125961e-05 -0.000142357829318458 6.28975989785753e-05 -9.44413723106463e-05 7.80114760496431e-05 1.58341619144365e-05 -6.16757195600725e-05 -9.41866348313468e-05 3.3235205874802e-05
"53" -0.000183678867301142 -0.000212199654424943 -6.05554968080484e-05 -0.000106525679948579 -0.00016077184973496 -0.000106545057929649 -0.000112189154066905 2.61510540827912e-05 -0.000158638176091053 6.5819331113364e-05 -0.000102937543003501 7.43311275759131e-05 4.20318313425448e-06 -7.28231077164506e-05 -0.000103907826747264 2.16833700939604e-05
"54" -0.000182658915340954 -0.000209262461877282 -5.98647963845171e-05 -0.000105912935900773 -0.00015740796164056 -0.000104148423074439 -0.000111199479875534 2.67830549814106e-05 -0.000174464407387012 6.87899481237652e-05 -0.000111274838320777 7.0177656672865e-05 -7.8348429525027e-06 -8.43158118769572e-05 -0.000114224643049502 9.39350704825383e-06
"55" -0.000182193267755426 -0.000206432296573492 -5.93427134727236e-05 -0.000105324225851283 -0.000154114858222076 -0.000101841380095116 -0.000110426059422716 2.72092172727801e-05 -0.000189824718329733 7.1776299553116e-05 -0.000119464507782116 6.55727535895191e-05 -2.02277461816289e-05 -9.61145143928217e-05 -0.000125109686051 -3.54529505454767e-06
"56" -0.000182343517760222 -0.000203775643183086 -5.90311676419803e-05 -0.000104803201258418 -0.000150936374282792 -9.96672508697214e-05 -0.000109917393801629 2.73892776539442e-05 -0.000204706067113254 7.47374321509814e-05 -0.000127516294059554 6.05302900534839e-05 -3.292553177698e-05 -0.00010817363460771 -0.000136523764134517 -1.70473092887018e-05
"57" -0.000183168254914868 -0.000201361800235407 -5.8963294991229e-05 -0.000104392086520518 -0.000147923984850132 -9.76671620633642e-05 -0.000109721381240674 2.72874926180801e-05 -0.000219109465140386 7.7637647468479e-05 -0.000135443785420826 5.50762624144633e-05 -4.58792838267737e-05 -0.000120450370103031 -0.000148434794722068 -3.10205435414624e-05
"58" -0.000184718600482781 -0.000199252193169366 -5.91769373393945e-05 -0.000104134988811478 -0.0001451151246796 -9.58822816532283e-05 -0.000109879292995936 2.68751907879933e-05 -0.000233029375473167 8.04386417232887e-05 -0.000143262306202071 4.92346193158951e-05 -5.90317483665936e-05 -0.000132895989935285 -0.000160795891167423 -4.53739275828865e-05
"59" -0.000187040646296347 -0.000197506454379837 -5.97017977688832e-05 -0.000104072328373669 -0.000142565915373652 -9.43494582656775e-05 -0.000110436498067824 2.61231290864196e-05 -0.000246469164165287 8.30956750383767e-05 -0.000150986073490925 4.30290337296778e-05 -7.23399264481583e-05 -0.000145467555968437 -0.000173567764074776 -6.00180345612755e-05
"60" -0.000190167081876382 -0.000196181998429803 -6.05688598217006e-05 -0.000104240193745462 -0.000140311272330012 -9.31037908382411e-05 -0.000111425633514275 2.49980266396458e-05 -0.000259436056498671 8.55734670378218e-05 -0.000158629606052934 3.64878042009286e-05 -8.57504270622047e-05 -0.000158112239791925 -0.000186707635404771 -7.48594072776214e-05
"61" -0.00019413153260279 -0.000195327784447433 -6.18000872790495e-05 -0.000104673788917174 -0.000138397108137834 -9.21799962766981e-05 -0.00011288232186005 2.34827200114396e-05 -0.000271939529401906 8.78306529498412e-05 -0.0001662142239599 2.96370321454975e-05 -9.92155981420273e-05 -0.000170787475991343 -0.000200166148056379 -8.98142584764349e-05
"62" -0.000198952919061658 -0.00019499081598299 -6.34173038973504e-05 -0.000105405481721224 -0.000136862321614901 -9.16050338931566e-05 -0.000114831086325374 2.15553189859437e-05 -0.000283991604618239 8.98249836136218e-05 -0.000173753254375444 2.25063362417902e-05 -0.000112689107917004 -0.00018344063863609 -0.000213897316385822 -0.000104793998381234
"63" -0.000204640142808512 -0.000195208665726394 -6.54383255495205e-05 -0.000106458824766677 -0.000135741175337697 -9.14037830847471e-05 -0.000117298372789402 1.92020866040896e-05 -0.000295611181342694 9.15210495290562e-05 -0.000181265038907806 1.51252325295421e-05 -0.000126127132284518 -0.000196032210942406 -0.000227854939310022 -0.000119716530352884
"64" -0.000211196926220645 -0.000196014326353202 -6.78777543142148e-05 -0.000107862450332057 -0.000135067642644 -9.15999664669516e-05 -0.000120300456508408 1.64140672857181e-05 -0.000306812909493764 9.28815468172923e-05 -0.00018876537950363 7.52295636657202e-06 -0.000139489882024487 -0.000208508788978007 -0.00024198834298876 -0.000134500251653292
"65" -0.000218618740836027 -0.000197433677110767 -7.07407940542957e-05 -0.000109631041877209 -0.00013487092972643 -9.22093154838262e-05 -0.000123849655122594 1.31829771103974e-05 -0.000317617963794211 9.38659002942479e-05 -0.000196272397279632 -2.68193021985164e-07 -0.000152733939931055 -0.000220831711885015 -0.000256246039070327 -0.000149068720349915
"66" -0.00022688692200708 -0.000199488684435601 -7.40395877504598e-05 -0.00011178516339456 -0.00013517881016989 -9.32477974265684e-05 -0.000127952978140361 9.50842655890013e-06 -0.000328052481734078 9.44420565552601e-05 -0.000203801373506069 -8.22285670455273e-06 -0.000165825574093694 -0.000232955672534952 -0.000270579400071693 -0.000163349995109704
"67" -0.000235984943612165 -0.000202190228560812 -7.77702274190234e-05 -0.000114332700107821 -0.000136011478710678 -9.47227062718574e-05 -0.000132614276726312 5.39367870268297e-06 -0.000338137133767076 9.45768046975396e-05 -0.000211367223372824 -1.63090535252055e-05 -0.000178728383828574 -0.00024483910048443 -0.000284939385545622 -0.000177277377090039
"68" -0.0002458740701944 -0.000205546575886727 -8.19290432974343e-05 -0.000117281409917292 -0.000137380715996419 -9.66367912654641e-05 -0.000137823689918261 8.41661445745862e-07 -0.000347903213076321 9.42409055358234e-05 -0.000218984483329356 -2.44974305229457e-05 -0.000191410877529487 -0.000256446985354242 -0.000299279239097182 -0.000190784288400136
"69" -0.000256520858707996 -0.000209552500211029 -8.65080794547687e-05 -0.000120634218521203 -0.000139303474914327 -9.89919973722782e-05 -0.000143574254008185 -4.13530918789515e-06 -0.000357374105707494 9.34046039267914e-05 -0.000226665538877638 -3.27604121838447e-05 -0.000203844496646393 -0.000267739892362814 -0.000313546979589725 -0.000203814907464244
"70" -0.000267875659048191 -0.000214203807564752 -9.14969097347656e-05 -0.000124388088120242 -0.000141785381835697 -0.000101782969779213 -0.000149852044866396 -9.51952304954175e-06 -0.000366578396687727 9.20445370521415e-05 -0.000234422458375915 -4.10681023592331e-05 -0.000216002488841861 -0.00027868466805534 -0.00032769534435298 -0.000216313020481597
"71" -0.000279883692751481 -0.000219481722461975 -9.6878741959058e-05 -0.000128539434328863 -0.000144825362223166 -0.000104998181116718 -0.000156634494686895 -1.52956840588188e-05 -0.000375549361269348 9.01371633960256e-05 -0.00024226734192714 -4.93947468118245e-05 -0.00022786227631106 -0.000289251577763112 -0.000341676177975646 -0.000228231053641991
"72" -0.000292487389724677 -0.000225367917326463 -0.000102629931803205 -0.000133076780082257 -0.000148419409718786 -0.000108626165666149 -0.00016389547754622 -2.14384712699643e-05 -0.000384311793637058 8.76701866589687e-05 -0.000250203625643789 -5.7715150365242e-05 -0.000239404463678989 -0.000299412764556272 -0.000355452275641667 -0.00023952660765601
"73" -0.000305622463376307 -0.00023183507685929 -0.000108733715416945 -0.000137984222530018 -0.000152559428603113 -0.000112648317502932 -0.000171602711785626 -2.79235974798156e-05 -0.000392896002162704 8.46208507964418e-05 -0.000258239796635112 -6.60026583569277e-05 -0.00025060795545504 -0.000309142167819354 -0.000368972512011294 -0.000250160629588401
"74" -0.000319212442942958 -0.000238847271495285 -0.000115157719125474 -0.000143247402672549 -0.000157230329904988 -0.000117041196775747 -0.000179722440744185 -3.47198140215279e-05 -0.000401331621098748 8.09846595201653e-05 -0.000266381738615488 -7.42359267487069e-05 -0.000261459511847136 -0.000318419236353862 -0.000382201997371366 -0.000260102650572844
"75" -0.000333187355730538 -0.000246373073064349 -0.000121869546474076 -0.000148842009483267 -0.000162410247275745 -0.000121778916891662 -0.000188216518110055 -4.17948697832935e-05 -0.000409646818003931 7.67528392224506e-05 -0.000274629773487545 -8.23898028308367e-05 -0.000271947593397833 -0.000327230518936665 -0.000395100644312505 -0.000269324596645666
"76" -0.000347469222284102 -0.00025436589818375 -0.000128844396874093 -0.000154743653018669 -0.000168080550264567 -0.000126832326562449 -0.0001970359184952 -4.91200389828423e-05 -0.000417870541400348 7.19242579055639e-05 -0.000282990674216318 -9.04455938983874e-05 -0.000282063546658955 -0.000335556589421456 -0.00040763398426781 -0.000277805882647554
"77" -0.000361972602888825 -0.000262775426109029 -0.000136039507032132 -0.000160924488794947 -0.000174207336264503 -0.000132167314111939 -0.000206140074545935 -5.66543913327064e-05 -0.000426025777537236 6.6498868052627e-05 -0.000291457520995838 -9.83830233256337e-05 -0.00029179636377066 -0.000343385223582685 -0.000419767852580155 -0.000285531519502113
"78" -0.000376618369519929 -0.000271555332260255 -0.000143421725244572 -0.00016735449932719 -0.000180758339536126 -0.000137748567369784 -0.000215475587765654 -6.43588753316306e-05 -0.000434140482268983 6.04805734798296e-05 -0.000300029525500529 -0.000106185424256061 -0.000301144411286425 -0.000350715879228114 -0.000431470406646881 -0.00029249330948629
"79" -0.000391319752041075 -0.000280646018189288 -0.000150948891795344 -0.000174000763857182 -0.000187695537159881 -0.000143536613962103 -0.000224991531461821 -7.21980667487101e-05 -0.000442234845085537 5.38835433698027e-05 -0.000308701510172725 -0.000113835658672 -0.000310105577583803 -0.000357542025354965 -0.000442720216341254 -0.00029868674811994
"80" -0.000405995920444827 -0.000289997862254444 -0.000158584729384173 -0.000180826617594196 -0.000194980272835878 -0.000149493669661829 -0.000234631730308087 -8.01299721663325e-05 -0.000450333748765037 4.67181426690639e-05 -0.000317466590671582 -0.000121319544213717 -0.000318676916238574 -0.000363866008209766 -0.000453491338017352 -0.00030411246071076
"81" -0.000420557409802092 -0.000299547344944683 -0.000166283267193818 -0.000187795983691764 -0.000202562995398235 -0.000155575357609071 -0.000244343906856108 -8.81122325103883e-05 -0.000458455091518315 3.90046133948156e-05 -0.000326314522636867 -0.000128624426875805 -0.000326864191759963 -0.000369689725821454 -0.000463764400717666 -0.000308778195180122
"82" -0.000434925052452575 -0.00030923565954229 -0.0001740070710174 -0.000194870850683217 -0.000210398509610511 -0.000161738006139228 -0.000254069668381039 -9.61061612819717e-05 -0.000466615568921009 3.07662171971832e-05 -0.000335238680419957 -0.000135737980822199 -0.000334669941516592 -0.000375020802238942 -0.00047352402308968 -0.000312695017442056
"83" -0.000449020315711935 -0.00031900254925383 -0.000181710985618545 -0.000202011458989416 -0.000218441058940327 -0.000167939639577699 -0.000263751468397398 -0.000104073619116566 -0.000474831969066547 2.20258065645249e-05 -0.000344222686821507 -0.000142651779577497 -0.000342097855273084 -0.000379870356961385 -0.0004827591442809 -0.000315880945548986
"84" -0.000462760168045143 -0.000328788726842691 -0.000189356846907149 -0.000209178219298722 -0.000226632620929194 -0.000174132506372683 -0.000273334189839107 -0.000111968445540591 -0.000483116482016665 1.28163664107112e-05 -0.000353255831151543 -0.000149355810582873 -0.000349155816947139 -0.000384255171542923 -0.000491457466719 -0.000318357371258524
"85" -0.000476071507798994 -0.000338532103232911 -0.000196897402585273 -0.000216329537401323 -0.000234922046071958 -0.000180273183322443 -0.000282760127572362 -0.000119759185675825 -0.000491479715201011 3.17173506455361e-06 -0.000362319409339367 -0.000155847015267576 -0.000355855687381805 -0.000388189266003355 -0.000499614128867058 -0.000320149511288654
"86" -0.000488885405925537 -0.000348176741148258 -0.000204301162922041 -0.000223426968703127 -0.000243252568585935 -0.000186318900843071 -0.000291977948589564 -0.000127400742167738 -0.000499927991389584 -6.87290537342426e-06 -0.000371402050173478 -0.000162115150043422 -0.000362203403164558 -0.000391692353352173 -0.000507227969043267 -0.000321286802735669
"87" -0.000501133802470923 -0.000357663010190309 -0.000211521328332674 -0.000230430315140124 -0.000251572489876828 -0.000192225337629193 -0.000300932649143692 -0.000134863891740726 -0.000508470755424252 -1.72767737548842e-05 -0.000380480625959427 -0.000168158092246068 -0.000368210584963856 -0.00039478859169859 -0.000514299701478772 -0.000321802291635912
"88" -0.000512756047291824 -0.000366938097532536 -0.000218526002227797 -0.00023729969516248 -0.000259819824583275 -0.000197950686895634 -0.000309573861566113 -0.000142113121722281 -0.000517107855892087 -2.79967068500822e-05 -0.000389540363820251 -0.000173971740614994 -0.000373889120559003 -0.000397502987478278 -0.000520832115954955 -0.000321730739723154
"89" -0.000523696006649121 -0.000375946719294091 -0.000225275226487098 -0.000243997764148941 -0.000267945604566626 -0.000203452421683548 -0.000317854287683189 -0.000149114761011117 -0.000525841704956444 -3.89852847904647e-05 -0.000398559921697932 -0.000179556750606657 -0.000379249161217491 -0.000399859158483378 -0.000526834062723211 -0.000321110286128269
"90" -0.000533902135241891 -0.000384646459242038 -0.000231738708270785 -0.000250487685148802 -0.000275891311927512 -0.000208693022124481 -0.000325724356147244 -0.000155839421903082 -0.000534669513748313 -5.01983287271937e-05 -0.000407519535268304 -0.000184905823259953 -0.000384303769239982 -0.000401888398178042 -0.000532312830590844 -0.000319977241652511
"91" -0.000543331948268395 -0.000392987609271503 -0.000237880200770243 -0.000256732211567307 -0.000283602150939509 -0.000213634837032172 -0.00033314948136854 -0.00016226161436271 -0.000543586447152568 -6.15832598018599e-05 -0.000416398306376001 -0.000190022098158659 -0.000389064272920667 -0.000403618821088667 -0.000537279311224865 -0.000318377099920098
"92" -0.000551947451111479 -0.000400929305396424 -0.000243674596785276 -0.000262702691918598 -0.000291026472425712 -0.000218246107941193 -0.000340085623537602 -0.000168357851057096 -0.000552590573699252 -7.3091186220013e-05 -0.000425174571301487 -0.000194903856041183 -0.000393542508465814 -0.000405084221734921 -0.000541747413151197 -0.000316347741058669
"93" -0.000559715243984523 -0.000408436088363628 -0.00024909297525834 -0.000268364134110069 -0.000298108786784097 -0.000222491640694652 -0.000346498970715164 -0.000174107424560966 -0.000561669178431239 -8.46669392190238e-05 -0.00043383062634848 -0.000199550264959774 -0.000397748398948219 -0.000406311287225837 -0.000545732815229165 -0.000313931460780179
"94" -0.00056661441517848 -0.000415475884610721 -0.000254110832159863 -0.000273690007770983 -0.000304804319421158 -0.000226345163965915 -0.000352361260817467 -0.000179491151011639 -0.000570811632128328 -9.62579806016513e-05 -0.000442339534013249 -0.000203959074617014 -0.000401691116797724 -0.000407335585585927 -0.000549251295205188 -0.000311165822299367
"95" -0.00057262135822137 -0.000422023280826318 -0.000258703525413797 -0.000278651409119652 -0.000311060981407829 -0.000229782009101051 -0.000357644683347522 -0.000184497963367814 -0.000580009106597073 -0.00010780911216416 -0.000450685133413251 -0.000208134517355966 -0.000405382000431837 -0.000408184536355881 -0.000552318051281469 -0.000308093812197765
"96" -0.000577729858390536 -0.000428052494240642 -0.000262855198766039 -0.000283229346218454 -0.000316838955677974 -0.000232776617231883 -0.000362329650270592 -0.000189108571461872 -0.000589245027782013 -0.00011927006835241 -0.000458846447905545 -0.000212075127612601 -0.000408831852280033 -0.000408890314072066 -0.000554952895127742 -0.000304752105546544
"97" -0.000581930748326043 -0.000433547193336864 -0.000266551381538385 -0.000287400249409372 -0.000322092704280249 -0.000235312307324495 -0.000366400023241002 -0.0001933205108367 -0.000598504261128511 -0.000130589513353653 -0.000466803280810081 -0.000215780062083785 -0.000412043938615699 -0.000409488449713639 -0.000557174107306822 -0.000301176289606899
"98" -0.000585229620989486 -0.000438497354980582 -0.000269773218653004 -0.000291148580543056 -0.00032678693748 -0.000237373603976461 -0.00036983831190183 -0.00019712771587457 -0.000607771401046814 -0.00014170855389079 -0.00047453376621093 -0.000219249530884949 -0.000415026426561879 -0.000410004324968942 -0.00055899760627727 -0.00029740128676018
"99" -0.000587632016172184 -0.000442892707100398 -0.000272514594644255 -0.000294457984135053 -0.000330885042091104 -0.000238948609858982 -0.00037264185269545 -0.000200526103394268 -0.000617027204722777 -0.00015258143729746 -0.000482024800443542 -0.000222484206375243 -0.000417785275172479 -0.000410467330837252 -0.000560449473282161 -0.000293461488833242
"100" -0.000589155434699507 -0.000446735204015137 -0.000274767032866734 -0.000297320926009086 -0.00033435668465175 -0.000240031724970588 -0.000374809776039585 -0.00020352024181798 -0.000626253022680887 -0.000163158001651551 -0.000489257304567762 -0.000225485658050464 -0.000420326294825725 -0.000410907423645806 -0.000561544077047918 -0.00028938425228126
"101" -0.000589817707182633 -0.000450023048967253 -0.000276525929415331 -0.000299726615101699 -0.000337176909658865 -0.000240614945327159 -0.000376343561143194 -0.000206109977262361 -0.000635427532381971 -0.000173390912173429 -0.000496211702640593 -0.000228252756190641 -0.000422653590821745 -0.000411348159836947 -0.000562302532603808 -0.000285196870919834
"102" -0.000589645015713184 -0.000452768911911203 -0.00027779102111389 -0.000301674842115352 -0.000339324025102391 -0.000240702480869448 -0.00037724751734489 -0.000208306960222874 -0.000644532234164324 -0.000183231325887572 -0.000502877994294244 -0.000230787204539068 -0.000424769228645806 -0.000411815419287106 -0.000562742680374975 -0.000280924788542771
"103" -0.000588670744338868 -0.000454983578652066 -0.000278560512371046 -0.000303160306366558 -0.000340779126632033 -0.000240294410924315 -0.000377539249981549 -0.000210121332932816 -0.000653543210435225 -0.00019264081859799 -0.000509241403612043 -0.000233086523222921 -0.000426677539194396 -0.000412333523857472 -0.000562883976984626 -0.000276591647546981
"104" -0.000586933068199277 -0.000456685743296992 -0.000278847633587332 -0.000304188150976925 -0.000341528594624771 -0.00023940138621659 -0.000377229599049042 -0.00021156466542065 -0.00066244242118787 -0.000201580215297022 -0.000515291244999063 -0.000235156094942449 -0.000428379906496031 -0.00041291938382093 -0.000562744907954934 -0.000272214645907006
"105" -0.000584468209772278 -0.000457891788283833 -0.000278651888924609 -0.000304764277157211 -0.000341568976279394 -0.00023803243883994 -0.000376345874050933 -0.000212651413477238 -0.00067120945670369 -0.000210011888952233 -0.000521015900386724 -0.000236993538035704 -0.000429880419419712 -0.000413596802746432 -0.00056234748848293 -0.000267814038927626
"106" -0.000581330204159887 -0.000458631311948535 -0.000277993030311711 -0.000304897600126985 -0.000340900092509131 -0.000236202359687872 -0.000374908954314503 -0.000213404988504773 -0.00067981859031492 -0.000217905949396177 -0.000526408112091831 -0.000238604082921039 -0.000431181196071682 -0.000414377696608187 -0.000561703774831809 -0.000263404595589973
"107" -0.000577561002817119 -0.000458930150704271 -0.000276878337514344 -0.00030460049672123 -0.000339522825056786 -0.000233933895609158 -0.000372954932059812 -0.000213841147689345 -0.00068825183717339 -0.000225233807783961 -0.00053146067613666 -0.000239991561269274 -0.000432285002691651 -0.000415280485737243 -0.000560835534752569 -0.000259003316321674
"108" -0.000573216632514974 -0.000458823142017852 -0.000275330885832704 -0.000303887433911114 -0.000337450526245184 -0.00023124417144312 -0.000370512566952799 -0.000213987728041762 -0.00069648677877121 -0.000231969094764023 -0.000536171154479995 -0.000241156710283415 -0.000433197440629108 -0.000416317153761728 -0.000559764253556674 -0.000254621680588782
"109" -0.000568355211420492 -0.000458339937538411 -0.00027337154769287 -0.000302780319227709 -0.000334699477106741 -0.000228160404422183 -0.000367621452238036 -0.000213863769192241 -0.000704505396510249 -0.000238093676339328 -0.000540533153806663 -0.000242108365992863 -0.000433921151659358 -0.000417501846174319 -0.000558502356947144 -0.000250272787426536
"110" -0.000563032567198149 -0.000457520331602211 -0.000271020126990015 -0.000301298236611007 -0.000331290330196857 -0.000224712047296561 -0.000364321118338766 -0.000213502376731124 -0.000712288412331343 -0.000243593335166774 -0.000544547928529734 -0.000242851402835506 -0.000434461706683687 -0.000418837653235593 -0.000557075166072017 -0.000245968754725305
"111" -0.000557311387573697 -0.000456402696270668 -0.00026830626176207 -0.000299464700904957 -0.000327248135384614 -0.000220931391442047 -0.000360656876299797 -0.000212929340176646 -0.000719814417650339 -0.00024845481265043 -0.000548216539692599 -0.000243392694956863 -0.00043482954034717 -0.000420335453452594 -0.000555496649208774 -0.000241722826698246
"112" -0.000551256463814646 -0.000455028312812182 -0.000265256325714957 -0.000297306503434941 -0.000322613865942483 -0.000216848560309594 -0.000356675969382786 -0.000212175338533949 -0.000727068469629313 -0.0002526722089368 -0.000551537202804374 -0.000243741538495485 -0.000435032261317663 -0.000421995743133706 -0.000553789115656052 -0.000237542675023646
"113" -0.000544924173414377 -0.000453435468381257 -0.000261908990071477 -0.000294854478073916 -0.000317423452758109 -0.000212503697686499 -0.000352421503348236 -0.000211272491876009 -0.000734031736971894 -0.00025624646280504 -0.000554519727349652 -0.00024391082102211 -0.000435077816226823 -0.00042382542159234 -0.000551968938997557 -0.000233443007693166
"114" -0.000538384240457305 -0.000451667552252212 -0.000258292250420585 -0.00029213711233143 -0.000311721206680261 -0.000207932874004199 -0.000347951658274214 -0.000210248380245938 -0.000740688093021779 -0.000259175741728432 -0.00055716686001501 -0.000243911638307327 -0.000434981231579547 -0.000425823023710739 -0.000550057735066322 -0.000229434823597808
"115" -0.0005316980281047 -0.000449766699904372 -0.000254447624629085 -0.000289189493454054 -0.000305556749329002 -0.000203178527239016 -0.000343312412141082 -0.000209140292379607 -0.000747024112580768 -0.000261469112821532 -0.000559485648899014 -0.000243757547825438 -0.000434755519005176 -0.000427984931825419 -0.000548075977545995 -0.0002255316949017
"116" -0.000524927196612967 -0.000447773345797092 -0.000250412741422015 -0.000286044915317837 -0.000298986254949871 -0.000198282649632589 -0.000338558592780863 -0.000207977831805091 -0.000753024909497316 -0.000263139728820569 -0.000561485896418737 -0.000243462834307181 -0.000434413844777807 -0.000430311412655341 -0.000546040929358732 -0.000221747649845177
"117" -0.000518135919638508 -0.000445730118583355 -0.000246224323653599 -0.000282738511070069 -0.000292071048935649 -0.000193286186959195 -0.000333741451520881 -0.000206798292656447 -0.000758675008901223 -0.000264202046460546 -0.000563175431052429 -0.000243045498368658 -0.000433976445431898 -0.000432795373625081 -0.000543977975446478 -0.0002180932142594
"118" -0.000511381495344329 -0.000443672561106675 -0.000241928510203573 -0.000279308581886274 -0.000284873134975679 -0.000188232740564599 -0.000328917401438224 -0.000205624513328235 -0.000763965486293779 -0.00026467503018391 -0.000564567799532368 -0.000242522211740434 -0.000433460896363368 -0.000435423660341407 -0.0005419044325484 -0.000214586807929759
"119" -0.000504723349704847 -0.00044164578748252 -0.000237570017448762 -0.000275789849901707 -0.000277459460470523 -0.000183167527469031 -0.000324135441491445 -0.000204497501788067 -0.000768883554707468 -0.000264581643999528 -0.000565673832292045 -0.000241912220291282 -0.000432886139586543 -0.000438192842730629 -0.000539835673331585 -0.000211242368491166
"120" -0.000498218119767709 -0.000439680096737367 -0.000233190053212295 -0.00027222165713304 -0.000269898931829525 -0.000178132383087749 -0.000319449706903566 -0.000203441640072325 -0.00077341825883492 -0.000263949666454448 -0.000566504453957868 -0.00024123334561843 -0.000432274652519337 -0.000441086739629633 -0.000537801125861951 -0.000208073745548219
"121" -0.000491912777100202 -0.00043781231369222 -0.000228834548442247 -0.0002686437331426 -0.000262264878361194 -0.000173172559998757 -0.000314908100542316 -0.000202489693177593 -0.000777560073881754 -0.000262807362738368 -0.000567076122277158 -0.000240506907070181 -0.000431649894821448 -0.000444088999356058 -0.000535812126344932 -0.000205097868937501
"122" -0.000485859029698848 -0.00043607321011469 -0.000224546078555333 -0.000265089709462436 -0.00025463125855233 -0.00016832839389555 -0.00031055906785446 -0.000201669443504929 -0.000781300846147535 -0.000261186410551534 -0.000567403036791115 -0.000239753356701499 -0.000431031450944827 -0.000447186149380193 -0.000533890189142715 -0.000202330339027774
"123" -0.000480101547479683 -0.000434488685099698 -0.000220373997802572 -0.00026159996820468 -0.000247072867947908 -0.000163640234803682 -0.000306447036332051 -0.000201003464227619 -0.000784631005487247 -0.000259121181660692 -0.000567496906179721 -0.000238993435287571 -0.00043044458435759 -0.00045036000726322 -0.00053204883434405 -0.000199786879310948
"124" -0.000474677136577159 -0.000433086277219105 -0.000216355043123887 -0.000258210535068715 -0.000239660385861188 -0.000159149294658218 -0.000302616201794112 -0.000200520058520144 -0.000787542782791184 -0.000256646910570549 -0.00056737258175811 -0.00023824425743865 -0.000429911467259001 -0.000453581697491627 -0.000530308353184524 -0.000197480173689648
"125" -0.00046962554581689 -0.000431887508159388 -0.00021253949275243 -0.000254955979316098 -0.000232473382433918 -0.000154889507178615 -0.000299101622994321 -0.000200236667864922 -0.000790030131437754 -0.000253802193397001 -0.000567045922785125 -0.000237528528027923 -0.000429456231920274 -0.000456835397128404 -0.000528678649058797 -0.000195425842893203
"126" -0.000464971090555036 -0.00043090871464564 -0.00020896208990945 -0.000251870060728902 -0.000225580169037081 -0.000150898727452025 -0.000295944418613786 -0.000200176171115866 -0.000792081815151915 -0.000250622578850722 -0.000566528794667251 -0.000236863672649469 -0.000429097372990767 -0.000460091778449957 -0.000527176025211738 -0.000193635276424424
"127" -0.00046074238067897 -0.000430164782645673 -0.000205668426303818 -0.0002489853310522 -0.000219051700614183 -0.000147204020273791 -0.000293168195689425 -0.000200353755639407 -0.000793693927971516 -0.000247150271449305 -0.000565835585293414 -0.00023626367072497 -0.000428857131473149 -0.000463320673461654 -0.000525804835790453 -0.00019211531714562
"128" -0.000456956202768789 -0.000429666198388407 -0.000202690841145512 -0.000246331027053569 -0.000212955405329437 -0.000143835488980878 -0.000290805658323653 -0.000200778272106063 -0.000794858550953443 -0.000243416046134733 -0.000564977721475906 -0.000235747391727283 -0.000428753580567089 -0.000466494826019858 -0.000524578827476819 -0.000190879009751466
"129" -0.000453630446002359 -0.000429419607166845 -0.000200068103259911 -0.000243935739436888 -0.000207353467601049 -0.000140816908378001 -0.000288876146761337 -0.000201462743731473 -0.000795565609880508 -0.000239463394021195 -0.000563968853777233 -0.000235323926542559 -0.000428801234064852 -0.000469577000278412 -0.000523493619539888 -0.000189925972548303
"130" -0.000450766470479679 -0.00042942566502074 -0.000197828077464543 -0.000241821933333215 -0.000202303627621747 -0.000138168970549242 -0.000287396169428055 -0.000202415629325878 -0.000795809616130681 -0.000235321274915646 -0.000562816043951057 -0.000235005284193377 -0.000429015298724057 -0.000472535534050127 -0.000522554343495617 -0.00018925996530506
"131" -0.000448372297108982 -0.0004296827604174 -0.000196001288539708 -0.000240015611652579 -0.00019786151305721 -0.00013590938843357 -0.000286376727430479 -0.000203637500730618 -0.000795581484224596 -0.000231031150994742 -0.000561531338556529 -0.000234799362901738 -0.000429403115888482 -0.000475329857889871 -0.000521759989449822 -0.000188880879237187
"132" -0.000446441301936456 -0.000430185291218423 -0.000194611270537053 -0.000238533828991769 -0.000194068890470647 -0.000134048807480444 -0.000285823107673282 -0.000205127399376533 -0.000794874475376044 -0.000226621124849565 -0.000560122685809982 -0.000234708319283249 -0.00042997418096715 -0.000477925684241233 -0.000521100452457401 -0.000188781286488878
"133" -0.000444963003029477 -0.000430924803472698 -0.000193676873782458 -0.000237392474469991 -0.000190968629432011 -0.00013259527389233 -0.000285737402224156 -0.000206885667251979 -0.000793677008422642 -0.000222117976240316 -0.000558591762906594 -0.00023473375359975 -0.000430730879746457 -0.000480279219635158 -0.000520567339511885 -0.000188952034223487
"134" -0.000443923003360252 -0.000431887448719459 -0.000193216218728712 -0.000236604802398012 -0.000188594478273445 -0.000131550161584885 -0.000286111754343373 -0.000208897309249324 -0.000791979681563775 -0.000217552318276475 -0.000556946699009243 -0.000234872404079112 -0.000431670302127736 -0.000482349208860317 -0.00052014716522163 -0.000189377735085798
"135" -0.000443301717735815 -0.000433055695276927 -0.000193236889625713 -0.000236181028045061 -0.000186969190813739 -0.000130915336722996 -0.000286935415773731 -0.00021115906873896 -0.000789771592888154 -0.000212942111510607 -0.0005551887520529 -0.000235114901038703 -0.000432787614159333 -0.000484090302634351 -0.000519817352688617 -0.000190042828089365
"136" -0.000443073030986428 -0.000434411677119335 -0.000193750885852957 -0.00023612355038899 -0.000186110132306314 -0.000130679731799973 -0.000288195633832388 -0.000213651093129098 -0.000787041904919756 -0.000208307201615308 -0.000553315957138891 -0.000235454739824771 -0.000434072275823965 -0.000485463575117893 -0.000519560856822301 -0.000190922033997605
"137" -0.000443204222333658 -0.000435930983570567 -0.0001947581569669 -0.000236434968828111 -0.000186026907855964 -0.000130838381554281 -0.000289866492924558 -0.000216355772300217 -0.000783777732468378 -0.000203664572173337 -0.00055132938652248 -0.000235871983069909 -0.000435510885897738 -0.000486417755735642 -0.000519346485024471 -0.000191988933955441
"138" -0.00044366154903057 -0.000437588512683581 -0.00019625318170314 -0.00023711522152663 -0.000186719798276544 -0.000131373018114013 -0.000291924403932694 -0.000219254538161185 -0.000779966953945651 -0.000199021939279576 -0.000549225542400009 -0.00023634955430348 -0.000437080858172994 -0.000486908348421447 -0.000519146652885775 -0.000193213413212358
"139" -0.000444404386544254 -0.000439356990773028 -0.000198232671104189 -0.000238157282903582 -0.000188179906223972 -0.000132263030684765 -0.000294335586758653 -0.000222322299946218 -0.000775592545779632 -0.000194387052559366 -0.000546996337247559 -0.000236861686549986 -0.000438758956863205 -0.000486893920802022 -0.000518926093251942 -0.000194559832873342
"140" -0.000445389111720137 -0.000441205093683777 -0.000200676216434603 -0.000239549411321498 -0.000190390723335381 -0.000133485350468154 -0.000297061167844532 -0.000225531878472273 -0.000770643053678246 -0.000189756863467206 -0.0005446323591977 -0.000237382488906538 -0.000440517047755189 -0.000486329119933861 -0.000518645841775116 -0.000195986616096714
"141" -0.00044656781398505 -0.000443105023414626 -0.000203572267935422 -0.000241279761727027 -0.000193326196906961 -0.00013501527860722 -0.000300062719377507 -0.000228852925809383 -0.000765101379197341 -0.000185131499261756 -0.000542125325333701 -0.000237878222048991 -0.000442319239430416 -0.000485164683447529 -0.000518261958807671 -0.000197451413649785
"142" -0.000447890407859745 -0.000445019981768292 -0.000206897859111138 -0.000243331846461896 -0.000196955549429634 -0.000136816176417395 -0.000303295201692247 -0.000232252190506674 -0.000758949684744401 -0.000180499539606988 -0.000539463787813524 -0.000238313287184937 -0.000444130491914575 -0.000483359194776258 -0.000517736624594709 -0.000198907999854578
"143" -0.000449305021720095 -0.000446917023031519 -0.000210617933561568 -0.000245683413480538 -0.000201231338539698 -0.000138857577542064 -0.000306708136069523 -0.000235697584209117 -0.000752173791667516 -0.000175847402246039 -0.000536630349457028 -0.000238650372776303 -0.000445906190565541 -0.000480875325311065 -0.00051701909849549 -0.000200308049627255
"144" -0.000450754785210161 -0.000448766674392018 -0.000214707923467552 -0.000248312706878392 -0.000206108391651238 -0.000141098217520312 -0.000310252807953619 -0.000239150232656915 -0.000744754693478091 -0.000171159197492295 -0.000533607386166976 -0.000238842930408371 -0.00044759904855582 -0.000477670167573493 -0.00051605603235804 -0.00020159673794523
"145" -0.000452183305908941 -0.000450527210366272 -0.000219126353126349 -0.000251189487536703 -0.000211529900523793 -0.000143500891992998 -0.000313873032063432 -0.00024257656817063 -0.000736675158054916 -0.000166413377096651 -0.000530381083928083 -0.000238850132584621 -0.000449163973217617 -0.000473707276295999 -0.000514800032712174 -0.000202723699823204
"146" -0.000453535098780325 -0.000452171084786097 -0.000223835593928047 -0.000254285420713649 -0.000217430356015514 -0.000146021683367544 -0.000317511269510072 -0.00024593348721229 -0.00072791813379546 -0.000161576691915895 -0.000526928625734871 -0.000238621580133302 -0.000450545639815923 -0.000468956046389234 -0.000513197235990575 -0.000203631130988499
"147" -0.000454751663811319 -0.000453664289343647 -0.000228789620230296 -0.000257567906245848 -0.000223742647037054 -0.000148614547078412 -0.000321110852377125 -0.000249186958429775 -0.00071846571348337 -0.000156625965994716 -0.000523227203306863 -0.000238106326607815 -0.00045168868060498 -0.000463380358032446 -0.000511193784264993 -0.000204266238538803
"148" -0.000455769939641661 -0.000454973397063887 -0.000233939455562649 -0.00026099890218134 -0.000230394619116972 -0.000151234360448172 -0.000324611039274128 -0.000252291717030019 -0.000708298647972088 -0.000151523371532587 -0.000519258659036138 -0.000237254221568072 -0.000452537395540094 -0.000456958657897803 -0.000508732968359645 -0.000204571529395802
"149" -0.000456539754650847 -0.000456065904394229 -0.000239238409751805 -0.000264543666363768 -0.000237305470066535 -0.000153836917569091 -0.000327956221117937 -0.000255213332252243 -0.000697401142214705 -0.000146233133311642 -0.000514995620623884 -0.000236015055907603 -0.000453033566061311 -0.000449668634973946 -0.000505766447018548 -0.00020449128175007
"150" -0.000456998397975115 -0.000456914667927415 -0.000244627840151143 -0.00026816118946066 -0.000244391611321516 -0.000156371223053682 -0.000331083295208075 -0.000257907506224528 -0.000685758690834147 -0.000140711565899159 -0.000510413261236164 -0.000234334350414353 -0.000453117046158841 -0.000441489247366236 -0.000502235886298997 -0.000203974587242591
"151" -0.000457093387953106 -0.000457491094733927 -0.000250057176376043 -0.000271810297742515 -0.000251570649822328 -0.000158791329130342 -0.000333933574239249 -0.000260336239344421 -0.000673354023133624 -0.000134922646823438 -0.000505487529998962 -0.000232157628688243 -0.000452731572171011 -0.000432409751461434 -0.00049809207390942 -0.000202966080959361
"152" -0.000456769004929328 -0.000457770335938949 -0.000255467517217279 -0.000275448487217382 -0.000258757804811582 -0.000161050285621088 -0.000336451939926389 -0.000262464862316674 -0.000660175273253789 -0.000128817793801491 -0.000500194753605938 -0.000229435825405272 -0.000451815669097231 -0.000422424290072394 -0.00049328547119852 -0.000201420867191703
"153" -0.000455976441263718 -0.000457730961962318 -0.000260800929599449 -0.000279033393780562 -0.000265859268887287 -0.000163103851402911 -0.000338579636517003 -0.000264254774963014 -0.000646209580910219 -0.00012235557493624 -0.000494507276295469 -0.000226118022569355 -0.00045031251783233 -0.000411532950220935 -0.000487771565098538 -0.000199290068027853
"154" -0.00045466635407102 -0.000457347445705692 -0.000265998724130913 -0.000282519648247906 -0.000272791875914912 -0.000164904201687892 -0.000340265480608189 -0.000265674294357733 -0.000631448917210504 -0.000115489766280587 -0.000488400193695617 -0.000222157655901905 -0.000448166506542522 -0.000399738243251657 -0.000481504012085846 -0.000196533260683219
"155" -0.000452793825819756 -0.000456609374323801 -0.000271005032341436 -0.000285864210374012 -0.000279466778251448 -0.000166412892040979 -0.000341459443936502 -0.00026668654372248 -0.000615883310001689 -0.000108173538886006 -0.000481850783603186 -0.000217507449270332 -0.000445326211824103 -0.000387051365312553 -0.00047444466715005 -0.000193114974217365
"156" -0.000450318153203731 -0.000455496935576534 -0.000275755445860466 -0.000289024025523011 -0.000285798830342252 -0.000167584929795674 -0.000342115579786604 -0.000267266562051257 -0.000599510450556017 -0.000100366466943443 -0.000474836768654455 -0.000212127326378835 -0.000441739986281982 -0.000373492508782305 -0.000466562354442025 -0.000188999543055324
"157" -0.00044720071804127 -0.000453996772545 -0.000280198083509155 -0.000291956529902927 -0.000291707360530297 -0.000168389245441924 -0.000342186732114155 -0.000267381901136147 -0.000582326425395482 -9.20250816101863e-05 -0.000467334668599672 -0.000205978229568799 -0.000437360934880745 -0.00035908288906164 -0.00045782093768954 -0.000184163930532582
"158" -0.000443407788225534 -0.000452104415865512 -0.000284276018168876 -0.000294618933541162 -0.000297111185021753 -0.000168784749275665 -0.00034163868073501 -0.000267013741479436 -0.000564331168875876 -8.31095705410735e-05 -0.000459322095999405 -0.000199027724099724 -0.000432146857905411 -0.000343853260973481 -0.000448204189263358 -0.000178585948905945
"159" -0.000438912874472683 -0.000449812812797565 -0.00028793262590445 -0.000296970295812849 -0.000301937567266436 -0.000168743713430281 -0.000340434899818658 -0.000266142080349425 -0.000545533256170848 -7.35817718857804e-05 -0.000450788327468406 -0.000191245525017767 -0.000426062354787446 -0.000327845614180865 -0.00043769137965447 -0.000172254648694325
"160" -0.000433689752409727 -0.000447117869749973 -0.000291122305669968 -0.000298973149371176 -0.000306112736590431 -0.000168239983633597 -0.000338549300939167 -0.000264744440204384 -0.000525939066457112 -6.34086067616927e-05 -0.00044171026021564 -0.000182611496850016 -0.00041907504284185 -0.0003110980433736 -0.000426269394191949 -0.000165159726869903
"161" -0.000427716817978454 -0.000444020335402939 -0.000293791718053659 -0.000300589449017619 -0.000309574045566556 -0.00016724559490327 -0.000335954085424042 -0.000262810639164422 -0.000505562323545296 -5.25581246854865e-05 -0.000432078013024881 -0.000173108486816889 -0.000411159855218434 -0.000293664349946083 -0.000413937858917517 -0.000157305912743915
"162" -0.000420982460283142 -0.000440522344768005 -0.000295899249427454 -0.000301785968220302 -0.000312264080736498 -0.000165745276942167 -0.000332635494648906 -0.00026033122101763 -0.000484419196556081 -4.10112021196957e-05 -0.000421882398138569 -0.000162726181783389 -0.00040229598365965 -0.000275603868259398 -0.0004006993343675 -0.000148699591584188
"163" -0.000413477736107018 -0.000436630542559468 -0.000297401944896115 -0.000302532729747037 -0.000314131858666888 -0.000163722417208991 -0.000328578270466215 -0.000257299495899519 -0.000462532158619245 -2.87401118423504e-05 -0.000411114807696994 -0.000151459918394444 -0.000392474313322725 -0.000256977052280925 -0.000386562246599749 -0.000139355173417302
"164" -0.00040519989839121 -0.000432355810067589 -0.000298263931340322 -0.000302800335496679 -0.000315134587517954 -0.000161168258683288 -0.000323779505808523 -0.00025371525834037 -0.000439929255676895 -1.57359058020114e-05 -0.000399775523885786 -0.000139316726777243 -0.000381687516157476 -0.000237853479437812 -0.000371547434971557 -0.000129300046403076
"165" -0.000396146842760639 -0.000427705139124984 -0.000298451880942621 -0.000302563121468337 -0.000315237292084956 -0.000158074793034506 -0.00031823672113207 -0.000249583001127699 -0.00041664045209025 -1.98686897383625e-06 -0.000387862933557235 -0.000126305474172222 -0.000369936873152079 -0.000218310861078724 -0.00035568132619057 -0.000118561916723844
"166" -0.000386328016654751 -0.000422695539172652 -0.000297940034158566 -0.000301800638410825 -0.000314409947718981 -0.00015444318039772 -0.00031196037550906 -0.000244903694907076 -0.000392703699864096 1.25034134258101e-05 -0.000375383188485109 -0.000112445872104991 -0.000357235226917289 -0.000198425292032715 -0.000338998733355935 -0.000107182825955991
"167" -0.000375752969750819 -0.000417341974533085 -0.000296709507040733 -0.000300493991354958 -0.000312636623744163 -0.000150277059092785 -0.000304959442005132 -0.000239696541928497 -0.000368160178238557 2.77304075708081e-05 -0.000362341735600151 -9.77638448035102e-05 -0.000343597122075495 -0.000178287939010133 -0.00032154281883055 -9.52079194253488e-05
"168" -0.000364438822644786 -0.000411664160450904 -0.000294739785785645 -0.000298628804908967 -0.000309907848699947 -0.000145586247561417 -0.000297254026134552 -0.000233972308819186 -0.000343058745899619 4.36879365631552e-05 -0.000348756140747645 -8.22954254175511e-05 -0.000329052807642742 -0.000157983083402011 -0.000303365070679147 -8.26950859047051e-05
"169" -0.000352411110235721 -0.000405677701202064 -0.000292019871092479 -0.000296198258634696 -0.000306218669075536 -0.000140381295224797 -0.00028886857612319 -0.000227749083121243 -0.000317449870124703 6.03455329715789e-05 -0.000334643891381308 -6.60839271671365e-05 -0.000313635360917014 -0.000137605632386994 -0.000284523694876489 -6.97026538758359e-05
"170" -0.000339693816651182 -0.000399407988648602 -0.000288550734116513 -0.000293196151963479 -0.000301581105693863 -0.000134681287692439 -0.000279832295993995 -0.000221052767483784 -0.000291393901888081 7.76838964878244e-05 -0.000320024686221786 -4.91752206404044e-05 -0.000297385155373941 -0.000117255322261345 -0.000265087805638383 -5.63021897321473e-05
"171" -0.000326319453429881 -0.000392881248696342 -0.00028432747211874 -0.000289616630720859 -0.000296008944389924 -0.00012850925767012 -0.000270182778675592 -0.000213913410648315 -0.00026495136387382 9.56629775695795e-05 -0.000304929448294412 -3.16292449297064e-05 -0.000280351223533489 -9.7028559227553e-05 -0.000245127280602095 -4.25680920905224e-05
"172" -0.00031232312107176 -0.000386115295871118 -0.000279359566569723 -0.000285467456543226 -0.000289529198132559 -0.00012189159934569 -0.000259964044134531 -0.000206355312096968 -0.000238192968786679 0.000114242600858677 -0.000289386230498485 -1.35111123109233e-05 -0.000262592068328093 -7.70286015960225e-05 -0.000224728265352441 -2.85807327030133e-05
"173" -0.00029774533369736 -0.000379140700788478 -0.000273657148633623 -0.000280753760923955 -0.000282174086412795 -0.000114857314123134 -0.000249215647716366 -0.000198418487690055 -0.000211189676225131 0.000133372722763623 -0.000273433592092139 5.11058787818847e-06 -0.000244172776691602 -5.73562624869596e-05 -0.000203973643966513 -1.44256457083384e-05
"174" -0.000282632222806899 -0.000371980621595459 -0.000267244611293583 -0.000275487768810497 -0.000273986397866733 -0.000107441108050783 -0.000237993704789527 -0.000190134404361318 -0.000184022620648359 0.0001529915981408 -0.000257112955343425 2.41567824480439e-05 -0.000225163854367252 -3.81160389758998e-05 -0.000182958606018455 -1.96786585279271e-07
"175" -0.000267029502608878 -0.000364661206582619 -0.000260142660853988 -0.000269681611020595 -0.000265014706155987 -9.96803687128556e-05 -0.000226349528896217 -0.000181548222136416 -0.000156771176555345 0.000173037816674967 -0.000240470783916434 4.35458150268967e-05 -0.000205643018304812 -1.94088117446987e-05 -0.000161784845767562 1.40134733753097e-05
"176" -0.00025098781771015 -0.000357208265986081 -0.000252384253910933 -0.000263357208932605 -0.000255316081717697 -9.16160701331292e-05 -0.000214346572042799 -0.000172699930418186 -0.000129521869826739 0.000193440269381403 -0.00022355382123585 6.31855511719924e-05 -0.000185695693371178 -1.33768621831336e-06 -0.00014055393420853 2.81055975289178e-05
"177" -0.000234557824334978 -0.000349649624753529 -0.000244001769650657 -0.000256536439330945 -0.000244953583463507 -8.32874894113607e-05 -0.00020204070384539 -0.000163634490195324 -0.000102367355419481 0.000214119350697029 -0.000206416287535025 8.29876695496898e-05 -0.000165408805816086 1.59977720256161e-05 -0.000119373197740462 4.19812223887214e-05
"178" -0.000217800813497503 -0.000342008829936393 -0.000235035748372792 -0.000249246875836084 -0.000233990933241954 -7.47403343201175e-05 -0.000189496691430248 -0.000154396983706045 -7.53984933280753e-05 0.000234990026349821 -0.000189117400619738 0.000102852709103735 -0.000144877309267616 3.2501815819279e-05 -9.83547792983335e-05 5.55376368513319e-05
"179" -0.00020076830725009 -0.000334313838945464 -0.000225534925597543 -0.000241517206327467 -0.000222505613199274 -6.60222895898844e-05 -0.000176782832585787 -0.00014503487407454 -4.87104218695031e-05 0.000255968945692114 -0.000171716701734687 0.000122680303592284 -0.000124197359981849 4.80817756967993e-05 -7.76117149172684e-05 6.8672601278264e-05
"180" -0.000183519537699292 -0.000326582903650938 -0.000215543009794202 -0.000233377947135702 -0.000210574186537096 -5.71790222924321e-05 -0.000163963761546268 -0.000135594213611529 -2.24032279005306e-05 0.00027695992851556 -0.000154278481052748 0.000142368254270468 -0.000103471992227454 6.26461075022693e-05 -5.7254791763105e-05 8.1286050585981e-05
"181" -0.000166117844864204 -0.00031884485398054 -0.000205116295635158 -0.000224868240953188 -0.000198279337642429 -4.82587240501599e-05 -0.000151110051838025 -0.000126123907119761 3.42583927557621e-06 0.000297865397990929 -0.000136867844714208 0.000161815900320608 -8.28038291837961e-05 7.61158772236048e-05 -3.74045324549959e-05 9.32777391447161e-05
"182" -0.000148618215907447 -0.000311115862184979 -0.000194307800824259 -0.000216024160236635 -0.000185701863890949 -3.93088390722071e-05 -0.000138284500873337 -0.000116672129338182 2.86744732001229e-05 0.000318584783001991 -0.000119555831094758 0.00018091574114744 -6.22946718249729e-05 8.84099211694589e-05 -1.81681040464235e-05 0.000104551159976327
"183" -0.000131081720823127 -0.000303416758687974 -0.000183179430153103 -0.000206885485724303 -0.000172929480966559 -3.03774306108691e-05 -0.000125559044313913 -0.000107286110089786 5.32461348279426e-05 0.000339016870104795 -0.000102408265774976 0.000199565367239915 -4.20514501363024e-05 9.94615371175988e-05 3.40942008360611e-07 0.00011501301915379
"184" -0.000113568259261008 -0.000295765111742406 -0.000171790112196266 -0.000197493286658133 -0.000160048818161446 -2.15088502403622e-05 -0.000112995564542914 -9.80119417904494e-05 7.7037435156993e-05 0.000359060527021113 -8.5501593982274e-05 0.000217662896724236 -2.21771417971822e-05 0.000109204876788423 1.80124923428786e-05 0.000124575635797563
"185" -9.61311838138915e-05 -0.000288175447890791 -0.00016020074779257 -0.000187891195557501 -0.000147143274586807 -1.27494264084908e-05 -0.000100657042249833 -8.88904665846023e-05 9.99539800710987e-05 0.000378611306746056 -6.89058192667505e-05 0.00023511071180145 -2.77581295311816e-06 0.000117588865442832 3.47431317956516e-05 0.000133158655036986
"186" -7.88313425636083e-05 -0.000280661004912965 -0.000148477853170626 -0.000178122007412833 -0.000134296300066269 -4.14207019107324e-06 -8.86086534126075e-05 -7.99671143996444e-05 0.000121899372195662 0.000397564809931911 -5.26876701707762e-05 0.000251810685326034 1.60535037151618e-05 0.000124565100365632 5.04389089770973e-05 0.000140684832107525
"187" -6.17169162034876e-05 -0.000273231708436919 -0.000136685459131493 -0.00016822943573856 -0.000121594426263161 4.2733825230515e-06 -7.69063474843877e-05 -7.12818753712865e-05 0.000142778814816922 0.000415819527316099 -3.69241126811956e-05 0.000267671435510624 3.42127987460491e-05 0.000130099853638339 6.50011874990215e-05 0.000147085240220731
"188" -4.48466449554037e-05 -0.000265896705424611 -0.000124882308973332 -0.000158259502519736 -0.000109116225247831 1.24569184477258e-05 -6.56046938238844e-05 -6.2867159023559e-05 0.000162506606720742 0.000433277448932836 -2.16825130099113e-05 0.000282604356147498 5.16101585530488e-05 0.00013416630259875 7.83483141107857e-05 0.000152301984184018
"189" -2.8264222344757e-05 -0.00025866130456715 -0.000113135448380807 -0.000148252754933861 -9.6940165787395e-05 2.03759577771837e-05 -5.47514667065331e-05 -5.47587758168838e-05 0.000181000018089768 0.000449843010511774 -7.03135801246345e-06 0.000296533806046626 6.81572773566944e-05 0.000136747643244585 9.04033825546751e-05 0.000156283137074534
"190" -1.20169389249916e-05 -0.000251528460095085 -0.000101501513603397 -0.000138254220744071 -8.51334055777923e-05 2.79995606776866e-05 -4.43962007842754e-05 -4.69824295978468e-05 0.000198177071955405 0.000465429397910451 6.9642376901461e-06 0.000309382407579174 8.37740347708973e-05 0.000137840978229009 0.000101094186408702 0.000158989929850093
"191" 3.85474927821081e-06 -0.000244497692413996 -9.00435564128351e-05 -0.000128305191772727 -7.37608326476253e-05 3.53004233911832e-05 -3.45735409046164e-05 -3.9570667706487e-05 0.000213967361471343 0.000479947786043766 2.02448964020845e-05 0.000321088434139847 9.8387560367237e-05 0.000137448610315002 0.000110368291762096 0.000160390544192985
"192" 1.93084694081336e-05 -0.00023756769667113 -7.88127682713037e-05 -0.00011844439145244 -6.28885246813591e-05 4.22551323596243e-05 -2.53261233038467e-05 -3.25381804282021e-05 0.000228307040778843 0.000493318825042281 3.27486369482922e-05 0.000331591695638391 0.000111926434045959 0.000135588206637121 0.000118176397570772 0.000160467949129635
"193" 3.43126419215785e-05 -0.000230734918509809 -6.78676849560306e-05 -0.000108710700290927 -5.25671656564845e-05 4.8845764579639e-05 -1.66774235251428e-05 -2.59044558797574e-05 0.000241137915317123 0.00050547131585967 4.44249282416557e-05 0.000340845611678537 0.000124337356928666 0.000132285058431054 0.000124482737736741 0.000159212869335208
"194" 4.88378358835143e-05 -0.000223990664942691 -5.7252913598013e-05 -9.91417901692041e-05 -4.28405753636644e-05 5.50587813844611e-05 -8.65203679239849e-06 -1.96791022995733e-05 0.000252410654079784 0.000516342514161983 5.52230250296836e-05 0.000348812842766382 0.00013557068130931 0.000127578901028759 0.000129262849236855 0.000156630846572935
"195" 6.28521584411571e-05 -0.000217332103557476 -4.7011811040208e-05 -8.97662411019106e-05 -3.37475241683455e-05 6.08846147965854e-05 -1.26697123853259e-06 -1.38705609783961e-05 0.000262088803801842 0.000525876479169895 6.50985051791455e-05 0.000355464248024983 0.000145585328166929 0.000121514944410319 0.000132507553676715 0.00015273681627927
"196" 7.6340549091894e-05 -0.000210740776412915 -3.71864751227278e-05 -8.06185692127607e-05 -2.53213730318613e-05 6.63187565021837e-05 5.46763084870636e-06 -8.47670338556379e-06 0.000270137684886594 0.000534030797211847 7.40166865129043e-05 0.000360782394742604 0.000154352472340132 0.000114152118245137 0.000134214779417996 0.000147556704278075
"197" 8.92801223076403e-05 -0.000204211175750967 -2.78114133530164e-05 -7.17225110724356e-05 -1.75831817118455e-05 7.13654990446201e-05 1.15479632550971e-05 -3.50280255542708e-06 0.000276539052244699 0.000540764718191438 8.19453871931767e-05 0.000364761951458035 0.000161855060372754 0.000105559405240001 0.000134400798512949 0.000141130668432751
"198" 0.000101659371050491 -0.000197724028030714 -1.8916689026935e-05 -6.31015978269937e-05 -1.05421543154631e-05 7.6027057097668e-05 1.69744827347992e-05 1.07103765050662e-06 0.00028128197703597 0.000546054949871353 8.88573956023038e-05 0.000367404557537728 0.000168083654888407 9.58078164136915e-05 0.000133090883159017 0.000133508217796955
"199" 0.000113465375898502 -0.000191267681208305 -1.05224061018325e-05 -5.47790566439954e-05 -4.2080401160244e-06 8.03135590759695e-05 2.17540214014833e-05 5.24775968615302e-06 0.00028436499554789 0.00054988929024466 9.47365391403204e-05 0.000368725054088615 0.000173039627410593 8.49881934275682e-05 0.00013031938336947 0.000124748158012118
"200" 0.000124693051613425 -0.000184824914602528 -2.64901059918651e-06 -4.67675510480055e-05 1.42508644755889e-06 8.42424316121312e-05 2.59043505029592e-05 9.05012425986138e-06 0.000285799956345335 0.000552256762867918 9.95722432051937e-05 0.00036874763888745 0.000176737759458792 7.31872658247864e-05 0.000126144731983516 0.000114922642285569
"201" 0.000135344872244079 -0.000178379983629965 4.69275316890277e-06 -3.9081137158676e-05 6.36977098398316e-06 8.78340672648634e-05 2.94470534343396e-05 1.24987674726116e-05 0.000285609979674009 0.000553166321728117 0.000103361748773491 0.000367510778779441 0.000179201410396745 6.05071586792418e-05 0.000120623287495003 0.000104111234902935
"202" 0.00014541658297918 -0.00017191501111236 1.14963315951724e-05 -3.17255107385339e-05 1.06460093407009e-05 9.11078081553185e-05 3.24022878831288e-05 1.56188391634679e-05 0.000283823721694083 0.000552637918593794 0.000106108774076497 0.000365058093745626 0.000180461794686032 4.70500198879412e-05 0.000113833926804113 9.24028828867147e-05
"203" 0.000154917774885925 -0.000165413481653859 1.77651846922029e-05 -2.47089283200497e-05 1.42817943199458e-05 9.40959185289887e-05 3.48079927351557e-05 1.84411360987434e-05 0.000280482708536975 0.000550696432712167 0.000107824779102338 0.000361443458602015 0.000180563096956489 3.292657249417e-05 0.000105855302095259 7.98918190142358e-05
"204" 0.000163852702106437 -0.000158861477034472 2.35022293780728e-05 -1.80275312950555e-05 1.73119531211488e-05 9.68260774120375e-05 3.66946180824019e-05 2.10003125187036e-05 0.000275638357817139 0.000547378598716473 0.000108529000293999 0.000356731220015757 0.000179561326065826 1.82503581434507e-05 9.67867479651569e-05 6.66820286022607e-05
"205" 0.000172233566810068 -0.000152237874650432 2.87250348550116e-05 -1.1679962579629e-05 1.97777905768476e-05 9.93345129409262e-05 3.81061249186395e-05 2.33302737478305e-05 0.00026935400993759 0.00054273638261103 0.000108245114821745 0.00035099266328236 0.000177513891205574 3.13694009675609e-06 8.67276180867141e-05 5.28852939329743e-05
"206" 0.000180077507630917 -0.000145530228848574 3.34474072715152e-05 -5.66046561758396e-06 2.17322447096772e-05 0.000101657814591566 3.90832882046043e-05 2.54735449383331e-05 0.000261698798503261 0.000536825219844117 0.000107007695864684 0.000344307743586986 0.000174495625441507 -1.2295648035911e-05 7.57903364926145e-05 3.86117940616262e-05
"207" 0.000187395143463931 -0.000138723519450892 3.76934496990437e-05 4.42670737357979e-08 2.32266103991715e-05 0.000103835547247477 3.96770005654628e-05 2.74698914924304e-05 0.00025275062145824 0.00052971138323533 0.000104856924774961 0.000336760801694015 0.000170578062710744 -2.79278488401178e-05 6.40926992489688e-05 2.39803410096274e-05
"208" 0.000194207253812345 -0.000131806161380549 4.14933569598748e-05 5.44623853955147e-06 2.43210712328615e-05 0.00010590936796067 3.99361843561061e-05 2.93611479407548e-05 0.000242599273904429 0.000521468235864218 0.000101835003064963 0.00032844614072927 0.000165853337719686 -4.3641985210472e-05 5.1757265888796e-05 9.11249323576579e-06
"209" 0.000200530516857519 -0.000124767151340618 4.48824514333974e-05 1.0564766122086e-05 2.50820822775904e-05 0.000107920458625547 3.99165152231113e-05 3.11931149361862e-05 0.000231335494087443 0.000512183309865488 9.79952704795259e-05 0.000319458463320257 0.000160405477040274 -5.93190334713129e-05 3.89124721133304e-05 -5.87164517824539e-06
"210" 0.000206387031689733 -0.00011759941710875 4.78949344932545e-05 1.54181589811413e-05 2.55734608407393e-05 0.000109915604782286 3.96704976881883e-05 3.30096488341602e-05 0.000219060357447187 0.000501939014897277 9.33956988632292e-05 0.000309895090983715 0.000154330106393291 -7.48448406893956e-05 2.56870352246028e-05 -2.08519071249522e-05
"211" 0.000211798696768881 -0.000110292806322908 5.05747210453717e-05 2.00308450652404e-05 2.58681322973885e-05 0.000111933637890816 3.92526565033064e-05 3.48551764806998e-05 0.000205878711816137 0.00049083153235799 8.80949793128443e-05 0.00029986266466774 0.000147724815548831 -9.01079460833713e-05 1.22168768779837e-05 -3.57063014872746e-05
"212" 0.000216787711308477 -0.000102841880339242 5.2965085146548e-05 2.44254516673685e-05 2.60365797698539e-05 0.000114023523692677 3.87234436660718e-05 3.67764498279681e-05 0.000191901727398999 0.000478961760303432 8.21608948991418e-05 0.000289461090420541 0.000140695160421348 -0.000105000976475589 -1.3642829078275e-06 -5.03175862168944e-05
"213" 0.000221374248748761 -9.52487473416492e-05 5.51114482148585e-05 2.86302868403483e-05 2.61521277877135e-05 0.000116225234019653 3.81354227684183e-05 3.88099963082579e-05 0.000177242535331996 0.000466432262138413 7.56580742771895e-05 0.00027879780556894 0.000133341839361177 -0.000119420836251877 -1.49289838444214e-05 -6.45710221155011e-05
"214" 0.000225585138091551 -8.75109640558895e-05 5.70698653092897e-05 3.26721188444655e-05 2.62896779807715e-05 0.000118580482057007 3.75464551033505e-05 4.10059880946117e-05 0.000162017097061939 0.000453348413493965 6.86628833005965e-05 0.000267974761752621 0.000125767999442633 -0.000133270852328699 -2.83400078556315e-05 -7.83529289787039e-05
"215" 0.000229437693934747 -7.96335501934642e-05 5.88853026689233e-05 3.65826339359999e-05 2.65211126995783e-05 0.000121131147814199 3.70093079080748e-05 4.33972345818351e-05 0.000146343935230104 0.000439817836015423 6.1244855671077e-05 0.000257093385083009 0.000118077259659055 -0.000146459800856687 -4.14690448554319e-05 -9.15615138876376e-05
"216" 0.000232956423420356 -7.16228113199263e-05 6.06136439702582e-05 4.03871859523114e-05 2.69148673981134e-05 0.000123914172420562 3.65786486872064e-05 4.60215137461874e-05 0.000130339105330334 0.000425943276565592 5.34818391947477e-05 0.00024625449196984 0.000110371932613124 -0.000158907322503286 -5.41977644889667e-05 -0.000104095041616972
"217" 0.000236161736565306 -6.34832046586759e-05 6.23037065242669e-05 4.411925186424e-05 2.75449057466293e-05 0.000126966043962427 3.62996343783689e-05 4.89108123741475e-05 0.000114119423780197 0.000411839186705499 4.54471759911617e-05 0.000235554461407391 0.000102752734752895 -0.000170537205355722 -6.64010840285654e-05 -0.000115862846604277
"218" 0.000239070453934533 -5.52290985317266e-05 6.4010419787651e-05 4.7806410175439e-05 2.84736533900617e-05 0.00013031801738921 3.62249618827353e-05 5.20970677186466e-05 9.7803215525906e-05 0.000397604878869878 3.72180143489548e-05 0.000225081562520895 9.53148389604112e-05 -0.000181283669806061 -7.79730284128076e-05 -0.000126779884343551
"219" 0.000241709556171076 -4.6876555632884e-05 6.578140252284e-05 5.14795469151685e-05 2.97639770179587e-05 0.000133998259150839 3.63944156364716e-05 5.560493237961e-05 8.15039974029068e-05 0.000383346682025111 2.8864357660202e-05 0.000214924468667274 8.81511381168274e-05 -0.000191089462891025 -8.88027624286147e-05 -0.000136769964558612
"220" 0.000244088993574889 -3.84387042993061e-05 6.76655581403139e-05 5.51652834930864e-05 3.14753320632233e-05 0.000138034878192668 3.68494026542636e-05 5.94556212227676e-05 6.53312853937258e-05 0.000369163444523041 2.04652265072119e-05 0.000205159151973471 8.13478940473205e-05 -0.000199905333776963 -9.88010564157075e-05 -0.000145766424498613
"221" 0.000246229291487749 -2.99326991731258e-05 6.97127861086801e-05 5.88899745006851e-05 3.36608589543436e-05 0.000142445785308052 3.7624688106807e-05 6.3661572462209e-05 4.93882110377351e-05 0.000355147935554584 1.20868302475212e-05 0.00019585857272673 7.49852139758782e-05 -0.000207693446711235 -0.000107873649418207 -0.000153712257013594
"222" 0.000248143570852212 -2.1383097977106e-05 7.19649788012223e-05 6.26764636978517e-05 3.63657642882154e-05 0.000147251008075289 3.87519122787163e-05 6.82414520174069e-05 3.37788283678185e-05 0.000341391278309877 3.79713914830673e-06 0.00018708636388693 6.91377963860384e-05 -0.00021442274034466 -0.000115946683895463 -0.000160560353798489
"223" 0.00024984332706286 -1.28090737073565e-05 7.44603977789966e-05 6.65500886160772e-05 3.96309946561168e-05 0.000152458801973247 4.02522819430676e-05 7.31933060198606e-05 1.85951018611141e-05 0.000327976384840465 -4.33947501812114e-06 0.000178900500560444 6.38695060500347e-05 -0.000220073938098753 -0.000122951369427756 -0.000166272764866434
"224" 0.000251346781224987 -4.23660267925571e-06 7.72382877651951e-05 7.05270870364283e-05 4.34968757264269e-05 0.000158078509038267 4.2151077557141e-05 7.85218393493541e-05 3.92625475829116e-06 0.000314976876639636 -1.2262252155467e-05 0.000171348102383226 5.92405903414733e-05 -0.000224636933872995 -0.000128837038668034 -0.000170823722092136
"225" 0.000252658341905673 4.30882122382784e-06 8.03304397156844e-05 7.46267588292964e-05 4.79887517703063e-05 0.000164111578168473 4.44622883068755e-05 8.42187254488478e-05 -1.01497863016982e-05 0.000302462567409583 -1.99180696209225e-05 0.000164463591037814 5.53011611612338e-05 -0.000228113922384863 -0.000133550231856159 -0.000174196255117377
"226" 0.000253788905107164 1.28001236372176e-05 8.37616997592201e-05 7.88626631952985e-05 5.31284564110458e-05 0.000170553563208915 4.71948486484503e-05 9.02751227347375e-05 -2.3557435667496e-05 0.000290495015487069 -2.72567195818401e-05 0.000158281054754971 5.20887118415901e-05 -0.00023050914478022 -0.000137062948031082 -0.000176383667193862
"227" 0.000254743194382743 2.12086144458937e-05 8.7553373447863e-05 8.3242600180657e-05 5.89288569119222e-05 0.00017739823771119 5.03514410305538e-05 9.66724848012889e-05 -3.62356685940917e-05 0.000279120763855175 -3.42344199334201e-05 0.000152817291361586 4.96375925941673e-05 -0.000231840255786124 -0.000139354051722774 -0.000177392102682558
"228" 0.000255531157927651 2.95086480638802e-05 9.17209989754164e-05 8.77722419540517e-05 6.539959689403e-05 0.000184629824192575 5.39289352732913e-05 0.000103391410278621 -4.81279666761991e-05 0.00026838340875313 -4.08121050290549e-05 0.000148080159384031 4.79685749414449e-05 -0.000232133466705708 -0.000140411679465321 -0.000177234089952982
"229" 0.000256154081074749 3.76677117057669e-05 9.6278972478443e-05 9.24564174210898e-05 7.25358697231496e-05 0.000192230744750263 5.79243441556726e-05 0.000110399722166486 -5.91889496031223e-05 0.00025831971869127 -4.69602406316633e-05 0.000144073060130043 4.70946386815074e-05 -0.000231423978650693 -0.000140236166716193 -0.000175932685057901
"230" 0.000256613987733388 4.56618812646941e-05 0.000101226449871541 9.72927805227724e-05 8.03343718933366e-05 0.000200175826499886 6.23191090944496e-05 0.00011766852693914 -6.93830932127276e-05 0.00024894887865805 -5.26489084337798e-05 0.000140785674108782 4.70145400751491e-05 -0.000229749954730583 -0.000138844802015312 -0.000173520753937044
"231" 0.000256915631464558 5.34590424386827e-05 0.000106561266106369 0.000102275158000625 8.87830308491852e-05 0.000208436211910047 6.70945451819187e-05 0.00012515552987428 -7.86813611630113e-05 0.000240287033626344 -5.78629278256134e-05 0.000138201247101646 4.77245348296041e-05 -0.000227160469800668 -0.000136254679207686 -0.00017004094631598
"232" 0.000257056642828541 6.10340270960399e-05 0.00011227890659758 0.000107395416325767 9.78532607885099e-05 0.000216981345591983 7.2230946978179e-05 0.000132818913171992 -8.70678982910608e-05 0.000232332422523555 -6.25903128160171e-05 0.000136290116458454 4.92085077498507e-05 -0.000223712131953361 -0.000132507501947984 -0.00016554260077136
"233" 0.000257041352240988 6.83631836669299e-05 0.000118361646158302 0.000112636230816779 0.0001075193065931 0.000225770208605511 7.76934837932735e-05 0.000140613390455401 -9.45343472128131e-05 0.000225087517563293 -6.68265768973443e-05 0.000135018953255493 5.14366121434887e-05 -0.00021946343949405 -0.000127645365723867 -0.00016008079782538
"234" 0.000256867370762742 7.54161431546907e-05 0.000124786189865859 0.000117985006744264 0.000117747105562041 0.000234761499756121 8.34516951524405e-05 0.000148488931763277 -0.000101082841764523 0.000218533822023479 -7.05680409676515e-05 0.000134346270937601 5.43786217491815e-05 -0.000214478043556506 -0.000121720176504769 -0.000153723433095243
"235" 0.000256532049135816 8.21761357097042e-05 0.000131529922465773 0.000123416100172009 0.00012849654882421 0.000243907976938301 8.94662303567939e-05 0.000156387135282089 -0.000106722434155489 0.000212648427946965 -7.3828480199599e-05 0.000134218009914271 5.79886629928344e-05 -0.000208827613272136 -0.000114798535873596 -0.000146537674114847
"236" 0.000256036122125661 8.86180464230663e-05 0.000138560507687703 0.000128908576344716 0.000139718341155768 0.000253162679060587 9.56943313679612e-05 0.000164250898242885 -0.000111473634807339 0.000207396747273902 -7.66180416772068e-05 0.000134581407941668 6.22181119582818e-05 -0.000202583444199765 -0.00010695065961019 -0.000138600244030059
"237" 0.000255376917376966 9.47272988459754e-05 0.000145834774038498 0.000134432597787042 0.000151358056831788 0.000262472448295724 0.000102091102709051 0.000172023865467045 -0.000115365613051207 0.000202744585117046 -7.89587426155385e-05 0.000135373190717492 6.70079049231033e-05 -0.000195819381284734 -9.82577722131062e-05 -0.000129988820609189
"238" 0.000254557789418197 0.00010048995430395 0.000153310646783663 0.000139956107716008 0.000163365429272405 0.000271783388554783 0.000108606780041801 0.000179639737561895 -0.000118434726030459 0.00019863895686541 -8.08741754483026e-05 0.000136524740090624 7.22911312620027e-05 -0.00018861367924123 -8.87993738015903e-05 -0.000120790057447751
"239" 0.000253574174840083 0.000105888319176574 0.000160944774009237 0.000145447765405704 0.000175677408442655 0.000281037480259184 0.000115190433361045 0.000187040633739265 -0.000120721306487164 0.000195031780938792 -8.23944839097768e-05 0.000137966562829104 7.80015263926482e-05 -0.000181045312662821 -7.86710611826832e-05 -0.000111086894633189
"240" 0.000252431780355555 0.000110918696687514 0.000168676644401045 0.000150867440628075 0.000188228209421896 0.000290175997410561 0.00012179021153475 0.000194165296876219 -0.000122277113603136 0.000191856158696238 -8.35594321182697e-05 0.000139621669110552 8.40617299071653e-05 -0.000173189605306554 -6.79674843273626e-05 -0.000100967895258184
"241" 0.000251125792197302 0.000115574547519519 0.00017645606180538 0.000156179934500637 0.000200950132778378 0.000299143569038778 0.000128346642241061 0.000200945350631054 -0.000123156207542396 0.000189057471852401 -8.44058232689831e-05 0.000141416229213429 9.03934171397216e-05 -0.000165124213931741 -5.6781428639161e-05 -9.05223252900386e-05
"242" 0.000249664611716789 0.00011985180141133 0.000184222742250696 0.000161344330876699 0.000213775976218319 0.000307878227647802 0.000134810932511414 0.000207322831833329 -0.000123424759355159 0.000186558718231305 -8.49766209071559e-05 0.000143272012034842 9.69129818428353e-05 -0.000156927018697407 -4.52216282225052e-05 -7.98400743981095e-05
"243" 0.000248047290513063 0.000123754002495938 0.000191913204740356 0.000166319833149636 0.000226630595390845 0.000316319860888515 0.000141122222756251 0.000213240518132281 -0.000123145401914063 0.000184291794045954 -8.53172270320481e-05 0.000145109572739563 0.000103536945791124 -0.00014866940490425 -3.33822613035536e-05 -6.90053839262909e-05
"244" 0.000246284237164345 0.000127287372088004 0.000199466439324463 0.000171065868549925 0.000239451297887607 0.000324413639501342 0.000147230127637547 0.000218637251333382 -0.00012239122541148 0.00018218300110566 -8.54791774615229e-05 0.000146852782370058 0.000110176426070487 -0.00014042374633964 -2.13715521249297e-05 -5.81086139411828e-05
"245" 0.000244378416940108 0.000130464723627844 0.00020681574825456 0.000175541039795894 0.000252157070788915 0.000332102053678416 0.000153074932335049 0.000223463974215716 -0.000121229650605603 0.000180154202602594 -8.55120980818194e-05 0.000148426224412606 0.000116748251297318 -0.000132259091418281 -9.28330268797312e-06 -4.72312417426e-05
"246" 0.000242341740413598 0.000133293919342364 0.000213900408660208 0.000179705299899953 0.000264680904708959 0.000339330375280573 0.000158605869074437 0.000227664879969758 -0.000119738628652203 0.00017813467632261 -8.54629088425806e-05 0.000149755047291317 0.000123164582886696 -0.0001242346681747 2.77577780568266e-06 -3.64550301448378e-05
"247" 0.00024018171995576 0.000135797028135763 0.000220650059936134 0.000183517450498129 0.000276952861127329 0.000346047567686796 0.000163773937659452 0.000231202360066264 -0.000117995290230736 0.0001760484328903 -8.53879714070929e-05 0.000150769869141395 0.000129341870993435 -0.000116412542026611 1.47103737958411e-05 -2.58558662363531e-05
"248" 0.000237912435584624 0.000137993755625585 0.000227005612695813 0.00018694088622906 0.0002889016993673 0.000352204234952192 0.000168529350348748 0.000234029798610264 -0.000116072443299225 0.000173819449334671 -8.53341992329476e-05 0.000151405300018678 0.000135199530425798 -0.000108846919372089 2.64333096430409e-05 -1.55062971679656e-05
"249" 0.000235550048018745 0.000139910606109219 0.000232908119287417 0.000189937806346887 0.000300462344754735 0.000357757390407144 0.00017282687636276 0.000236115023376904 -0.000114046039932766 0.000171381996926223 -8.53542813925977e-05 0.000151601159285455 0.000140656951967866 -0.000101587665119713 3.78504392641967e-05 -5.47362966018716e-06
"250" 0.000233109817591533 0.000141573150074825 0.000238295411264585 0.000192477685661168 0.000311575112825774 0.000362663935873301 0.000176627291075756 0.000237431755883684 -0.000111991292655122 0.000168669715300438 -8.54958682935641e-05 0.000151303226600189 0.000145639610702876 -9.46741503688767e-05 4.88834292197957e-05 4.18168129021186e-06
"251" 0.000230608144299459 0.000143018652659504 0.000243113947508493 0.000194525901585068 0.000322175565181613 0.000366891452623857 0.000179890350841322 0.000237953881486877 -0.000109976715407004 0.000165614101034862 -8.58036186361741e-05 0.000150464555370172 0.000150079532666368 -8.81435801653441e-05 5.94519295049445e-05 1.34028596597359e-05
"252" 0.000228067358073829 0.000144276790433007 0.000247315133468626 0.000196060734298889 0.000332214090129035 0.000370409405408502 0.000182586229112511 0.000237670644939881 -0.00010807282594329 0.000162167587554867 -8.63193380873373e-05 0.000149040869648037 0.000153916339795365 -8.20304361446774e-05 6.94947316487341e-05 2.21414970001868e-05
"253" 0.00022550870752528 0.000145388538150663 0.000250852303638665 0.000197058068466469 0.000341635367900188 0.00037319112490436 0.00018468654185704 0.000236572956547584 -0.000106341456964098 0.000158273272003873 -8.70826669405603e-05 0.000147002409817027 0.000157091128145986 -7.63552881940158e-05 7.89409945128218e-05 3.03548144846177e-05
"254" 0.000222954789548349 0.000146391364866509 0.00025368645585762 0.000197496815597853 0.000350396612416057 0.000375217340541856 0.000186167745176713 0.000234661098802168 -0.000104841086254757 0.00015389165713349 -8.81269073773686e-05 0.00014432078046327 0.000159554669636243 -7.11366753425675e-05 8.77440022167685e-05 3.80114007936216e-05
"255" 0.000220432244942173 0.000147329514527302 0.000255779868596192 0.00019736491296185 0.00035845555599575 0.000376477196035119 0.000187012522389439 0.000231942267579815 -0.000103626570442558 0.000148983832828421 -8.94811186630269e-05 0.000140982480266931 0.000161265843972364 -6.6388581300385e-05 9.58571536772809e-05 4.50810169094656e-05
"256" 0.000217964050499997 0.000148243935339302 0.000257109243867125 0.000196654417080392 0.000365781275510735 0.000376961030866152 0.000187211149287496 0.000228432783042982 -0.000102743987682105 0.000143523579634805 -9.11708982874513e-05 0.0001369755542453 0.000162194749608542 -6.21133039375572e-05 0.000103245201889341 5.15437525519989e-05
"257" 0.000215579463942757 0.000149183397335732 0.000257654165541896 0.000195358925831922 0.000372346790405827 0.0003766688569563 0.000186757857343414 0.000224153041909971 -0.000102237211772381 0.000137487682233197 -9.32148551915772e-05 0.000132301240911932 0.000162314073545661 -5.83145493742699e-05 0.000109881420263729 5.73876477004914e-05
"258" 0.000213305427509417 0.000150189146198887 0.000257400573036172 0.000193484802737262 0.000378124975227326 0.000375608255884667 0.000185649235072419 0.000219137089671054 -0.00010213732509291 0.000130867435027379 -9.56248893682919e-05 0.000126969002935505 0.000161611012456331 -5.49816880939815e-05 0.000115749944471741 6.26079523517102e-05
"259" 0.000211166412858694 0.000151305823515298 0.000256340994290475 0.000191034859485287 0.000383104634217456 0.000373790182606129 0.000183893626091446 0.000213417661537546 -0.000102471403980135 0.000123660733138968 -9.84095285016306e-05 0.000120995427196292 0.000160077887800339 -5.21064741354205e-05 0.000120837541002294 6.72069082925793e-05
"260" 0.000209195499743528 0.000152582692362383 0.000254483328955561 0.000188023705955042 0.000387274322943986 0.000371234570110985 0.00018150063421757 0.000207044118345645 -0.000103259481845745 0.000115869196992356 -0.00010156581075538 0.000114405085563294 0.00015771932782002 -4.96697242058757e-05 0.000125151695276538 7.1190211218815e-05
"261" 0.000207418170384668 0.000154063403269661 0.000251830938538434 0.00018446937281137 0.000390631488651148 0.000367964409483418 0.00017848684789699 0.000200065519691341 -0.000104513676690362 0.000107507749073511 -0.00010509264627656 0.000107233333883098 0.000154545192458242 -4.76528453510655e-05 0.000128695371853185 7.45744235253223e-05
"262" 0.000205863023142559 0.000155789148665323 0.000248410757755433 0.000180396289537354 0.000393182232835885 0.000364010146378455 0.000174876038247692 0.000192538686362297 -0.000106237221590168 9.8604208540378e-05 -0.000108978695896607 9.95178103435659e-05 0.000150579206957023 -4.60265864592959e-05 0.000131491241165708 7.73810610433645e-05
"263" 0.000204556136273331 0.000157803596496348 0.000244241240019848 0.000175830620713483 0.000394931468425285 0.000359409151971301 0.000170695883488236 0.000184524982141695 -0.000108426980534865 8.91862616673032e-05 -0.000113202345151085 9.13074523377978e-05 0.000145850718574833 -4.47658449170548e-05 0.000133562588356819 7.96372634307822e-05
"264" 0.000203521085685456 0.000160142553198627 0.000239357283128745 0.000170808354642334 0.000395896547508329 0.000354202796802235 0.000165976636674204 0.000176097266222279 -0.000111070443954959 7.92937780774743e-05 -0.000117740508931077 8.26555690867617e-05 0.00014039587500365 -4.38353042811122e-05 0.000134944617363605 8.13750684046081e-05
"265" 0.000202782716616385 0.000162846145236462 0.000233805774924552 0.000165366574261448 0.000396097134946985 0.000348438874935688 0.000160757649036041 0.000167322693798715 -0.00011415080092116 6.8972900354051e-05 -0.00012256524904905 7.36230754757635e-05 0.000134263284303411 -4.32013270787901e-05 0.000135679370025949 8.26285892373351e-05
"266" 0.000202363777506132 0.000165947324584639 0.000227626018328975 0.000159549144883074 0.000395565565308542 0.000342166311259764 0.000155076395132581 0.000158279316970051 -0.000117641596335654 5.82759220773056e-05 -0.000127641550378847 6.42717897182135e-05 0.000127505885073352 -4.28281764536187e-05 0.000135808591216794 8.34399273381071e-05
"267" 0.00020228260912611 0.000169475714830452 0.000220877789229181 0.000153401903456881 0.000394328014800555 0.000335439533802498 0.000148979965348292 0.000149045886786992 -0.000121512568844966 4.72654162077003e-05 -0.000132927417534599 5.46703439512395e-05 0.000120179253712116 -4.26750357967084e-05 0.000135388055033789 8.38497985087005e-05
"268" 0.000202557815335693 0.000173462511049434 0.000213620979297011 0.000146974769248105 0.000392418366330131 0.000328315916232345 0.000142516619501346 0.000139701993866977 -0.000125723990394429 3.60027868133166e-05 -0.000138383127744201 4.48915106689552e-05 0.000112352058869509 -4.27045964231565e-05 0.000134476689807317 8.39061005877503e-05
"269" 0.000203201943425474 0.000177922710729965 0.000205917466578991 0.000140323186828645 0.000389880368660994 0.000320861512593257 0.000135735424153037 0.000130329717786316 -0.000130234572939605 2.45588296546406e-05 -0.000143957361998057 3.5007202152549e-05 0.000104094519077717 -4.28786173659706e-05 0.000133128439883834 8.36540090501931e-05
"270" 0.000204230000386623 0.000182881108539632 0.000197842154447178 0.000133500186244286 0.000386756484449329 0.000313133603849424 0.000128689488105198 0.000121015146947124 -0.000134993960347193 1.30073510774216e-05 -0.00014960102425244 2.50914925302102e-05 9.5478735814789e-05 -4.3155533480899e-05 0.000131412568332061 8.31386039687734e-05
"271" 0.000205645925097442 0.000188349027693029 0.000189465885220152 0.000126566732028007 0.000383093379609308 0.000305198209424034 0.00012143439309377 0.000111834499245377 -0.000139951129835905 1.42249301798933e-06 -0.000155255300812463 1.52208419717436e-05 8.65827004015778e-05 -4.34986929581978e-05 0.000129394396695618 8.2412446725087e-05
"272" 0.000207458275439778 0.000194335465165033 0.000180866402273926 0.000119579285083077 0.00037893567415455 0.000297124254454237 0.000114022623547737 0.00010287479997198 -0.000145049515065698 -1.01170392194941e-05 -0.000160867701485734 5.46793246499916e-06 7.74872827932593e-05 -4.38735254016077e-05 0.000127133449992518 8.1516586677322e-05
"273" 0.000209667408560416 0.000200846104458513 0.000172122890407854 0.00011259745542028 0.000374337609784661 0.000288972790272084 0.000106514262278209 9.42121838913363e-05 -0.000150230967049257 -2.15297316992963e-05 -0.000166379685829195 -4.09502982258663e-06 6.82699039790051e-05 -4.42428338098086e-05 0.000124707961043318 8.04972846944283e-05
"274" 0.000212268830603097 0.00020787837759774 0.000163315717257377 0.000105683559901991 0.000369348106356156 0.000280812923936872 9.89604172717023e-05 8.59215034786822e-05 -0.000155434102799316 -3.27411106012435e-05 -0.000171729774049815 -1.33961289278349e-05 5.90150692063164e-05 -4.45762944297664e-05 0.000122172693524565 7.9397651185775e-05
"275" 0.000215258018697904 0.000215426944326346 0.000154528956029784 9.88971115145162e-05 0.000364021866104161 0.000272707004622926 9.14226219059394e-05 7.80798286800699e-05 -0.000160597685138696 -4.36696633354548e-05 -0.000176860022836107 -2.23683815034567e-05 4.97994368970785e-05 -4.48447083840561e-05 0.000119600442076746 7.82567674353929e-05
"276" 0.000218623600390341 0.000223481966082691 0.00014583980515847 9.2294021623841e-05 0.000358406662001961 0.000264720984349882 8.39515441275505e-05 7.07498155416088e-05 -0.000165658145990329 -5.42401200961989e-05 -0.000181713714390429 -3.09515164007836e-05 4.07032303036417e-05 -4.50191828423925e-05 0.000117046736057133 7.71089232664252e-05
"277" 0.000222351875955055 0.000232026527360978 0.00013732782237 8.5936943692276e-05 0.000352562235717674 0.000256910715420061 7.65980481840251e-05 6.40038741626293e-05 -0.000170553164991368 -6.43780805585477e-05 -0.000186228577674392 -3.90853420834736e-05 3.18011444180546e-05 -4.50770770999915e-05 0.000114578197519966 7.59869937389921e-05
"278" 0.000226425756251653 0.000241040328773672 0.00012907508766175 7.98765906642447e-05 0.000346532477320865 0.000249339181945161 6.94207012690653e-05 5.78916766681426e-05 -0.000175219746216701 -7.4012314833969e-05 -0.000190352186053798 -4.671762960835e-05 2.31676192952757e-05 -4.50014375906265e-05 0.000112241198666054 7.49181028695193e-05
"279" 0.000230823105130291 0.0002504972932288 0.000121152703536083 7.41638837882464e-05 0.000340370547686485 0.000242060102913647 6.24593802721431e-05 5.24730766361973e-05 -0.00017960000194044 -8.30809055292172e-05 -0.000194028052488579 -5.38038810706876e-05 1.48705672180921e-05 -4.47743446546564e-05 0.000110094667593098 7.39244090547131e-05
"280" 0.000235515115351251 0.000260366870771124 0.000113634521735643 6.8852095934976e-05 0.000334122410623014 0.000235121181018419 5.57648681048642e-05 4.77857245482406e-05 -0.00018363495874442 -9.15178050257474e-05 -0.000197208446428597 -6.03040489008731e-05 6.97347180657771e-06 -4.43843229264362e-05 0.00010817941404068 7.30233422297209e-05
"281" 0.000240475165773145 0.000270615495243103 0.000106586055459718 6.39834805430414e-05 0.000327836168681709 0.000228574372810454 4.93742286398234e-05 4.38772618701305e-05 -0.000187270285340294 -9.9271341185782e-05 -0.000199842862169374 -6.61830675911651e-05 -4.69163390609237e-07 -4.38243629384983e-05 0.000106537177868389 7.22264583938366e-05
"282" 0.000245670640336236 0.00028120378695671 0.000100072291631565 5.96013343680557e-05 0.000321551900995159 0.000222458251651367 4.3331599103754e-05 4.07734088883011e-05 -0.000190453247628813 -0.000106290508926262 -0.000201889706300828 -7.14160669033874e-05 -7.39596471666525e-06 -4.3087141539448e-05 0.000105208150761362 7.15427251744153e-05
"283" 0.000251065511518937 0.000292088061581007 9.41480047116143e-05 5.57405754713155e-05 0.000315312915292675 0.000216813829292852 3.76692275101236e-05 3.85008827999046e-05 -0.00019313798037745 -0.000112534588804544 -0.000203309595489706 -7.59879116916252e-05 -1.37708266369976e-05 -4.2174945608868e-05 0.000104214744485086 7.0971545269656e-05
"284" 0.000256622120668422 0.000303221756890401 8.88632753700284e-05 5.24322052887313e-05 0.000309157256617869 0.00021166983998409 3.2418308599484e-05 3.70753448387077e-05 -0.000195280271762228 -0.000117968027475302 -0.000204068140153012 -7.98830420158924e-05 -1.95467336417216e-05 -4.10875026234371e-05 0.000103585246866086 7.0514469840126e-05
"285" 0.000262299180108384 0.000314560231129724 8.42644105784968e-05 4.97038421347144e-05 0.000303118569781049 0.000207057476983825 2.76006489084079e-05 3.65047850050711e-05 -0.000196843632254878 -0.000122567456489766 -0.000204136977890058 -8.31020244957674e-05 -2.46960733578438e-05 -3.98333510908254e-05 0.000103333432094172 7.01612561541322e-05
"286" 0.000268054288418707 0.000326044440307694 8.03862318298032e-05 4.7575690384603e-05 0.000297228871705312 0.000202996754833549 2.32453042485209e-05 3.67924641222206e-05 -0.000197792272644002 -0.000126308256348572 -0.000203491555915399 -8.5645758754311e-05 -2.91886451779616e-05 -3.84173211300039e-05 0.000103477008453788 6.99053334152764e-05
"287" 0.000273841685043853 0.000337626842115725 7.72620617389847e-05 4.60638022033712e-05 0.000291519200525479 0.000199506064683504 1.93656161790743e-05 3.79251425244553e-05 -0.000198101514510026 -0.00012918398598934 -0.000202112077592882 -8.75263240661576e-05 -3.30070838991624e-05 -3.68520668238136e-05 0.000104018221781348 6.97311630273081e-05
"288" 0.00027961650879759 0.000349248835831287 7.49121302433967e-05 4.51758354121133e-05 0.000286010572839754 0.000196592280738865 1.59712154893878e-05 3.98970450206984e-05 -0.000197748635458805 -0.000131192595262643 -0.000199989707527089 -8.87637094026069e-05 -3.61419834256696e-05 -3.51487003104478e-05 0.000104960785230491 6.96222485170199e-05
"289" 0.000285331085554292 0.000360850403423074 7.33543715573996e-05 4.4917830131769e-05 0.000280729293886149 0.000194265076040401 1.30779103844876e-05 4.26805409412853e-05 -0.000196716228548318 -0.000132336353652592 -0.000197115671534019 -8.93777025316857e-05 -3.85842999714487e-05 -3.33237776978265e-05 0.000106301149923783 6.95590381677028e-05
"290" 0.000290940415536649 0.000372379399778714 7.25941921827652e-05 4.52849485690714e-05 0.000275693007458754 0.000192523615338895 1.06831456964909e-05 4.62475413127702e-05 -0.000194997181485316 -0.000132630449223029 -0.000193487671078827 -8.94038267634337e-05 -4.03355497852934e-05 -3.13929559864984e-05 0.000108025906527274 6.95261268586805e-05
"291" 0.000296396635752742 0.00038377366009836 7.26312676658652e-05 4.62695606498239e-05 0.000270922381138088 0.000191363722105525 8.79278230340841e-06 5.05658992354965e-05 -0.000192585152674545 -0.000132095306972128 -0.000189116582385455 -8.8871320257279e-05 -4.14053142333145e-05 -2.93718226757815e-05 0.00011013085334515 6.94994559501912e-05
"292" 0.000301656728369153 0.000394976987521897 7.34567841840884e-05 4.78584221786412e-05 0.000266429014273625 0.000190775189119721 7.39659037800199e-06 5.55879278581026e-05 -0.000189482420292291 -0.000130763070177468 -0.000184008476272081 -8.78233853742029e-05 -4.18039292729058e-05 -2.72758170394255e-05 0.000112594611606747 6.94611275581136e-05
"293" 0.000306672362685495 0.000405932390339197 7.50600510282346e-05 5.00328803502733e-05 0.000262220867737061 0.000190741185489041 6.49103033487118e-06 6.12711756729121e-05 -0.000185694848777159 -0.000128667490484289 -0.000178182012261296 -8.63030961867791e-05 -4.15498050140427e-05 -2.51240852664602e-05 0.000115398191337347 6.93893474526222e-05
"294" 0.00031140479959767 0.000416584320723485 7.74173926784204e-05 5.27684552763244e-05 0.000258315299583561 0.000191246987409308 6.06303588693913e-06 6.75610616368743e-05 -0.00018123839705362 -0.000125852440960493 -0.000171659770219366 -8.43601470649645e-05 -4.06670439547809e-05 -2.2929271833626e-05 0.000118521795440906 6.92690232129531e-05
"295" 0.000315812824853574 0.000426879783401157 8.04979200236102e-05 5.60328142769382e-05 0.000254715475799018 0.000192264801558015 6.09788470748667e-06 7.43975982830157e-05 -0.000176128044545304 -0.000122369401319625 -0.000164468419796682 -8.20427948765473e-05 -3.91840458972117e-05 -2.07096548706368e-05 0.000121938863087348 6.90802935035556e-05
"296" 0.000319856455508139 0.000436768695051953 8.42691764257913e-05 5.97951412890598e-05 0.000251426197297632 0.000193771334473814 6.57732782726353e-06 8.1724199316003e-05 -0.000170389471953529 -0.000118271981427203 -0.000156639389474849 -7.94021868960948e-05 -3.71285421750996e-05 -1.84777423110395e-05 0.000125626119076361 6.88106678252711e-05
"297" 0.000323503193812162 0.000446201460190919 8.86856043430507e-05 6.40147195214291e-05 0.000248452435283281 0.000195736845900706 7.48347593212881e-06 8.94718659126992e-05 -0.000164049645439504 -0.000113623243038036 -0.000148212682969959 -7.64949097549631e-05 -3.45397791659144e-05 -1.62449183270037e-05 0.000129562105218001 6.8448244886787e-05
"298" 0.000326722661029778 0.000455131818670737 9.37009548702831e-05 6.86518520554107e-05 0.000245797955430607 0.00019812661119544 8.78958036018497e-06 9.75734762231349e-05 -0.000157139325296579 -0.000108483994986157 -0.00013922512953172 -7.33715277588648e-05 -3.14524086293177e-05 -1.40213219913849e-05 0.000133712607424972 6.79858708047428e-05
"299" 0.000329487371384578 0.000463524713798861 9.92658433926272e-05 7.36583125331814e-05 0.000243462168950384 0.000200904136591086 1.04731810820522e-05 0.000105963424710995 -0.000149697341534106 -0.000102923593328808 -0.000129725476499726 -7.00902370000631e-05 -2.79099988230378e-05 -1.18163088436155e-05 0.000138053166875684 6.74144065244194e-05
"300" 0.000331778404916005 0.000471340309653782 0.000105321823674572 7.89885914299497e-05 0.000241442458809155 0.000204033555180659 1.25090043337967e-05 0.000114567176474116 -0.000141761673803716 -9.7016991529672e-05 -0.000119760916777778 -6.66995958044615e-05 -2.39519918631097e-05 -9.63442568035508e-06 0.000142555718902565 6.67368757523956e-05
"301" 0.000333575053850159 0.000478547527632068 0.000111805343484884 8.45901560343097e-05 0.00023973881011946 0.000207474604746167 1.48663375924628e-05 0.000123317453813147 -0.000133375449893059 -9.0836253851027e-05 -0.000109378622916394 -6.3255839671175e-05 -1.96261245912554e-05 -7.47896903338198e-06 0.000147199636231886 6.59499448514657e-05
"302" 0.000334867158063284 0.000485120303179517 0.000118656644736336 9.04117431603333e-05 0.000238349321885974 0.000211186170807989 1.752154036106e-05 0.000132141514702098 -0.000124584844615298 -8.44530172062411e-05 -9.86352894839637e-05 -5.98069602614272e-05 -1.49727755504504e-05 -5.35195657751258e-06 0.00015195733129053 6.50611459626723e-05
"303" 0.000335648955906387 0.000491039229413547 0.000125802650157305 9.6400052597018e-05 0.000237266927463326 0.000215130056200588 2.04408637097579e-05 0.000140969643488586 -0.000115434183928266 -7.79468250949755e-05 -8.75862793806704e-05 -5.64012297571665e-05 -1.00399607092004e-05 -3.25119596313016e-06 0.000156803099006174 6.40739025781936e-05
"304" 0.000335918938858558 0.000496288310256557 0.000133175561371844 0.0001025002510059 0.000236489908788994 0.000219261090446544 2.35991057511872e-05 0.000149735805032821 -0.000105977477234244 -7.13938323226361e-05 -7.62832855970452e-05 -5.30814570501461e-05 -4.87240841601192e-06 -1.17607858617648e-06 0.000161714994533408 6.30013603826438e-05
"305" 0.000335680651461855 0.000500859250144085 0.000140709256990921 0.000108659435390386 0.000236009806742535 0.000223540996891849 2.69652251636846e-05 0.000158376947739776 -9.62645369627215e-05 -6.48628174598612e-05 -6.47892589825149e-05 -4.98883980202396e-05 4.83358078112948e-07 8.83546292652532e-07 0.000166675012585319 6.18565356569718e-05
"306" 0.000334945799195349 0.000504748116335882 0.000148327265399159 0.000114823104340177 0.000235822239106127 0.000227927035443461 3.05123193431109e-05 0.000166827146768229 -8.63449981968937e-05 -5.8427680228602e-05 -5.31577318459651e-05 -4.68604763567043e-05 5.98325445163515e-06 2.9322993506094e-06 0.000171663607363327 6.06523992344364e-05
"307" 0.000333730567419398 0.000507959518626125 0.000155959320492918 0.000120942342590604 0.000235920546182298 0.000232381080986378 3.42115042823521e-05 0.00017502834870153 -7.62725146741797e-05 -5.21619431201754e-05 -4.14493751340492e-05 -4.40293690560579e-05 1.15849174381723e-05 4.98143785635447e-06 0.00017666441975107 5.94082494266571e-05
"308" 0.000332058544718185 0.000510503260773608 0.000163538758331904 0.000126963866609983 0.000236295212114461 0.000236865178521334 3.80382100611171e-05 0.000182930511341697 -6.60982889683074e-05 -4.61277328236475e-05 -2.97181247421302e-05 -4.14233385386794e-05 1.72453020738457e-05 7.03814825422193e-06 0.000181665371604565 5.81412935165269e-05
"309" 0.000329956620088668 0.000512390833225786 0.00017099227674636 0.000132842135044799 0.000236940371227854 0.000241344892014976 4.19664745913149e-05 0.000190484998314091 -5.5876716106312e-05 -4.03852019274333e-05 -1.80207553814891e-05 -3.90626764883099e-05 2.29265680465387e-05 9.11999658247494e-06 0.000186647594933381 5.68714249232104e-05
"310" 0.000327458079738691 0.000513647215117142 0.000178256511853734 0.000138533709753903 0.000237846005882609 0.000245786030667274 4.59764952429595e-05 0.000197644106044855 -4.56573559371623e-05 -3.49965215009953e-05 -6.41248373244793e-06 -3.69656623230627e-05 2.85897530187033e-05 1.12342071679279e-05 0.000191607362337134 5.56226932786544e-05
"311" 0.000324598993817991 0.000514296655200829 0.000185267075723172 0.000143994785689274 0.00023900684277764 0.000250157513186575 5.00446925364329e-05 0.000204372516245228 -3.54925100997369e-05 -3.0012825157828e-05 5.05604492706999e-06 -3.51457751767915e-05 3.41984719286029e-05 1.33994009086694e-05 0.000196533750791382 5.44129918312249e-05
"312" 0.000321426242747743 0.000514375482353081 0.00019196365332417 0.000149189082162485 0.000240410415048842 0.000254432549845729 5.4151940094867e-05 0.00021064033982492 -2.54302483592829e-05 -2.54799296711263e-05 1.63301660153983e-05 -3.36078702229457e-05 3.9726040086918e-05 1.5628166211773e-05 0.000201421960598242 5.32661416779576e-05
"313" 0.00031798702693486 0.000513915158662603 0.000198295097240487 0.00015408402342565 0.000242052859137313 0.00025858660324628 5.82831728546712e-05 0.000216421862900941 -1.55209138125428e-05 -2.1437568222748e-05 2.73661863189549e-05 -3.23528849370138e-05 4.51399564351204e-05 1.79318825925544e-05 0.000206269109058728 5.22032796474202e-05
"314" 0.000314334434407815 0.000512964954248704 0.000204206438925849 0.000158649213150147 0.000243920084952282 0.000262599569817122 6.2424503745626e-05 0.000221698426522187 -5.81116969172963e-06 -1.79219776289334e-05 3.81149579046049e-05 -3.13786882212767e-05 5.04139424506373e-05 2.03272435817588e-05 0.00021107204920008 5.12457209923456e-05
"315" 0.000310520522326289 0.000511566950415642 0.000209659868139816 0.000162863388567635 0.000246007637594173 0.000266453341151659 6.65646602009439e-05 0.000226458140611017 3.65772149025758e-06 -1.49571049053184e-05 4.85370284801081e-05 -3.06745975367763e-05 5.55313189068773e-05 2.28242344459497e-05 0.000215829126422802 5.04174111265883e-05
"316" 0.000306609691023705 0.000509772910197972 0.000214611167709391 0.000166704256571581 0.000248305324681043 0.000270135363990995 7.06907999733761e-05 0.000230694816465677 1.28367360713638e-05 -1.25718476837794e-05 5.85876882132794e-05 -3.02241272048049e-05 6.04708305142958e-05 2.5434980293562e-05 0.000220545187505679 4.97346692553148e-05
"317" 0.000302659688236476 0.00050763889084737 0.000219031314538006 0.000170162834996517 0.000250809606890747 0.000273638064093218 7.47995331938892e-05 0.000234412996137933 2.16840930900576e-05 -1.07720881023806e-05 6.82351095028242e-05 -3.00123242322951e-05 6.5220049738204e-05 2.81710291811102e-05 0.000225222856086469 4.92182053816008e-05
"318" 0.000298736202963487 0.000505218577831667 0.00022289593171151 0.000173228480677472 0.000253506427329128 0.000276953574400631 7.88876574594086e-05 0.000237618670427742 3.01640958086872e-05 -9.57098792920873e-06 7.74440531806755e-05 -3.00093958665643e-05 6.97699525082138e-05 3.10397940353164e-05 0.000229864030310075 4.88871118087497e-05
"319" 0.000294906749828904 0.000502577001719689 0.000226189060732431 0.000175897372637477 0.000256397400807789 0.000280081919722501 8.29504350028871e-05 0.000240328162643249 3.82356449823036e-05 -8.96529362164939e-06 8.61802117211801e-05 -3.01925276613666e-05 7.41143601365199e-05 3.40452629239065e-05 0.000234475630437808 4.87564322761143e-05
"320" 0.000291235452945943 0.000499767600809557 0.000228897792068435 0.000178174267927156 0.000259471037644412 0.000283026456438722 8.69914192477403e-05 0.000242558143040305 4.58640144001686e-05 -8.95691678401707e-06 9.44215280843764e-05 -3.05258765660721e-05 7.82527458948742e-05 3.71950459298436e-05 0.000239067692741641 4.88436061413018e-05
"321" 0.000287789891202829 0.000496858323811293 0.000231019802373295 0.000180063746190352 0.000262724205762077 0.000285794638556297 9.10112803955268e-05 0.000244335910348076 5.30129193865081e-05 -9.52681959412019e-06 0.00010214009237124 -3.0978253064225e-05 8.21872443350016e-05 4.04907151772008e-05 0.000243646188643479 4.91599422702044e-05
"322" 0.000284634291032714 0.000493906060137235 0.000232561820137387 0.00018158124221329 0.000266152957205195 0.000288393379595514 9.50183712896042e-05 0.000245694357910727 5.96507611925224e-05 -1.06627661404301e-05 0.000109315186207739 -3.1508336820026e-05 8.59242549702755e-05 4.39271014632358e-05 0.000248216122648413 4.97207165509454e-05
"323" 0.00028183850792643 0.00049098180193503 0.000233535095880324 0.000182740257695959 0.000269753742140798 0.000290839390945824 9.90162031023916e-05 0.000246666373168012 6.57444620690512e-05 -1.23431321305552e-05 0.000115930298243746 -3.20784811402289e-05 8.94720328158728e-05 4.75042394640794e-05 0.000252792345335373 5.05342670041085e-05
"324" 0.000279464163969487 0.000488137600637496 0.000233956876166853 0.000183565445788799 0.000273521843475993 0.000293147245548307 0.000103014719762423 0.000247292168609649 7.12670794979897e-05 -1.45370349443568e-05 0.000121968497953003 -3.26464213514711e-05 9.2847588880583e-05 5.12127177485368e-05 0.000257378280210799 5.16099269875294e-05
"325" 0.000277571221264477 0.000485438723266133 0.000233857584076972 0.000184080943395548 0.000277456380315006 0.000295338491633361 0.000107024343979447 0.000247615828130593 7.61867128694053e-05 -1.72190181174936e-05 0.000127413330850534 -3.31699587732622e-05 9.60629428963233e-05 5.50437401096833e-05 0.000261983948744132 5.29553065022714e-05
"326" 0.000276216646227413 0.00048294235474735 0.000233263760766188 0.000184313869230021 0.0002815564793798 0.000297431528170396 0.000111052193423181 0.000247679691518129 8.04804402751481e-05 -2.03482577347511e-05 0.000132258038142351 -3.36081520975799e-05 9.91400393786386e-05 5.89834571824833e-05 0.000266615723997864 5.45763331562217e-05
"327" 0.00027546195435624 0.000480702019631379 0.000232219851373916 0.000184299737741362 0.000285821040081571 0.000299452824852932 0.000115113476629125 0.000247532960192048 8.412109957276e-05 -2.38927662279931e-05 0.000136494003680448 -3.39154186634404e-05 0.000102099201397532 6.30182864160497e-05 0.000271285104499478 5.64758926179989e-05
"328" 0.00027534724177352 0.000478771729651935 0.000230761961084522 0.000184069135128924 0.000290249142799045 0.000301425243228702 0.00011921894250886 0.000247222815429663 8.70846667771313e-05 -2.7807256804012e-05 0.000140112084080797 -3.4054652817359e-05 0.000104961157960803 6.7126380062888e-05 0.000275989943175105 5.86547424875507e-05
"329" 0.000275924904613259 0.000477198796571896 0.000228947625445563 0.000183663274141055 0.000294839588581648 0.000303376053856799 0.000123379527810505 0.000246803464463011 8.93495805685651e-05 -3.20492406789552e-05 0.000143107364384972 -3.39848446354735e-05 0.000107750703175145 7.12851170680645e-05 0.00028074139919239 6.11136612329494e-05
"330" 0.00027723423595601 0.000476026873677746 0.000226823748358693 0.000183115067266608 0.000299594727665346 0.000305330129377794 0.000127608045518566 0.000246315344187399 9.08931616545335e-05 -3.65815534013497e-05 0.000145478633771379 -3.36695839246416e-05 0.000110492488689331 7.54715777101269e-05 0.000285539539975272 6.38473778291929e-05
"331" 0.000279306899033206 0.000475296845297899 0.000224447600655524 0.000182469171397842 0.000304512881997668 0.000307316886524862 0.000131913350056616 0.000245813046148133 9.16946937569349e-05 -4.13564345560943e-05 0.000147222172237071 -3.30764770203341e-05 0.000113209452442243 7.96566451844194e-05 0.000290385738526682 6.68524115026161e-05
"332" 0.000282171493162794 0.000475039151646517 0.000221877540660351 0.000181761626961943 0.000309589845054376 0.000309358477518588 0.000136303514366756 0.000245339892004346 9.17360645645189e-05 -4.63305506181937e-05 0.000148337420419431 -3.21746258258859e-05 0.000115926578816503 8.3811474593571e-05 0.000295275249397664 7.01200257255013e-05
"333" 0.000285847209756325 0.000475283632481529 0.000219170715633549 0.000181032952391968 0.000314828117448391 0.000311484532563151 0.000140792499156603 0.000244941094874745 9.09995432457453e-05 -5.1461215438106e-05 0.000148825454182069 -3.09397467606306e-05 0.000118664487555501 8.79034949743097e-05 0.000300205197615625 7.36394769813657e-05
"334" 0.000290348124274883 0.000476053202243099 0.000216394787536792 0.000180322429116096 0.00032022433679431 0.00031371249405715 0.000145382188015597 0.000244655026033509 8.94672404792067e-05 -5.67060620500366e-05 0.00014868679565827 -2.93500323939305e-05 0.000121444960272838 9.18986847988931e-05 0.000305170560587427 7.7398472976856e-05
"335" 0.000295681618545634 0.000477364518751007 0.000213603310597928 0.000179666323761952 0.000325776750301541 0.000316067404903237 0.000150078879652476 0.000244518463142454 8.71244581323328e-05 -6.20295172140302e-05 0.00014792434920497 -2.73923368733799e-05 0.000124285967652549 9.57595517401595e-05 0.000310162914308319 8.13822122800276e-05
"336" 0.000301846154745917 0.000479224896622389 0.000210858946373531 0.000179101959298398 0.000331476923852442 0.000318568441956902 0.000154884681042091 0.000244567239042109 8.39597150502293e-05 -6.73881320487599e-05 0.000146538546060194 -2.50528249212899e-05 0.000127204537204044 9.94497417969937e-05 0.000315162141880669 8.55699694388274e-05
"337" 0.000308827696164128 0.000481642247638394 0.000208222612661925 0.000178660276749998 0.000337322284236974 0.000321230112283959 0.000159797911732819 0.000244827848378615 7.99598065610016e-05 -7.27535903654829e-05 0.000144532145887688 -2.23326030654072e-05 0.000130211027228435 0.000102931145638819 0.000320161569240513 8.99434291694739e-05
"338" 0.000316614995103798 0.0004846089645671 0.00020574432499067 0.000178371702576564 0.000343300658541782 0.000324064428452338 0.000164817692260941 0.000245319068043297 7.51159298928431e-05 -7.80947943068161e-05 0.000141909380190275 -1.92307906036452e-05 0.000133316160893784 0.000106163417123125 0.000325133537755568 9.44781796641847e-05
"339" 0.000325177281953839 0.000488117990026576 0.000203484423606634 0.000178264425021616 0.000349409716254151 0.000327082270055485 0.000169935785882646 0.000246066550904128 6.94177058242484e-05 -8.33801394619566e-05 0.000138674180982028 -1.57560421174243e-05 0.000136521197744747 0.000109109197596973 0.000330060239096126 9.91468944385526e-05
"340" 0.000334482786548285 0.000492149519931618 0.000201485459962293 0.000178362527079596 0.000355631836609501 0.00033028749445432 0.000175145902359052 0.000247071885419147 6.28635785491738e-05 -8.85872120040031e-05 0.000134830938896667 -1.19249671302257e-05 0.000139828750562676 0.000111728977988273 0.00033491874369926 0.000103918595302126
"341" 0.000344490872681069 0.000496684106364608 0.000199792249583678 0.000178683390101807 0.000361952307018341 0.000333678820844902 0.000180430787001568 0.00024834887971833 5.54475891086877e-05 -9.37024046727789e-05 0.000130385220048896 -7.75707162447386e-06 0.000143235344721108 0.000113984924606528 0.000339676122792847 0.000108766836154353
"342" 0.000355149631016347 0.000501691663589694 0.000198445304387907 0.000179243421725711 0.000368356416581428 0.000337254201387619 0.000185781209791521 0.000249887398514837 4.71692256008171e-05 -9.87031705373225e-05 0.000125342034278252 -3.28071842033704e-06 0.000146728575423741 0.000115841054018751 0.000344300476314126 0.000113653746896825
"343" 0.000366404634423886 0.000507138039481144 0.000197475868442497 0.000180052947659181 0.000374825358595157 0.000341003801913411 0.000191170082758669 0.000251687290858399 3.80338114922165e-05 -0.000103582929744039 0.000119704822813571 1.46806235990704e-06 0.00015029349683587 0.000117261017165132 0.000348763163926584 0.000118545342725935
