"V1" "V2" "V4" "V5" "V7" "V8" "V10" "V11" "V13" "V14" "V15" "V17" "V18" "V20" "V21" "V23"
"1" 0.000153720502536035 -0.000564158738528787 4.89509156681269e-05 0.000445371432250167 0.000366916903158543 0.000373411813784781 0.000295173794217782 -0.000156421945362333 0.00106863051240425 -0.000242799359178124 0.00133419419998477 0.000309016413338064 0.00116463398943361 0.000681235716809188 0.000566388561220503 -0.000484680627706233
"2" 0.000152521769807657 -0.000530845330884169 5.62904262657603e-05 0.000457603467446976 0.000386326196822382 0.000381923035396427 0.000307652237430782 -0.000148361356818775 0.00106096331609249 -0.000227754180628786 0.00133020222775221 0.000317002653346042 0.0011718251899876 0.000750725808618609 0.000667286375478821 -0.000412372165329534
"3" 0.000151737135296738 -0.000496446891140473 6.13791550439935e-05 0.000466838879284176 0.000403085303490823 0.000388680282410192 0.000319253148751987 -0.000140466954795372 0.00105355958388166 -0.000211127245904837 0.00132354065581063 0.000325431748168238 0.00117800117176527 0.000816504104112157 0.000771056274286746 -0.000340474205960582
"4" 0.00015118423684465 -0.00046134879101527 6.41714342879627e-05 0.000473033152814272 0.000416951343338458 0.00039352495166006 0.000329798725500614 -0.000132822772300887 0.00104628240483158 -0.00019318250725299 0.00131414376801379 0.0003343689278698 0.00118313140727501 0.000878268311837587 0.000877440783051181 -0.000269534410010223
"5" 0.000150681525069375 -0.000425938348342468 6.46650737155704e-05 0.000476187866277302 0.00042769963053917 0.000396309627898857 0.000339107290572409 -0.00012551512896898 0.00103897756779202 -0.000174195162801421 0.00130197578853576 0.000343855058612843 0.00118717706704275 0.000935797875576731 0.00098616368363916 -0.000200113860103082
"6" 0.000150047150195928 -0.000390607895601188 6.28858290671824e-05 0.000476343445766001 0.000435138281854523 0.000396897399553937 0.000347004358836418 -0.000118639917975821 0.00103147064633078 -0.000154465811653286 0.001287018085896 0.000353933775632276 0.00119010025649813 0.000988957524157047 0.0010969343482511 -0.000132761234201072
"7" 0.000149110596714269 -0.000355732987986758 5.88870284821006e-05 0.000473580681602685 0.000439113700823573 0.000395170406639671 0.000353316956817353 -0.00011228036758649 0.00102358611021766 -0.000134292525200424 0.00126927553990281 0.000364624551398202 0.00119186314093933 0.00103767539744125 0.0012094466421602 -6.80311710490877e-05
"8" 0.000147708536695143 -0.000321683007540526 5.27585316235123e-05 0.000468017641748963 0.000439495152942919 0.000391031197208511 0.000357890386677198 -0.000106536757217475 0.00101513835864218 -0.000113977329457253 0.00124878185821702 0.000375930565091836 0.00119241976795064 0.0010819432169678 0.00132337985988639 -6.46850231442484e-06
"9" 0.000145696674609263 -0.000288799399235464 4.46185266766156e-05 0.000459805433036983 0.000436202880738706 0.00038440450326488 0.000360588740544241 -0.00010148580659393 0.00100593606947915 -9.38188774331853e-05 0.00122558297529211 0.000387841761947815 0.00119172228912712 0.00112180592093597 0.00143840470568796 5.14095652550703e-05
"10" 0.000142954598566205 -0.000257405632585082 3.46010741944422e-05 0.000449123906535686 0.000429186864446749 0.000375233679326005 0.000361282520105391 -9.72175157406613e-05 0.00099579589245048 -7.40961228805302e-05 0.00119975138025775 0.00040032884328764 0.00118970810996264 0.00115735684264173 0.00155417682641659 0.000105094339237648
"11" 0.000139376265975275 -0.000227787605764554 2.28695047774506e-05 0.00043618289602561 0.000418440125372959 0.000363491543892263 0.000359878722740045 -9.3809147760408e-05 0.000984530810010014 -5.50777094037767e-05 0.00117137624407208 0.000413346609117813 0.00118631944530337 0.00118872936166796 0.00167035021101213 0.000154120014657021
"12" 0.000134885412895812 -0.000200203038174347 9.60532946796433e-06 0.0004212127844375 0.00040399107312557 0.000349172078573459 0.000356294986431584 -9.13291846690141e-05 0.000971967684133322 -3.70127438308889e-05 0.00114056479084744 0.000426824316571698 0.00118147663551056 0.00121609381709791 0.00178656492004071 0.000198054388414621
"13" 0.000129428154215454 -0.000174871582191399 -4.99360093531472e-06 0.000404463108003986 0.000385905798379065 0.000332295148530313 0.000350484108482746 -8.98396604624479e-05 0.00095793910130827 -2.01210158258097e-05 0.00110743926994456 0.000440681291299025 0.00117510963884167 0.00123963918301247 0.0019024665105871 0.000236504798566618
"14" 0.00012297294353741 -0.000151977569666822 -2.07238408346487e-05 0.000386195176409217 0.000364293533170526 0.000312903497023061 0.000342414407750665 -8.93988965928231e-05 0.000942284840217124 -4.59758741388743e-06 0.00107213959542922 0.000454814549109446 0.00116713308892151 0.00125958311148822 0.00201768959245747 0.000269132774603131
"15" 0.000115512614357798 -0.00013166007927587 -3.73660753226402e-05 0.000366679746552534 0.000339293746993067 0.000291067387417941 0.000332084079750405 -9.00490632760083e-05 0.000924864410116749 9.38482535891844e-06 0.00103481597284068 0.000469105816554272 0.00115746426223955 0.00127616133667458 0.00213187210926664 0.000295648552739061
"16" 0.000107067284118681 -0.000114022554608374 -5.47054844783603e-05 0.000346198791725554 0.000311075969279078 0.000266872494485214 0.000319513451904221 -9.18322848250148e-05 0.000905550283908614 2.16948909106053e-05 0.000995634575386064 0.000483423899364936 0.00114601792985131 0.00128961707301209 0.0022446481663364 0.000315825441105943
"17" 9.76655324023516e-05 -9.91312112857479e-05 -7.25154350964956e-05 0.000325024233949976 0.000279841706711514 0.000240433154554051 0.000304748715483785 -9.4773542501043e-05 0.000884231866304185 3.22276913081884e-05 0.000954774127503843 0.000497620767351377 0.00113270374129988 0.00130020279043527 0.00235566045914825 0.000329497764418249
"18" 8.73640965283189e-05 -8.70124345610099e-05 -9.05854358029673e-05 0.000303431732908776 0.000245822440430802 0.000211870914268743 0.000287853760324443 -9.88985432182584e-05 0.000860817649323183 4.09094338891734e-05 0.000912421214101303 0.000511535569734033 0.00111744798774338 0.00130818060076953 0.00246455603774865 0.000336568897032519
"19" 7.62256688233345e-05 -7.76560820947888e-05 -0.000108703321239301 0.00028168843705272 0.000209263581257222 0.000181335856607357 0.000268913512223436 -0.000104219463547396 0.000835241064303246 4.76956818368836e-05 0.000868778489972419 0.000524997871943851 0.00110017351751265 0.00131380183961383 0.00257097378157856 0.000337001619137183
"20" 6.43248364411954e-05 -7.10243345818863e-05 -0.000126671107695277 0.000260045331023683 0.000170430136511915 0.00014897656756379 0.000248026339011348 -0.000110745001672577 0.000807449701093132 5.25730985794504e-05 0.000824051902318056 0.00053782806034289 0.00108080952821798 0.001317322692907 0.00267457501138248 0.000330824538757726
"21" 5.17462278469159e-05 -6.70471051027052e-05 -0.000144304929087473 0.000238739966049231 0.000129601701905117 0.000114964246955705 0.000225310534219532 -0.000118479428612134 0.000777421424344655 5.55539966139474e-05 0.000778462798421791 0.000549838949202158 0.00105930940084182 0.00131898581766335 0.00277501943908775 0.000318138032517109
"22" 3.85759415029457e-05 -6.56291060547768e-05 -0.00016143029978219 0.000217993161297661 8.7067270806016e-05 7.94697087905371e-05 0.00020089003781684 -0.000127417957983617 0.000745157881485353 5.66832668178903e-05 0.000732236790276871 0.00056083870401509 0.0010356218909111 0.00131902612376166 0.00287198014838517 0.000299100342309832
"23" 2.49070608036199e-05 -6.66558578951947e-05 -0.00017790113238924 0.00019800507616746 4.31182578121834e-05 4.26707973510953e-05 0.00017490342775847 -0.000137553580858058 0.000710687679328882 5.60205436481309e-05 0.0006856097319693 0.000570636849502477 0.00100972172590528 0.00131766166086642 0.00296513687993071 0.000273929126476017
"24" 1.08206275622494e-05 -6.99947242167241e-05 -0.000193587224951305 0.000178946003747797 -1.95389149369003e-06 4.74821123119043e-06 0.000147492258851551 -0.000148878717615794 0.000674069016433751 5.36522563998007e-05 0.000638826110614204 0.000579028750074012 0.000981602517288136 0.00131508755948168 0.00305418307107606 0.00024289883033074
"25" -3.60212245951931e-06 -7.54994499532867e-05 -0.000208386285741854 0.000160963745950517 -4.78695182355952e-05 -3.41152658856953e-05 0.000118801791274317 -0.000161379574730467 0.000635389019989555 4.96786999218642e-05 0.000592131358918372 0.000585827970166899 0.000951268968273809 0.00131148444990897 0.00313883169762553 0.000206339811687105
"26" -1.82850942914513e-05 -8.30178382700032e-05 -0.000222212203835672 0.000144178899218672 -9.4346725784901e-05 -7.37446195121167e-05 8.89803952958384e-05 -0.00017504297565703 0.000594768194823945 4.42226212230042e-05 0.000545784395608543 0.000590840275875626 0.000918747643792224 0.00130700856418157 0.00321879945908209 0.000164627741719119
"27" -3.31628889708217e-05 -9.23880541302802e-05 -0.000235010044467623 0.000128680026765963 -0.000141128135178905 -0.000113965643472505 5.8174498427245e-05 -0.00018985198338847 0.00055235882136126 3.74077709936108e-05 0.000500046221268927 0.000593877826220897 0.000884088861300893 0.00130178404408044 0.00329382225351993 0.000118182300097278
"28" -4.818748624395e-05 -0.000103454278362297 -0.000246757966183978 0.000114526229507506 -0.00018796809360875 -0.000154612691855663 2.65289246358106e-05 -0.000205791116374721 0.000508342955168531 2.9372869300291e-05 0.000455180760656189 0.000594757010117831 0.000847358416925978 0.00129590641159694 0.00336366028399076 6.74541490093752e-05
"29" -6.33126421195728e-05 -0.000116054584271944 -0.000257446929486823 0.000101747860298867 -0.000234637042336401 -0.000195525336548921 -5.81501226710484e-06 -0.000222840950824384 0.000462945045514961 2.02632033877001e-05 0.000411455338225882 0.000593310740164393 0.000808650520921278 0.00128944221186648 0.00342807893841745 1.29344840182399e-05
"30" -7.85156787783389e-05 -0.000130041690823876 -0.000267104982130102 9.03404580985284e-05 -0.000280935174637871 -0.000236556623716284 -3.8722944773188e-05 -0.000240985832710714 0.000416421606417105 1.02217741128765e-05 0.00036914123216225 0.000589368968895523 0.000768067036533141 0.00128242570432576 0.00348687555037487 -4.486908039718e-05
"31" -9.3775680212395e-05 -0.000145270043140461 -0.000275787566847666 8.02717243710948e-05 -0.000326685505693627 -0.000277565820428485 -7.20667425098379e-05 -0.000260204378965974 0.000369065859099081 -6.08390375462572e-07 0.00032851233421516 0.000582781233955888 0.000725747710810313 0.00127485401804756 0.00353986461774677 -0.000105424742892566
"32" -0.000109097296557357 -0.000161605846379399 -0.000283563539135122 7.14801317004693e-05 -0.000371736252052163 -0.000318426046577417 -0.000105723489205062 -0.00028047918462704 0.00032121012522354 -1.20815708052325e-05 0.000289839477363993 0.000573407365333484 0.00068183972671387 0.00126669842276885 0.00358687433811918 -0.000168184297308679
"33" -0.000124485890041931 -0.000178926293261339 -0.000290537290446512 6.38738216588113e-05 -0.000415957392926953 -0.000359013523743195 -0.000139582078709963 -0.000301786822041478 0.000273219909946747 -2.40725692339798e-05 0.000253390681776311 0.000561119561047885 0.000636512932012633 0.00125790253368577 0.00362776518437018 -0.000232588511152277
"34" -0.000139967488625253 -0.000197119275053502 -0.000296830541310453 5.73370269984217e-05 -0.000459257391064258 -0.000399222722963724 -0.000173529519502024 -0.000324103019993466 0.000225494642530971 -3.64490621059053e-05 0.000219432093634633 0.000545797952851105 0.000589956291004504 0.0012483781012273 0.00366241325728082 -0.000298070837468274
"35" -0.000155569310296363 -0.00021608337577795 -0.000302578725633781 5.17306251011104e-05 -0.000501558879049215 -0.000438950663331099 -0.000207469443663587 -0.000347399159402356 0.000178470208169791 -4.90956440393019e-05 0.000188224934161306 0.000527348752269911 0.00054237385718903 0.0012380072057224 0.0036907187021818 -0.000364058611233674
"36" -0.000171332144242169 -0.000235727642417922 -0.000307945029463297 4.68920549623913e-05 -0.000542810154935171 -0.000478110304752004 -0.000241303876973837 -0.000371641606403961 0.000132606639044005 -6.19073948074551e-05 0.000160018924260382 0.000505691031239625 0.000493984308408168 0.00122665816108376 0.00371261233444512 -0.000429979611226873
"37" -0.000187299192565863 -0.000255971224355411 -0.00031308559959501 4.26440567547201e-05 -0.000582985954655262 -0.000516613354572703 -0.000274943367268892 -0.000396789030005922 8.83894865191539e-05 -7.47849815857108e-05 0.00013505311208365 0.000480759403163277 0.0004450180430449 0.00121417270465919 0.00372803954849273 -0.000495256973886868
"38" -0.000203514269900422 -0.000276740096267918 -0.000318183078679133 3.87962782859952e-05 -0.000622066444867805 -0.000554383416799089 -0.000308294300647349 -0.000422791836229991 4.63079738747009e-05 -8.76459832723951e-05 0.000113546302232385 0.000452525101348537 0.000395722887242324 0.00120039164902187 0.00373698112845238 -0.000559319041018681
"39" -0.000220024219669024 -0.000297956589226172 -0.000323412296771941 3.51495553333637e-05 -0.000660048160160047 -0.000591339106589303 -0.000341273456558257 -0.000449585468952468 6.85766134337767e-06 -0.000100401266987383 9.56986552168163e-05 0.000420975027712277 0.000346348439843329 0.00118513434404398 0.00373943510637209 -0.000621591299074932
"40" -0.000236875405325506 -0.000319544760841846 -0.000328936980777951 3.1505090180644e-05 -0.000696920493856409 -0.000627408551418577 -0.000373784203184952 -0.000477088766446465 -2.94878750549978e-05 -0.000112972179546525 8.16782477945807e-05 0.000386146294355364 0.000297155591201362 0.00116823137178668 0.00373543406322413 -0.000681510294875272
"41" -0.000254099913194933 -0.000341418596582034 -0.000334923936568737 2.76678210889867e-05 -0.000732668894544524 -0.000662513314957745 -0.000405730025182985 -0.000505202736203285 -6.22928902641857e-05 -0.000125273080604868 7.1610691891479e-05 0.000348108447509987 0.000248404746110486 0.00114951562457287 0.00372503863449045 -0.000738508210746943
"42" -0.000271729539191764 -0.000363473956107335 -0.000341508236370339 2.34582444049592e-05 -0.000767251633987088 -0.000696564455733864 -0.000437003266769568 -0.000533795778582627 -9.11786642898339e-05 -0.000137198276368097 6.55863796734115e-05 0.000306994845240399 0.000200366318041263 0.00112882535478448 0.00370833944461422 -0.000792028368601021
"43" -0.000289777688966377 -0.000385590439434606 -0.000348802058331212 1.8714725877401e-05 -0.000800597370125729 -0.000729475578395048 -0.00046748253741168 -0.000562711208417642 -0.000115862414005731 -0.000148632963208285 6.36292534598633e-05 0.000262996465953362 0.000153303101274921 0.00110602621054494 0.00368547016621725 -0.000841522586819856
"44" -0.000308244605118524 -0.000407612011069488 -0.000356876271240328 1.3308834930558e-05 -0.000832587429364403 -0.000761142116802097 -0.000497033921749595 -0.000591749266803388 -0.000136168364728779 -0.000159427288174956 6.56970580997866e-05 0.000216383056198797 0.000107476499872265 0.00108099907489271 0.0036565859357714 -0.000886442262900646
"45" -0.000327119621570124 -0.000429355715883744 -0.000365768720809111 7.14139011510729e-06 -0.00086304882451379 -0.000791448565215388 -0.000525498616340742 -0.000620676306117213 -0.000152060832701114 -0.000169400691279032 7.16773558983442e-05 0.000167502186902148 6.31395821672048e-05 0.00105365516689817 0.00362188888802036 -0.000926253197263539
"46" -0.000346367250533478 -0.00045059349786926 -0.000375464914760553 1.58502901111883e-07 -0.000891744153846014 -0.000820267413680877 -0.000552701422540373 -0.000649217419252219 -0.000163649210393715 -0.000178323897749143 8.13810995591779e-05 0.000116791548306355 2.05432627072678e-05 0.00102392790115661 0.00358160433499952 -0.000960438172597009
"47" -0.00036594040065393 -0.000471074804540073 -0.00038590837872568 -7.65678226911378e-06 -0.000918389923854394 -0.000847456238258948 -0.000578450752599742 -0.000677054225094623 -0.00017119150917457 -0.000185946075557481 9.45358873354958e-05 6.4765237475646e-05 -2.00787058166511e-05 0.00099179762120824 0.0035360047040494 -0.000988485765818975
"48" -0.000385770452667623 -0.000490509366340105 -0.000396994792030418 -1.62839475334422e-05 -0.000942635055836503 -0.000872861920488593 -0.000602539347764742 -0.000703846839843157 -0.00017506236507845 -0.00019196876359399 0.000110814193116764 1.20030475260945e-05 -5.85036122000715e-05 0.000957254411170641 0.00348536407427764 -0.001009919383247
"49" -0.000405773048923958 -0.000508603397071617 -0.000408591387257617 -2.56737990890466e-05 -0.000964123128353642 -0.000896327621346411 -0.00062475159979324 -0.000729231547510541 -0.000175718767327705 -0.000196096224229212 0.000129838284719494 -4.08728161909204e-05 -9.45273880651645e-05 0.000920344073661675 0.00342999652301066 -0.00102429876550907
"50" -0.000425851991440707 -0.000525062546586528 -0.00042055400153952 -3.57675984157365e-05 -0.000982496763425548 -0.00091769749089452 -0.000644874956901298 -0.000752855859791237 -0.000173621234187593 -0.000198037868670484 0.000151216750193834 -9.32423585468574e-05 -0.000127954275315665 0.000881131612227776 0.0033701921478142 -0.00103122233321772
"51" -0.000445900078949127 -0.00053961961570748 -0.000432733681579742 -4.65072542528824e-05 -0.000997446318039495 -0.000936819592971641 -0.000662710282279962 -0.000774385512510755 -0.000169163193772981 -0.000197535104367636 0.000174574247715661 -0.000144526568590198 -0.000158609142105556 0.000839718558276527 0.00330623402850169 -0.00103035599949592
"52" -0.000465808191278431 -0.00055206744926439 -0.000445009486114112 -5.78584829255293e-05 -0.00100874709161814 -0.000953566672000287 -0.00067808998383791 -0.00079352989372325 -0.000162591759421138 -0.000194409726953416 0.000199582152331054 -0.000194219872484611 -0.000186334270227901 0.000796225064632498 0.00323837554631812 -0.00102143477671482
"53" -0.000485453811382457 -0.000562251597229847 -0.000457293955356831 -6.9814766092717e-05 -0.00101628262311245 -0.000967829670168581 -0.000690872005456677 -0.000810070585143354 -0.000153951570054912 -0.00018854849252177 0.000225988586851053 -0.000241940209000302 -0.000210997749769817 0.000750792851124957 0.00316682034800057 -0.00100428098663167
"54" -0.000504728113057142 -0.000570102560541159 -0.000469539567023097 -8.24157716399988e-05 -0.00102005770132927 -0.000979528482620156 -0.000700965529156522 -0.000823848821610733 -0.000143071063441361 -0.000179952511880366 0.000253615935441859 -0.00028741971439939 -0.00023247388169354 0.000703564531718072 0.00309172402555826 -0.000978804583415203
"55" -0.000523515590719024 -0.000575621823012191 -0.000481741374694257 -9.57291711804834e-05 -0.00102019421912819 -0.000988610560684185 -0.000708312715551396 -0.0008347777126096 -0.000129576013112445 -0.000168693825609434 0.000282370496317276 -0.000330515565082805 -0.000250671773191938 0.000654663761789034 0.00301319753508779 -0.000945014456359812
"56" -0.00054171162517228 -0.000578866785257013 -0.000493919666872666 -0.00010984779621144 -0.00101690625522925 -0.000995049277763778 -0.000712890684573277 -0.00084283142871096 -0.000112951180021777 -0.000154920695153945 0.000312206343271816 -0.000371178872794998 -0.000265518532388962 0.000604194813914692 0.00293131849351747 -0.000903010573136953
"57" -0.00055921057629988 -0.000579952296223041 -0.000506117591978924 -0.000124877124533613 -0.00101047300893547 -0.000998836357214451 -0.000714709536413589 -0.000848026728261822 -9.26070943707458e-05 -0.000138826592268614 0.000343112640584994 -0.000409425038139162 -0.000276966860880954 0.000552205511142344 0.00284613137323022 -0.000852994280594385
"58" -0.000575915899119925 -0.000579009672190539 -0.00051837214990777 -0.000140912068888069 -0.00100119725909152 -0.000999983052510662 -0.000713798187151038 -0.000850408171459689 -6.79685517147003e-05 -0.000120629873855398 0.000375075464057469 -0.000445294156835115 -0.000285000672284597 0.000498707024870676 0.00275768658497328 -0.000795247310066397
"59" -0.000591741372410624 -0.00057619860284271 -0.000530710018348229 -0.000158031873884104 -0.000989389036518321 -0.000998514741537221 -0.000710197782307168 -0.000850035614390583 -3.85392360767503e-05 -0.000100548594238709 0.000408054642632456 -0.000478818749036995 -0.000289634606821223 0.000443644574706957 0.00266603549160399 -0.000730146580677202
"60" -0.00060660949863395 -0.000571669519864804 -0.000543145439635824 -0.000176284322735104 -0.000975330434615176 -0.000994462988672641 -0.000703962240443167 -0.000846978704188355 -3.94249721827091e-06 -7.87793326029812e-05 0.000441967104553572 -0.000510015719231724 -0.000290910135768467 0.000386923517800223 0.00257124765421315 -0.000658140908129711
"61" -0.000620449246378308 -0.000565581647999361 -0.000555657240507862 -0.000195689277070119 -0.000959281388984178 -0.000987876233826855 -0.000695154518676426 -0.000841303533326207 3.60410285900154e-05 -5.55056140484942e-05 0.000476679048367409 -0.000538859276655986 -0.000288904840822193 0.000328406032369298 0.00247341555271624 -0.000579768322687122
"62" -0.000633206818835213 -0.000558087590296811 -0.000568211162045753 -0.000216226538732123 -0.000941466641946697 -0.000978810778353578 -0.00068384441740848 -0.000833081542756349 8.14712661403449e-05 -3.0885841175318e-05 0.000512007582976159 -0.000565293714720692 -0.000283722911471185 0.000267937549013975 0.0023726557398563 -0.000495643674816818
"63" -0.000644842610883676 -0.000549337287103535 -0.00058074704286808 -0.000237853206630857 -0.000922079516008609 -0.000967332504799139 -0.000670111635952323 -0.000822378605116369 0.000132259332915509 -5.05568084826636e-06 0.000547716565498151 -0.000589228790763455 -0.000275503366547449 0.000205368177662378 0.00226912476799289 -0.000406445046119118
"64" -0.000655331134793831 -0.000539486518310953 -0.000593197006185178 -0.000260493443781542 -0.000901300585419717 -0.000953529811036306 -0.000654049358762036 -0.000809282656714166 0.000188184720794724 2.18585436762512e-05 0.000583538066906231 -0.00061055503099079 -0.000264406864784196 0.000140567933857395 0.00216299433549288 -0.000312926966959598
"65" -0.000664667063726371 -0.000528695171992992 -0.000605480609373988 -0.000284054938380668 -0.000879287268553155 -0.000937500374421474 -0.000635769344996205 -0.000793878254733787 0.000248910754358941 4.97367780758093e-05 0.000619171318107399 -0.000629155586276945 -0.000250629847973441 7.34589829494403e-05 0.00205446964438876 -0.000215907880947741
"66" -0.00067286218929239 -0.000517130686311564 -0.00061751218262139 -0.000308426061910053 -0.000856195567472244 -0.000919358827023493 -0.000615389946654243 -0.000776270243236165 0.000314008290817837 7.84563028952761e-05 0.000654298954349496 -0.000644912991536995 -0.000234388997831456 4.03455529421475e-06 0.00194377545637168 -0.000116258697714546
"67" -0.000679940135480163 -0.000504963956548956 -0.000629207140803807 -0.000333484614199292 -0.000832181770269968 -0.000899239632170843 -0.000593057189321337 -0.000756584958261554 0.000382985336758183 0.00010789094045336 0.000688590694843812 -0.000657726771309863 -0.000215924637333918 -6.76318755542334e-05 0.001831165969466 -1.48982176468235e-05
"68" -0.000685942765041413 -0.000492384794147928 -0.000640486549262905 -0.000359097561502716 -0.000807402664440243 -0.000877296318653507 -0.000568925769632004 -0.000734961434307945 0.000455291082520864 0.000137901547892082 0.000721723437191767 -0.000667512347230652 -0.000195493596730458 -0.000141375058513391 0.00171691183721364 8.7216297680347e-05
"69" -0.000690922064813568 -0.000479574239016906 -0.000651273906917935 -0.000385120492699773 -0.00078202749490112 -0.000853692378792579 -0.000543172335067983 -0.000711563539332428 0.000530342657403264 0.000168337202494916 0.000753372660824592 -0.000674215823518522 -0.000173373061607696 -0.000216925600238325 0.00160130645975956 0.000189104141055057
"70" -0.000694945216452403 -0.000466731391514437 -0.000661496975417785 -0.000411410423999561 -0.000756224258699917 -0.000828610428238312 -0.000515984248099899 -0.000686565215383963 0.000607526101411434 0.000199025190119957 0.000783231217485015 -0.000677810384269222 -0.000149857196079741 -0.000293909299986984 0.00148466020474898 0.000289774925540706
"71" -0.00069807734498972 -0.000454043955805804 -0.000671086007805586 -0.000437812294970008 -0.000730168102321622 -0.000802243827801118 -0.000487560599730139 -0.000660161203807012 0.000686218388737038 0.000229784288963977 0.00081100653706066 -0.00067830330096818 -0.000125242709004643 -0.000371870691225307 0.00136730165248395 0.000388243208597644
"72" -0.000700395231291724 -0.00044169980199954 -0.000679982581492945 -0.000464165937285797 -0.000704037543570438 -0.000774790827122645 -0.000458112304728801 -0.000632561574836349 0.000765786954970032 0.000260420525049765 0.000836425912054124 -0.000675740522847966 -9.98397824586858e-05 -0.000450255212425419 0.00124957859526208 0.000483536825159667
"73" -0.00070197316948281 -0.00042987107212347 -0.000688126075572492 -0.00049031619755159 -0.00067801387119776 -0.000746460159221228 -0.000427854417647858 -0.000603979114950023 0.000845597471233375 0.000290723816791302 0.000859238158586746 -0.000670199486275743 -7.3960103045882e-05 -0.000528437404551568 0.00113185758650742 0.000574721311210992
"74" -0.000702879494909336 -0.000418718676008675 -0.000695453902323705 -0.000516087127788097 -0.000652260567847084 -0.000717462677211077 -0.000397000256103419 -0.000574638864383062 0.000925022403208005 0.000320480127753752 0.000879222418084834 -0.000661789870516145 -4.79141627992025e-05 -0.000605735457752391 0.00101450443137872 0.000660898311819852
"75" -0.000703178808853653 -0.000408379866013779 -0.000701915006675356 -0.000541312833204593 -0.000626947117880308 -0.000688006139527919 -0.000365767158384481 -0.000544763996441578 0.00100344099021769 0.000349470899926089 0.000896175262288064 -0.000650654513706706 -2.20145060138825e-05 -0.00068141666112651 0.000897924622398138 0.000741232286808987
"76" -0.000702922013460111 -0.000398971758778473 -0.000707448665393464 -0.00056581778164288 -0.000602223060428832 -0.000658296896228836 -0.000334361516098171 -0.000514573667299146 0.00108024685587089 0.000377477841865934 0.000909923552157178 -0.000636964756132724 3.4393413617136e-06 -0.000754729460974581 0.000782513737515632 0.000814955469643083
"77" -0.000702150235496858 -0.000390575139577094 -0.000711994437346504 -0.000589424487149483 -0.000578218826052023 -0.000628529568827381 -0.0003029848104276 -0.000484278256203568 0.00115484327242983 0.000404284354819264 0.000920316815020006 -0.000620913588913503 2.81537483411436e-05 -0.000824900584669664 0.000668691538288701 0.000881385865507197
"78" -0.000700891448361557 -0.000383249302629296 -0.000715492091002861 -0.000611954221362498 -0.00055505268939712 -0.000598893908290029 -0.000271824649988818 -0.00045408363480277 0.0012266659997881 0.00042968741173087 0.000927235755779746 -0.000602723593130616 5.18445932890018e-05 -0.000891172741971787 0.000556876519128815 0.000939922416438741
"79" -0.00069915312369504 -0.000377017037810911 -0.000717879056495533 -0.00063323131389931 -0.000532819860348969 -0.000569565117398787 -0.000241050463279487 -0.000424170332884001 0.00129515930175819 0.000453490705641584 0.000930578879722613 -0.000582625525871366 7.42438856561371e-05 -0.000952806946392726 0.000447503726542167 0.000990061932301123
"80" -0.000696925982160582 -0.000371859485862012 -0.000719086127905715 -0.000653076732208302 -0.000511585361554606 -0.000540700050293152 -0.000210816117670405 -0.000394709437784848 0.00135980681573532 0.000475519519609043 0.000930277502911598 -0.000560877896125349 9.50983538074466e-05 -0.00100910210096991 0.000340995702344341 0.00103139066098656
"81" -0.000694185192557383 -0.000367742343866496 -0.000719053802250181 -0.00067132404797955 -0.000491403434186703 -0.00051244158245069 -0.000181255184120563 -0.000365843606870908 0.00142011379937915 0.000495613973562985 0.00092627313609521 -0.000537734632089685 0.000114175897254262 -0.00105940799606165 0.000237802956082267 0.00106360938307074
"82" -0.000690888947443375 -0.00036458542966742 -0.000717713605834906 -0.000687811441171677 -0.000472299780247618 -0.000484916088570275 -0.00015247610399815 -0.000337698627900449 0.00147562514671178 0.00051364617034908 0.000918546215716817 -0.000513469840014387 0.000131259561248985 -0.00110314336448172 0.000138345698182066 0.00108650168574701
"83" -0.00068697087974141 -0.000362281034483037 -0.000715005062766682 -0.000702385765310908 -0.000454272105594499 -0.000458227284845816 -0.000124570892735653 -0.000310369312128873 0.00152591837013173 0.000529509452502966 0.000907084947428062 -0.00048835456454942 0.000146159318717379 -0.00113978843684643 4.30649125562998e-05 0.00109995998682972
"84" -0.000682359827101693 -0.000360697027319246 -0.000710877168236041 -0.00071491257711222 -0.000437304020753768 -0.000432461211725404 -9.75983669674338e-05 -0.000283928749524957 0.00157061467117558 0.000543123403242377 0.000891905516117372 -0.000462658491181303 0.000158698878148292 -0.00116891843568543 -4.76200453576456e-05 0.00110396552351766
"85" -0.000676964358038739 -0.00035967953032715 -0.00070527617252928 -0.00072527094932753 -0.000421359376681805 -0.000407687119137941 -7.16037621939709e-05 -0.000258419826498118 0.00160937752862411 0.000554445025662657 0.000873040648032682 -0.000436651185659288 0.00016872437093719 -0.00119018835936299 -0.000133296150247497 0.00109859043862714
"86" -0.000670683662279313 -0.000359051416945872 -0.000698157427193505 -0.000733355441198192 -0.000406385343627852 -0.000383948705855234 -4.66009684463361e-05 -0.000233859743784003 0.0016419158581487 0.000563458905513448 0.000850547345313252 -0.000410592848629816 0.000176114497248658 -0.0012033533625575 -0.000213564978168418 0.00108398762936173
"87" -0.000663404574770244 -0.000358622406858174 -0.000689493405016979 -0.000739086680952605 -0.000392306730065024 -0.000361278621070161 -2.25874738056059e-05 -0.000210244333269644 0.00166798974462022 0.000570178391311935 0.000824498991486572 -0.000384733007826179 0.000180756655004827 -0.00120826354797682 -0.000288045933554805 0.00106038999358423
"88" -0.000655017163122156 -0.000358194310296359 -0.000679261664560036 -0.000742401663302339 -0.000379048669747753 -0.000339687937442041 4.58475466613385e-07 -0.000187536990866699 0.00168741275017749 0.000574655642285782 0.000794990249918085 -0.000359314667573348 0.000182573264057734 -0.0012048651616384 -0.000356389407480709 0.00102809534563203
"89" -0.000645399084599886 -0.000357557962321724 -0.000667448903571381 -0.00074325868881852 -0.000366515167935847 -0.000319170623879977 2.25781543394568e-05 -0.000165692267415676 0.00170004938779497 0.000576971120047378 0.000762140915204352 -0.00033455668939372 0.000181505013105899 -0.0011932055445286 -0.000418274595560789 0.000987466513084062
"90" -0.000634438808314643 -0.000356507331779152 -0.000654055019627774 -0.000741638169526373 -0.000354608587163881 -0.000299714659145056 4.38275895239761e-05 -0.0001446318786106 0.00170581469264507 0.000577228677672295 0.00072609133899188 -0.000310668011549858 0.000177521038092494 -0.00117341481410474 -0.000473409051487667 0.000938922853536521
"91" -0.00062201980955462 -0.000354837296597918 -0.000639088704721766 -0.000737537094101001 -0.000343221443102697 -0.000281284840439083 6.42688026919407e-05 -0.000124274028223106 0.00170469151021409 0.000575558242938518 0.000687007617701028 -0.000287837306023787 0.000170617889002143 -0.00114572011863136 -0.00052155703259386 0.00088292232231356
"92" -0.000608042079772532 -0.000352353798132102 -0.000622565209900622 -0.000730966114402531 -0.000332246655032972 -0.000263846055238265 8.39715526697773e-05 -0.000104520638453031 0.00169670690650211 0.000572123391745952 0.000645085234112068 -0.000266230474677315 0.000160813865764527 -0.00111042057955843 -0.000562524090281297 0.000819967216603557
"93" -0.000592410914585869 -0.000348863980081622 -0.000604499998951856 -0.000721947608810342 -0.00032156799788856 -0.000247344506004677 0.000103013546337382 -8.52613541512468e-05 0.00168194748509688 0.000567088002685292 0.000600543626473738 -0.00024598897916576 0.000148163980247828 -0.00106788836314337 -0.000596175043404078 0.000750592077682244
"94" -0.000575050421152436 -0.000344197504863924 -0.000584922947269258 -0.00071051638869538 -0.00031107256898117 -0.000231728288644112 0.00012146255079303 -6.63896028927096e-05 0.00166055825043496 0.000560649797958459 0.000553638424900055 -0.000227240340349687 0.000132747916495633 -0.00101856254111063 -0.000622437014729721 0.000675353361728067
"95" -0.000555892902825373 -0.000338189544760633 -0.000563855082791055 -0.000696707090754086 -0.00030064323555939 -0.000216933934787615 0.000139389652556927 -4.77905922492105e-05 0.00163273224141426 0.00055299918443105 0.000504649669466883 -0.000210082147906669 0.000114674927340372 -0.000962931560211592 -0.000641302282036042 0.000594832097731379
"96" -0.000534896515591975 -0.000330701740201403 -0.000541315558788549 -0.000680557452620091 -0.000290159065730495 -0.000202898349113671 0.000156857631036533 -2.93506040058279e-05 0.00159871642591283 0.000544342898553359 0.000453897491031411 -0.0001945890560368 9.40919608025303e-05 -0.000901532457744736 -0.000652843919061822 0.000509622589465744
"97" -0.00051203291214572 -0.000321600769214148 -0.000517325698043684 -0.000662105557354052 -0.000279504143463261 -0.000189548643100122 0.000173918225547295 -1.09658525141577e-05 0.00155881245806729 0.000534890541391619 0.00040172837134085 -0.000180811760735842 7.11691089660785e-05 -0.000834945315230832 -0.000657206541125048 0.000420337472773594
"98" -0.000487299897101487 -0.000310788960651933 -0.000491894224998357 -0.000641386470326445 -0.000268567204034915 -0.00017682145180627 0.000190614978912263 7.46372631315503e-06 0.00151336487672196 0.000524845822482287 0.000348518932318205 -0.000168783973002571 4.61078857075868e-05 -0.000763787981839134 -0.000654615339578549 0.00032759195787885
"99" -0.000460705838991338 -0.00029817603359789 -0.000465035804553289 -0.000618436373878539 -0.00025722905777312 -0.000164641168242958 0.000206974896069988 2.60340697276834e-05 0.0014627680468877 0.000514408978696956 0.000294672745145609 -0.000158505651687512 1.91369144681958e-05 -0.000688708881849506 -0.00064536641794843 0.000232015442025041
"100" -0.000432286309226599 -0.000283694805446579 -0.000436756439782853 -0.000593284143241141 -0.000245383261493943 -0.000152937620093221 0.000223025414875855 4.48278275494134e-05 0.0014074603029135 0.000503772848788464 0.00024061282523116 -0.00014996592755182 -9.49119218718974e-06 -0.000610394320262052 -0.000629842171791825 0.000134245961716121
"101" -0.000402092989188696 -0.000267303071792087 -0.000407061366049906 -0.000565971101592029 -0.000232930913703199 -0.000141638805606664 0.000238768990733506 6.39240743128009e-05 0.00134792436305623 0.000493126578312721 0.000186786536485107 -0.000143125054706766 -3.95026623412594e-05 -0.0005295638152586 -0.000608483006421036 3.49217893348325e-05
"102" -0.00037019871281363 -0.000248975891218239 -0.000375969915561353 -0.00053653805719706 -0.000219774627093518 -0.000130671285240922 0.000254216335402083 8.33935774489105e-05 0.00128467412863888 0.000482638624055487 0.00013364203235535 -0.000137935332729838 -7.0608960997258e-05 -0.000446973497586254 -0.000581795045557004 -6.53100694227998e-05
"103" -0.000336687038900613 -0.000228713758782269 -0.000343491807569085 -0.00050504051841592 -0.000205838961824436 -0.000119966724727093 0.000269357005394069 0.000103294510793548 0.00121826660172487 0.000472472918785198 8.16356334488149e-05 -0.000134322081769715 -0.000102511102501133 -0.000363418072847649 -0.000550348417492 -0.000165803010232366
"104" -0.000301657675638564 -0.000206537482774594 -0.000309665260340019 -0.000471543673037643 -0.000191050491753827 -0.00010945249777617 0.000284184970846159 0.00012368333562565 0.00114929307297037 0.000462774077831439 3.12250422775535e-05 -0.000132199769326373 -0.000134908043785191 -0.000279730209659261 -0.000514751023536142 -0.000265901464606503
"105" -0.000265229602797094 -0.000182487982642726 -0.000274530424673816 -0.000436138381256901 -0.000175364484201426 -9.9055897488341e-05 0.000298691809671776 0.00014460872427398 0.00107836452540876 0.000453679024534935 -1.71537889106161e-05 -0.000131474762609122 -0.000167489824277475 -0.000196775661573085 -0.000475656934105456 -0.000364954070160991
"106" -0.000227530297707748 -0.000156629501241875 -0.000238150560961306 -0.000398936534146023 -0.000158752134070706 -8.87121951818643e-05 0.000312864132280635 0.000166116865366013 0.00100612410763037 0.000445304733757235 -6.30747450051913e-05 -0.000132038190977817 -0.000199958111094996 -0.000115453638940852 -0.000433746844415485 -0.000462303168507662
"107" -0.000188695328097832 -0.000129050734068033 -0.000200611636472147 -0.000360077678316293 -0.00014119459885189 -7.83520678769625e-05 0.000326692511919363 0.000188246016035539 0.000933232103708921 0.000437757313488405 -0.000106134304112698 -0.000133772179062369 -0.00023201737949483 -3.66895162367403e-05 -0.000389727600603252 -0.00055729881606727
"108" -0.000148871921177123 -9.98566291529685e-05 -0.000162020611091204 -0.000319726812754128 -0.000122714146174478 -6.79107307983716e-05 0.000340169912534262 0.00021103503450645 0.000860360459610216 0.000431119345490978 -0.000145967290837179 -0.000136551950574941 -0.000263395891865962 3.85860369384697e-05 -0.000344316572219975 -0.000649291379458871
"109" -0.000108218907642916 -6.91747322316828e-05 -0.000122506710058035 -0.000278081668158097 -0.000103334989254189 -5.73256235772995e-05 0.000353292803058248 0.000234517161109268 0.000788184368522338 0.000425466839449489 -0.000182243111015158 -0.000140249214844393 -0.000293825732244086 0.000109436822375072 -0.000298239735505968 -0.000737649958302427
"110" -6.68999816338619e-05 -3.71565833911094e-05 -8.22311766662859e-05 -0.000235372604217027 -8.31232107565746e-05 -4.65445334881438e-05 0.000366061361992253 0.000258720913135777 0.000717376570552292 0.000420847234157107 -0.000214668965111703 -0.000144726168086118 -0.000323067688138614 0.000174948792889988 -0.000252217073940915 -0.000821743206584295
"111" -2.50879875013647e-05 -3.9678311999667e-06 -4.13697041579848e-05 -0.00019185508751681 -6.21637214623471e-05 -3.55100400430313e-05 0.000378476959785323 0.000283675563629848 0.000648607229514462 0.000417307850511042 -0.000242998902222294 -0.000149852349467715 -0.000350901781355319 0.000234246456634673 -0.00020697621506413 -0.000900980464856872
"112" 1.70395643483271e-05 3.02055931853139e-05 -1.3098915817724e-07 -0.000147812006550066 -4.05532012575064e-05 -2.41806702309588e-05 0.000390542654616305 0.000309398608980382 0.000582514452724948 0.000414863262336403 -0.000267043173123223 -0.000155477049175783 -0.000377138467370761 0.000286513147873734 -0.000163209162800523 -0.000974779928102617
"113" 5.92894669407168e-05 6.51640722667113e-05 4.12634360892901e-05 -0.000103549986601517 -1.84254674909533e-05 -1.25211231911866e-05 0.000402267833854465 0.000335911949162605 0.000519712467381505 0.000413526589368952 -0.000286654856483343 -0.000161458182323848 -0.000401607362495798 0.000331019926291451 -0.000121602243412962 -0.00104259678521766
"114" 0.000101473416545317 0.00010068967039366 8.25758767318846e-05 -5.93928969234163e-05 4.08604369540748e-06 -4.99417594764904e-07 0.000413660972350071 0.000363229278792438 0.000460771287016217 0.000413286580188518 -0.000301751078350203 -0.000167645644969184 -0.00042417083469227 0.000367130222551011 -8.28155820477729e-05 -0.00110392802932116
"115" 0.00014339184852832 0.000136554603893281 0.000123544879168596 -1.56857958507886e-05 2.68127672589331e-05 1.18980648230967e-05 0.000424726890471102 0.000391355006815787 0.000406216534491942 0.00041412686377509 -0.000312297946944658 -0.000173891543095824 -0.000444715979196804 0.000394337729316575 -4.7471136989058e-05 -0.00115830539851931
"116" 0.000184835270549368 0.000172521827957072 0.000163908846638458 2.72249513632358e-05 4.95867287305178e-05 2.46813663442595e-05 0.000435476587612713 0.000420288274949792 0.000356508235211117 0.000416012644119902 -0.000318320370975863 -0.000180031357341905 -0.000463161187158521 0.000412266495520397 -1.61635673297983e-05 -0.00120531859347801
"117" 0.000225596296395318 0.000208342847465516 0.000203399257797977 6.89849038246071e-05 7.22251377252528e-05 3.78454181041896e-05 0.000445911320153999 0.000450024728030417 0.000312040160378422 0.000418901472684603 -0.000319900543244734 -0.000185907954877791 -0.000479447132730291 0.00042068545236907 1.05576501264276e-05 -0.00124460926092245
"118" 0.000265458676098016 0.000243767612200398 0.000241737268095407 0.000109242200106981 9.45393043756418e-05 5.13722536329646e-05 0.00045603517076206 0.000480542097807041 0.000273139219069591 0.000422743693204161 -0.000317174616561395 -0.000191363005169905 -0.000493550957704092 0.000419516353058754 3.2177048567942e-05 -0.00127588455737376
"119" 0.000304201012756233 0.000278536711039651 0.000278651229474819 0.00014764884494379 0.00011632812130426 6.52304348918946e-05 0.000465840931715978 0.000511816845661309 0.000240051112272707 0.000427468634519078 -0.000310329750035361 -0.000196231855718324 -0.000505468318062097 0.000408826024578785 4.82340488383744e-05 -0.00129891455557213
"120" 0.000341606712423256 0.000312392220210247 0.000313875419286482 0.000183872476719526 0.000137397944068155 7.937731792656e-05 0.000475321543758332 0.000543802131289539 0.000212946948076422 0.000433008214073649 -0.000299598940775729 -0.000200355876812746 -0.000515222161801291 0.000388820396065606 5.83156739199641e-05 -0.00131353710943884
"121" 0.00037745117643619 0.000345077677553668 0.000347144731059292 0.000217589223512068 0.000157540315201316 9.3755575744322e-05 0.000484456253505458 0.000576444944730807 0.000191928490847789 0.000439279105337391 -0.000285259406532166 -0.000203583050550564 -0.000522860620144411 0.000359829977528163 6.20535258149295e-05 -0.00131966376353394
"122" 0.000411515786373146 0.000376333401929586 0.000378210678513129 0.000248501910233379 0.000176550692252001 0.00010829351265624 0.00049322003260191 0.00060966698800151 0.000177021093873491 0.000446192972886619 -0.000267624342746806 -0.000205773324483533 -0.000528453676894029 0.000322297569115569 5.91390531839108e-05 -0.00131728124535142
"123" 0.000443583389001984 0.000405906547939943 0.000406832094850535 0.000276331583037158 0.000194222366469268 0.000122906321880629 0.000501581313973009 0.000643379658726729 0.000168189089920789 0.000453638925646569 -0.000247032814334024 -0.000206798501902118 -0.00053209414338555 0.000276748932743777 4.93151349246087e-05 -0.001306443097884
"124" 0.000473441037497406 0.000433552025566456 0.000432790214356865 0.000300827834552067 0.00021034716200575 0.000137494646269005 0.00050948936729148 0.000677469347778252 0.000165333124588878 0.000461508793269512 -0.000223851458795233 -0.000206552564289754 -0.000533886783379257 0.000223778108134466 3.23788438002975e-05 -0.00128728536132989
"125" 0.000500887902082981 0.000459025561026973 0.000455878557499548 0.00032177128495742 0.000224717847865499 0.000151949781140152 0.000516898862374215 0.000711804932111951 0.000168304713918569 0.00046967614591779 -0.000198461469388213 -0.000204952160825752 -0.000533961114168098 0.000164028642326163 8.18221374453072e-06 -0.00126000729471892
"126" 0.000525730748089578 0.000482103577495866 0.000475911213368949 0.000338971291269608 0.000237131054999062 0.000166149770512139 0.000523741160168203 0.000746230985424487 0.000176891289600576 0.000478012936043681 -0.000171262024080248 -0.000201933094869544 -0.00053245461005869 9.81598268627779e-05 -2.33594873049334e-05 -0.00122487776270443
"127" 0.000547794037777552 0.000502574706997041 0.00049272697874778 0.000352281134653752 0.000247397594317492 0.000179964614720527 0.000529951414519428 0.000780578844044976 0.000190842866975341 0.000486374350034129 -0.000142654316021878 -0.000197461029271284 -0.000529519405237318 2.68557455120693e-05 -6.22795052905533e-05 -0.00118222646829622
"128" 0.000566914916304364 0.000520248869402087 0.000506195669952671 0.000361587918079311 0.000255336839304262 0.000193262968624733 0.000535455106948494 0.000814660973960385 0.000209845548606572 0.000494622472618703 -0.000113049388269528 -0.000191522886814347 -0.000525322303678478 -4.92073707245949e-05 -0.000108545341454979 -0.00113244230537655
"129" 0.000582948575777109 0.000534958507322445 0.000516211202947696 0.000366823114029028 0.000260781475909136 0.000205900379333768 0.000540173887852469 0.000848278724849494 0.000233541131574019 0.000502609150451443 -8.28575258876069e-05 -0.000184126216820001 -0.000520026592518976 -0.000129353161079834 -0.000162064595421358 -0.00107596204288548
"130" 0.00059577997800153 0.000546565422362762 0.000522701614769141 0.00036796237065127 0.00026360055697322 0.000217741343399443 0.000544034287016553 0.000881221990731872 0.000261523768137722 0.000510198312813975 -5.24840805530365e-05 -0.000175307153747684 -0.000513819066788463 -0.000212914768007635 -0.000222681649014158 -0.00101326816182706
"131" 0.000605305560477622 0.000554967286962902 0.000525629466520576 0.000365026919009021 0.000263673328040387 0.000228640747303686 0.000546953041183602 0.00091326848507844 0.000293334657692959 0.000517248683113418 -2.23386023548103e-05 -0.000165112194449509 -0.000506872435124311 -0.000299232528110286 -0.000290175251191143 -0.000944877836253799
"132" 0.000611459505601392 0.000560089360808759 0.000524996402895172 0.000358084158823356 0.000260918567523691 0.000238467345677722 0.000548858920524129 0.000944197309526731 0.000328471440941844 0.000523633300065164 7.18544694750062e-06 -0.000153612514331933 -0.000499373267751478 -0.000387639094486638 -0.000364261518833769 -0.000871336741242922
"133" 0.000614195737439454 0.000561901074428061 0.0005208349632905 0.000347245493440551 0.000255292881251226 0.000247090827720229 0.000549683395909112 0.000973789295613031 0.000366390113181657 0.000529227294899861 3.56991895627851e-05 -0.000140891093625892 -0.000491498233001192 -0.000477471099378981 -0.000444593755112355 -0.00079320907906903
"134" 0.000613503668425439 0.00056040706915482 0.000513212623068208 0.000332666769625814 0.000246772893191153 0.000254388615405269 0.000549365285331041 0.00100182293414067 0.000406512475688608 0.000533921235264322 6.2835179244168e-05 -0.000127054449338149 -0.000483427858362838 -0.000568054467801935 -0.000530761276938566 -0.000711079804482986
"135" 0.000609396443167962 0.00055564965419177 0.000502236867756791 0.000314543900129361 0.000235375912970049 0.000260250709472209 0.000547847487037891 0.00102808118285847 0.000448235999048661 0.0005376134957681 8.82401728051025e-05 -0.000112216612490387 -0.000475329443122524 -0.000658701149830568 -0.000622293372213072 -0.000625538480988962
"136" 0.000601915438881111 0.000547707779492241 0.000488043639199977 0.000293107128166979 0.000221159947119089 0.000264578062537321 0.000545089320445731 0.00105235670093066 0.000490934552725768 0.000540207838205942 0.000111586552816939 -9.65155896204526e-05 -0.000467370591648999 -0.000748706248404511 -0.000718660452422988 -0.000537180152117521
"137" 0.000591137795732978 0.000536699979901815 0.000470799360174967 0.00026862501798065 0.000204203325120392 0.000267287146367207 0.000541053191314972 0.0010744551970272 0.000533976185340999 0.000541627990473362 0.000132570888674617 -8.00965495464398e-05 -0.000459705534429491 -0.000837354996146365 -0.000819280291198562 -0.000446589848112642
"138" 0.000577169382736541 0.000522781487810759 0.000450704156905827 0.000241395116934216 0.000184627869752108 0.000268310485538292 0.00053571957805936 0.00109419095103152 0.000576734014632103 0.000541803693098726 0.000150923001471573 -6.312621946759e-05 -0.000452472321587164 -0.00092391966996728 -0.000923520109983343 -0.00035435893068457
"139" 0.000560133932983563 0.000506135733684468 0.000427976680127115 0.000211736908575616 0.000162574350722434 0.00026759247619404 0.000529077688350698 0.001111399379634 0.000618573660536911 0.000540666253583473 0.000166402046070939 -4.57754454683115e-05 -0.000445803896205611 -0.00100766003468151 -0.00103069335247969 -0.000261055402704378
"140" 0.000540191881046846 0.000486978424202047 0.000402857750991326 0.000179990179854015 0.000138221173682699 0.000265101477164091 0.000521126495328535 0.00112592608126753 0.000658893031374912 0.000538174952177438 0.000178807798067502 -2.82338571935321e-05 -0.000439812353515584 -0.00108784820797576 -0.0011400910075114 -0.000167246123765102
"141" 0.000517521351463039 0.000465552802997102 0.000375613496907248 0.000146512644684912 0.000111765691806024 0.000260816104492213 0.000511883837912563 0.00113764679294849 0.000697102636597953 0.000534281870553623 0.000187970754902268 -1.06979362206689e-05 -0.000434602424137826 -0.00116375366239493 -0.00125095520632877 -7.34771391171495e-05
"142" 0.000492329975969193 0.000442126862842139 0.000346523593911248 0.000111671018069538 8.34283795191631e-05 0.000254741572083462 0.000501379808731488 0.00114644963931653 0.00073264636111899 0.000528964046306939 0.000193758092309818 6.62978525789662e-06 -0.000430249349098856 -0.00123466668847401 -0.00136250481674845 1.97166292930708e-05
"143" 0.000464839205869498 0.00041698505105625 0.00031587745130156 7.58396652439597e-05 5.34519604193798e-05 0.000246896839297299 0.000489649902836869 0.00115225234240141 0.000765004572207182 0.000522200286543084 0.000196086155744947 2.35440221809396e-05 -0.000426827868448743 -0.00129990699382776 -0.0014739413866692 0.000111815031284068
"144" 0.000435288976134305 0.000390431303851451 0.000283972118250702 3.93907628681851e-05 2.20927640640479e-05 0.000237318371700905 0.000476752042276739 0.00115499799163221 0.000793699726303469 0.000513983306523619 0.000194898912500573 3.98377317816605e-05 -0.000424380512093583 -0.00135882707860356 -0.00158445643559105 0.00020231503030636
"145" 0.000403936640231305 0.000362779223430727 0.000251113654760517 2.69371259157257e-06 -1.03792593369095e-05 0.000226063795456983 0.000462752075311306 0.00115465510084137 0.000818292798869083 0.000504314440193487 0.000190176840086455 5.53068044201986e-05 -0.000422945830830222 -0.00141082162588717 -0.001693228275041 0.00029072423237152
"146" 0.000371046897707901 0.000334353479013674 0.000217612717105461 -3.3885135598115e-05 -4.36763160778055e-05 0.00021320861029851 0.000447725774317664 0.00115121610292575 0.000838400316233151 0.000493215282586561 0.000181944076447604 6.97534913902153e-05 -0.000422540256723569 -0.00145534818336138 -0.00179945003662838 0.000376564815459647
"147" 0.000336901406637459 0.000305481432990252 0.000183771571680796 -6.99950690302859e-05 -7.75114126344935e-05 0.00019883834478724 0.000431764811769669 0.0011447036730943 0.000853687377933849 0.00048070861863245 0.000170255939195796 8.2981213701076e-05 -0.000423162975632046 -0.00149192178258502 -0.00190232665547764 0.000459372808439291
"148" 0.00030177856182985 0.000276490281120481 0.000149889618226613 -0.000105297797759795 -0.000111588615475493 0.0001830627126196 0.000414966724864189 0.00113516581494272 0.0008638725246671 0.000466838562363361 0.000155203404285491 9.48195805972768e-05 -0.000424806533844334 -0.00152012538459186 -0.00200108549862338 0.000538694356178437
"149" 0.000265963416340728 0.000247702508151268 0.000116264469278611 -0.000139478888424978 -0.000145613163081683 0.000165996735532198 0.000397437175502948 0.00112267592853962 0.000868732988429092 0.000451651724107654 0.000136898680382001 0.000105097933715788 -0.00042744270662689 -0.00153961688061648 -0.00209497858260922 0.000614081576457853
"150" 0.000229746281040519 0.000219437603986935 8.31786220315495e-05 -0.000172237961886927 -0.00017929151216699 0.000147774742870125 0.000379293871881446 0.00110733948548215 0.000868097886690929 0.000435211786831722 0.000115495944284769 0.000113672526135225 -0.000431035471162501 -0.00155013366132466 -0.00218329962405398 0.000685098922435138
"151" 0.000193401409905142 0.000191996961944629 5.08982459326385e-05 -0.000203305702333118 -0.000212338324336908 0.000128536727482749 0.000360654772156638 0.00108927439208705 0.000861857629327076 0.000417594581115628 9.11674689729804e-05 0.00012041207992793 -0.000435536837428472 -0.00155150435248168 -0.00226538600103324 0.000751310972157668
"152" 0.000157208110628899 0.000165670631970132 1.96806143586696e-05 -0.000232436791343652 -0.000244472250439085 0.000108429659640073 0.00034164466475122 0.00106863203007302 0.000849957569071431 0.000398884453762465 6.41103695355984e-05 0.000125212684688501 -0.000440891636122379 -0.00154363317968964 -0.00234062802482374 0.000812298437969623
"153" 0.000121434949995987 0.000140730302129189 -1.02392412055991e-05 -0.000259409406924676 -0.000275431679319161 8.76131346105986e-05 0.00032239297726596 0.00104557353210932 0.000832397909876346 0.00037917406464255 3.45394602831812e-05 0.000127985354980597 -0.0004470407022006 -0.00152652885894916 -0.00240847977630648 0.000867643294584718
"154" 8.63358076321637e-05 0.000117429875357231 -3.86484457971061e-05 -0.00028403936117611 -0.000304959459106676 6.62472851112107e-05 0.000303024940882804 0.0010202819516908 0.00080923713067139 0.000358564157497942 2.69411602302493e-06 0.000128669902530823 -0.000453911254097798 -0.00150027841658448 -0.00246844669441585 0.000916935386094369
"155" 5.21537250271725e-05 9.59951006859875e-05 -6.5343606633484e-05 -0.000306165363857073 -0.00033282390070792 4.44935184334802e-05 0.000283671192768866 0.000992958730863479 0.000780585109913114 0.000337171108423965 -3.11750212500393e-05 0.000127229151950723 -0.000461435003997161 -0.00146506646726231 -0.00252011583049651 0.000959778160087213
"156" 1.91189844684918e-05 7.66327235706847e-05 -9.01587666989872e-05 -0.000325663936408225 -0.00035880592426206 2.25167691387053e-05 0.000264451602067761 0.000963813237317213 0.000746604434168844 0.000315105623882673 -6.68034099914451e-05 0.000123652685416042 -0.000469534283421683 -0.00142116550657731 -0.00256314141416999 0.000995782690551703
"157" -1.25642102349505e-05 5.95168600518005e-05 -0.000112943626131412 -0.000342437744468393 -0.000382710160597078 4.80181956404896e-07 0.000245491203515571 0.000933068787582896 0.000707498838869107 0.000292490068933531 -0.000103921327552983 0.000117946872013299 -0.000478135535301955 -0.00136893871475905 -0.0025972492797799 0.00102457278130566
"158" -4.2698830564327e-05 4.48002934491754e-05 -0.00013357399785031 -0.000356420180622096 -0.000404365165416008 -2.14581868117652e-05 0.000226899769386893 0.000900945816513032 0.00066352684648042 0.000269444839941301 -0.000142245728646953 0.000110153447813581 -0.000487160800806257 -0.0013088316663402 -0.00262225367875341 0.00104578843070772
"159" -7.11169141903904e-05 3.26031420328672e-05 -0.000151940362436416 -0.000367574404628778 -0.000423618586029692 -4.31439613820798e-05 0.000208782813764783 0.00086768060366583 0.000614984000122596 0.000246100000996262 -0.000181487629402512 0.000100327125509898 -0.000496534124164412 -0.00124137871910377 -0.00263804293596022 0.00105908680878302
"160" -9.76691196114705e-05 2.30174152027122e-05 -0.000167971939188468 -0.000375894917047936 -0.000440347746428529 -6.44315707296276e-05 0.000191242902364263 0.000833503259995314 0.000562197340399175 0.000222573230245178 -0.000221363226666976 8.85532145287014e-05 -0.000506184458371611 -0.00116718747859996 -0.00264458333236508 0.00106415697287559
"161" -0.000122226167421921 1.61089628972181e-05 -0.000181609210140078 -0.000381396315809573 -0.000454454254325349 -8.51794539737656e-05 0.000174361366832991 0.000798646248139741 0.000505535372164435 0.000198987844553408 -0.000261580214202747 7.4935014957554e-05 -0.000516037214632853 -0.00108694751021752 -0.00264192375962785 0.00106071815769888
"162" -0.00014468226177868 1.19162594132902e-05 -0.00019282150579429 -0.000384123901765521 -0.000465861549419404 -0.00010525745514605 0.000158214257301011 0.000763337930335672 0.000445386134232099 0.000175459408333561 -0.000301858816707945 5.9592912808427e-05 -0.00052602629800624 -0.00100140520353578 -0.00263018623862117 0.00104852805229123
"163" -0.000164959822000436 1.04426916578098e-05 -0.000201597242302595 -0.000384145565914192 -0.00047451728821558 -0.000124548619610846 0.000142864645424189 0.000727797677339558 0.000382169257246532 0.000152097748741945 -0.000341912663786196 4.26721576447386e-05 -0.000536083027778276 -0.000911375530022431 -0.00260957334990455 0.00102738742950015
"164" -0.000182997977001119 1.16734103982278e-05 -0.000207942886609583 -0.000381546150555661 -0.000480403781895367 -0.000142941908559584 0.000128359001119236 0.000692237451031618 0.00031631305064227 0.000129005130702458 -0.000381467754832627 2.43285652767262e-05 -0.000546147006378338 -0.000817730742297903 -0.00258036028321542 0.000997156112975596
"165" -0.000198763343316712 1.55647428098159e-05 -0.000211892635448445 -0.000376435767169855 -0.000483516619854992 -0.000160345996250592 0.000114733058643593 0.00065686333897264 0.00024826933932135 0.000106279358942498 -0.000420260949457996 4.73121445008662e-06 -0.000556161331971125 -0.00072138817803826 -0.00254289456753783 0.000957738381485048
"166" -0.000212241780461332 2.20479685626705e-05 -0.000213491725616252 -0.000368938407955688 -0.000483880845014743 -0.000176673926791912 0.000102004442092219 0.000621867665357656 0.000178490204199506 8.39945228834409e-05 -0.000458033494033581 -1.59339178052876e-05 -0.000566070488237678 -0.000623302450171647 -0.0024975867068587 0.000909124498418126
"167" -0.000223444560727884 3.10315503535845e-05 -0.000212807859135558 -0.000359194236792339 -0.00048154367671277 -0.000191857793060396 9.01837863073679e-05 0.0005874304762313 0.000107433970551999 6.22274490422255e-05 -0.000494549733485949 -3.74721403055587e-05 -0.000575822191879575 -0.00052445758051892 -0.00244491315333462 0.000851364053221811
"168" -0.000232401808628203 4.24022361666184e-05 -0.000209923035195054 -0.000347354544630455 -0.000476580265568063 -0.000205843184144337 7.92558438528731e-05 0.000553710832612467 3.55593083055757e-05 4.1030168473343e-05 -0.000529579207968451 -5.96843978579672e-05 -0.000585374050713394 -0.000425867297158673 -0.00238540795984386 0.000784590046774872
"169" -0.000239169269121246 5.60297167389288e-05 -0.000204934174809555 -0.000333589575473651 -0.000469079078932594 -0.000218590374014986 6.91994956317752e-05 0.00052086595043778 -3.66873245165715e-05 2.04524046963392e-05 -0.00056291482307479 -8.23657855298451e-05 -0.000594682367728851 -0.000328542050472839 -0.00231965391920237 0.000709018867844203
"170" -0.000243819215540782 7.17603066485672e-05 -0.000197956244119105 -0.000318073653185075 -0.000459156744757764 -0.000230069484809247 5.99789422387763e-05 0.000489026971022909 -0.000108859083379715 5.20570752264033e-07 -0.000594366132150742 -0.000105305393032063 -0.00060371104775116 -0.00023350365602421 -0.00224828316305146 0.000624958694482823
"171" -0.000246442277337489 8.94286043279152e-05 -0.000189122870504599 -0.000300995187986208 -0.000446944497885963 -0.000240270960599874 5.15414962022908e-05 0.000458313638791217 -0.000180533935115704 -1.87455249299717e-05 -0.000623766876096366 -0.000128294867958296 -0.00061243079569271 -0.000141751018406701 -0.00217196268675511 0.000532802922451337
"172" -0.000247151297008327 0.000108853301644565 -0.000178571806095046 -0.000282547830519081 -0.000432596965761848 -0.000249196111531532 4.3831600215239e-05 0.000428830852225286 -0.000251304633492534 -3.73450576493216e-05 -0.000650966323368399 -0.000151129602127407 -0.000620811844637023 -5.42699705926171e-05 -0.00209139596502836 0.000433042722042862
"173" -0.000246071158327054 0.000129841062656375 -0.000166459137604502 -0.000262934405482125 -0.000416284176960535 -0.000256859104638716 3.67723121359368e-05 0.000400660143450651 -0.000320785603527742 -5.52851294447309e-05 -0.000675849343446873 -0.00017360137337999 -0.000628834224317069 2.80033423429789e-05 -0.00200730713808786 0.000326256115123439
"174" -0.00024334326000268 0.000152180673464015 -0.000152955405696254 -0.000242363117076559 -0.000398188859625137 -0.000263289968143263 3.02834028593695e-05 0.000373876465000392 -0.000388619776485148 -7.2584872630052e-05 -0.000698316780398284 -0.000195513741389933 -0.000636481974232451 0.000104168854390785 -0.00192044742981038 0.000213113514091998
"175" -0.000239124573381116 0.000175660117742514 -0.000138242032479832 -0.000221048049032919 -0.000378518497413082 -0.000268530108958358 2.42762662371308e-05 0.000348525688854038 -0.000454475011509898 -8.92756063850663e-05 -0.000718297052238357 -0.000216680198170143 -0.000643748259505395 0.000173399057847301 -0.00183157526698413 9.43629041341952e-05
"176" -0.000233579078786408 0.000200056035801805 -0.000122511019149626 -0.000199205770866692 -0.000357484515817543 -0.00027263543948085 1.86529424279259e-05 0.00032465257883264 -0.000518055154452739 -0.000105395840837888 -0.000735747218177384 -0.000236917724673297 -0.000650627897269876 0.000234929464206462 -0.00174145734769113 -2.91658969929666e-05
"177" -0.000226889391905679 0.000225137099493606 -0.000105962850075553 -0.000177057961687882 -0.000335313809566232 -0.00027567396791835 1.33144785429622e-05 0.000302273862993407 -0.000579096616299151 -0.000121001429586738 -0.000750658699243945 -0.000256052745436834 -0.000657122136086089 0.000288101935326129 -0.00165085102357098 -0.000156574905649042
"178" -0.000219237476609992 0.000250671066110067 -8.88085637726106e-05 -0.000154826422363923 -0.000312247915987246 -0.000277722684312109 8.15422670614704e-06 0.000281394405125186 -0.000637366893166983 -0.000136136784026514 -0.000763037727856903 -0.000273934321020484 -0.000663243434868701 0.000332331700549894 -0.00156050762027906 -0.000286918049927587
"179" -0.000210821994291684 0.000276421645493352 -7.12688304573116e-05 -0.000132733650615167 -0.000288531762592917 -0.000278871588109117 3.06586251723722e-06 0.000262008846316095 -0.000692676401048004 -0.000150865954229067 -0.000772927474711997 -0.000290415602653871 -0.000669004966358861 0.000367165912765761 -0.00147115337328696 -0.000419193232422249
"180" -0.000201836088278168 0.000302152316885278 -5.35667354773072e-05 -0.000111000765111161 -0.000264412416094927 -0.000279218791766005 -2.06155280565953e-06 0.000244089661065309 -0.000744878292083007 -0.00016524926937692 -0.00078039411791054 -0.000305369762408347 -0.000674425168160167 0.000392250333332849 -0.00138349423903641 -0.000552368278830328
"181" -0.000192479993681524 0.000327631426038224 -3.59337464721461e-05 -8.98418751762354e-05 -0.000240155114390533 -0.000278869962675508 -7.33179247742324e-06 0.00022759694139602 -0.000793850743214188 -0.000179347085046011 -0.000785526843996594 -0.000318682062059034 -0.000679532010382104 0.000407359730477646 -0.00129819891161649 -0.000685400423279074
"182" -0.000182961647142836 0.000352627246401819 -1.85986746319176e-05 -6.947110457754e-05 -0.000216010159261547 -0.000277942473763739 -1.2852990551254e-05 0.000212483137253539 -0.000839523137015098 -0.000193223838928837 -0.000788440150954424 -0.000330261226906562 -0.000684351097007657 0.000412398279555836 -0.00121588945261216 -0.000817231772750026
"183" -0.000173477866126702 0.000376912767731474 -1.79372195797612e-06 -5.00927815431135e-05 -0.000192243327409944 -0.000276556859004714 -1.87271255836871e-05 0.000198677378788752 -0.000881850413081924 -0.000206936826520307 -0.000789274414000294 -0.000340023900967141 -0.00068892326594312 0.000407393870556134 -0.00113714523465015 -0.000946827391350066
"184" -0.000164222298286256 0.000400274070580184 1.42526435652632e-05 -3.19027756112018e-05 -0.000169104061841161 -0.000274836254727972 -2.50484044446002e-05 0.000186107937383998 -0.000920836133438706 -0.000220542555752975 -0.000788177633098103 -0.00034791204009011 -0.000693277866940633 0.000392500941021098 -0.00106248320960198 -0.00107316629351085
"185" -0.000155391467712441 0.000422502216108597 2.93144899240247e-05 -1.50813696222919e-05 -0.000146847647654606 -0.000272910805466664 -3.19099123821255e-05 0.000174687093130156 -0.000956508524106172 -0.000234096486539589 -0.000785329014395639 -0.000353881881551154 -0.000697455302457431 0.000367997011701806 -0.000992366071562463 -0.00119527398073104
"186" -0.000147160129998983 0.000443406213936271 4.31769534741802e-05 1.99825689524811e-07 -0.000125711408060344 -0.000270908823624592 -3.93932928300307e-05 0.000164311519631024 -0.000988923994400236 -0.000247641870828803 -0.000780906892382703 -0.000357913865797931 -0.000701496952888288 0.000334268460936199 -0.000927188342442742 -0.00131222687593783
"187" -0.000139709328370918 0.000462799872704569 5.56302164115016e-05 1.37857718864637e-05 -0.00010593694858317 -0.000268963809290221 -4.75752778311622e-05 0.00015487500100248 -0.00101817990287768 -0.000261216222954979 -0.00077510716838519 -0.000360004867265235 -0.000705442356076756 0.000291810611508785 -0.000867265287961522 -0.0014231646667242
"188" -0.00013319384187414 0.000480519696118759 6.64795929647361e-05 2.55391785209579e-05 -8.77430622408912e-05 -0.000267203052021768 -5.65193165768379e-05 0.00014626597828378 -0.00104438563422962 -0.000274857152060368 -0.0007681306779532 -0.000360171505157206 -0.000709327631115209 0.000241206966240603 -0.000812841339345922 -0.00152728685608924
"189" -0.000127760135335242 0.00049641358333701 7.5546006115087e-05 3.53473540059489e-05 -7.13315277053951e-05 -0.000265749806524083 -6.62810582826709e-05 0.00013835526756716 -0.00106767801904873 -0.000288583822441921 -0.000760183448609676 -0.000358449825021418 -0.000713194082978008 0.000183119287235748 -0.000764079259155463 -0.00162388688277079
"190" -0.000123536998199863 0.000510354152785502 8.26662235837114e-05 4.31082663845906e-05 -5.68967535980984e-05 -0.000264724320567104 -7.69017753804744e-05 0.000131024587344497 -0.00108820876518303 -0.000302419153628261 -0.000751467105716181 -0.000354891522925729 -0.000717072638461063 0.000118282706971828 -0.000721052507633085 -0.00171232361097281
"191" -0.000120633755827454 0.000522228931807614 8.76961783326851e-05 4.87525964226711e-05 -4.46071442557934e-05 -0.000264242190076449 -8.84136251604011e-05 0.000124136747725388 -0.00110614296589036 -0.000316370726320711 -0.000742188624407387 -0.00034957598607236 -0.000720990983344417 4.74743845452533e-05 -0.000683760991136489 -0.00179205794740694
"192" -0.000119143206442486 0.000531952635231539 9.05157822940884e-05 5.22273054573517e-05 -3.46077310488451e-05 -0.000264404082011047 -0.000100829011997895 0.000117559456353083 -0.00112165872738291 -0.000330435403256505 -0.000732540085215688 -0.000342592698032901 -0.000724975369052752 -2.84860695470953e-05 -0.000652114330386486 -0.00186262744036806
"193" -0.00011913324498693 0.000539456132055029 9.10276901378542e-05 5.35058462669647e-05 -2.70268096381084e-05 -0.000265304485627752 -0.000114154572690431 0.000111171082424137 -0.00113494054839589 -0.00034461123377442 -0.000722712670832897 -0.00033404698685653 -0.000729043847765024 -0.000108756630573918 -0.000625941812688185 -0.00192365590858745
"194" -0.000120654461443195 0.000544697866277002 8.91588099089124e-05 5.25878267593715e-05 -2.19649430329691e-05 -0.000267023292384358 -0.000128377153853559 0.000104837316807806 -0.00114617672683137 -0.000358879899690113 -0.000712887498591742 -0.000324059465248327 -0.000733206402824616 -0.000192481382381291 -0.000604990207990363 -0.00197485630178056
"195" -0.000123726631864749 0.000547662071192293 8.48613838081307e-05 4.94980237370983e-05 -1.94839764637311e-05 -0.000269627103208363 -0.000143466038816466 9.84390985772205e-05 -0.00115555797576755 -0.000373215682671519 -0.000703227906697384 -0.000312767791017703 -0.000737468865830774 -0.000278810809133489 -0.0005889326266715 -0.00201602459356668
"196" -0.000128354005350732 0.000548355684688148 7.81205317726726e-05 4.4283484629543e-05 -1.96340760080023e-05 -0.000273166017006623 -0.000159380596874705 9.18622406407915e-05 -0.00116327193031957 -0.000387586301011997 -0.000693892742061297 -0.000300314685790227 -0.000741825736865586 -0.000366896136223827 -0.000577368087288587 -0.00204702905728609
"197" -0.000134505995508879 0.000546812520018502 6.89507028298869e-05 3.70184344906806e-05 -2.24189979848499e-05 -0.000277676238663073 -0.000176059839116805 8.50072490663646e-05 -0.00116951036127972 -0.000401948098315939 -0.000685014183903777 -0.000286849954477518 -0.000746264385215531 -0.000455910289605442 -0.000569839338517528 -0.00206781038457109
"198" -0.000142139232091101 0.00054309113236379 5.73871350711261e-05 2.78002414935881e-05 -2.78237894761655e-05 -0.00028316989277854 -0.000193424955119279 7.777748708878e-05 -0.00117445205920066 -0.000416253067686533 -0.000676717543501281 -0.000272536325986059 -0.0007507662206487 -0.000545056878328973 -0.000565821434993438 -0.00207838272821716
"199" -0.000151178944939044 0.000537272488700185 4.35020191079948e-05 1.67501593931303e-05 -3.57899468784193e-05 -0.00028964866841456 -0.000211387990836743 7.01003459590847e-05 -0.00117827290799206 -0.000430440654449204 -0.000669109938651232 -0.000257532536450835 -0.000755302692516771 -0.000633563020908589 -0.000564751437750906 -0.00207882704936943
"200" -0.000161524010400441 0.000529464684774455 2.73933024514556e-05 4.01147305535945e-06 -4.62298149422642e-05 -0.000297089485810203 -0.000229838275821368 6.1913249607749e-05 -0.00118113796882849 -0.000444443677469863 -0.000662279403577145 -0.000242002817571796 -0.000759836199653253 -0.000720695670932807 -0.000566030828385639 -0.00206927231756027
"201" -0.000173058872192356 0.000519795245600057 9.18605274748139e-06 -1.02561038907294e-05 -5.90332771063104e-05 -0.000305451119382328 -0.000248655690368515 5.31718553457673e-05 -0.00118320761974714 -0.000458187879484196 -0.000656293769136816 -0.000226104802678835 -0.000764323715303151 -0.000805764598414174 -0.0005690407010082 -0.00204992068948562
"202" -0.000185644925314802 0.00050841540943322 -1.09642147435978e-05 -2.58753057189998e-05 -7.40521586245812e-05 -0.000314672513291267 -0.000267701903945691 4.38486089186859e-05 -0.00118462605338453 -0.000471593693396373 -0.000651209446877981 -0.000209994858939921 -0.00076871194595132 -0.000888116634635243 -0.000573151429501879 -0.00202101098053606
"203" -0.000199118226374726 0.000495492080802489 -3.28862068500236e-05 -4.26517957212195e-05 -9.1109681256816e-05 -0.000324675429439615 -0.000286828285551438 3.39402579302343e-05 -0.00118551976151148 -0.000484567866077018 -0.00064705865497182 -0.000193827067636302 -0.000772941986783108 -0.000967149555411944 -0.000577733672357823 -0.0019828311256715
"204" -0.000213300750397293 0.000481211622676986 -5.6376987443148e-05 -6.03782970196271e-05 -0.000110004482457579 -0.000335362765720797 -0.000305876592547431 2.34558034817612e-05 -0.00118601004493693 -0.000497019574184793 -0.000643855448703777 -0.000177738158399826 -0.000776948886552889 -0.00104230723311648 -0.000582181596230387 -0.00193572225717099
"205" -0.000227998157801805 0.000465773038938496 -8.121684284563e-05 -7.88366649385959e-05 -0.000130502747739898 -0.000346616520311876 -0.000324670900544329 1.24308889217707e-05 -0.00118619721915514 -0.000508844480941323 -0.00064160540295554 -0.000161863152202077 -0.00078066216182622 -0.00111307986734435 -0.000585910320723387 -0.00188004954837396
"206" -0.000243004122882121 0.000449385543363644 -0.000107174309471537 -9.78089618903623e-05 -0.000152365711055588 -0.000358309775545566 -0.000343036156763372 9.10754530435434e-07 -0.00118616280707248 -0.000519942704455599 -0.000640281968383159 -0.000146320754364156 -0.00078400796405577 -0.00117901356489577 -0.000588377607035816 -0.00181623062086009
"207" -0.000258098475241856 0.000432274074414961 -0.000133992600105788 -0.000117061791362002 -0.000175317922515484 -0.000370290004551067 -0.00036078640773254 -1.10313326412912e-05 -0.0011859676893656 -0.000530199999755879 -0.000639852644450458 -0.000131218090110268 -0.000786907225222818 -0.00123970562212031 -0.000589093800612253 -0.00174471129883262
"208" -0.000273053162670672 0.00041465981160569 -0.000161411361154537 -0.000136368499334012 -0.000199075256058119 -0.000382403226113373 -0.000377729247649165 -2.33114675153227e-05 -0.00118566040308513 -0.000539511772272839 -0.000640262230020149 -0.000116649449460822 -0.000789276181132421 -0.00129480000350756 -0.000587624698973332 -0.0016659750521003
"209" -0.000287635525043402 0.000396772213183565 -0.000189154400261265 -0.000155497864024808 -0.000223341797751052 -0.000394475852588858 -0.000393678034372595 -3.58300258847196e-05 -0.00118526180266507 -0.000547762091320182 -0.000641444647850465 -0.000102686531420655 -0.000791032452957186 -0.00134400340574934 -0.000583598052792057 -0.00158053556438965
"210" -0.000301608062743031 0.000378839598557109 -0.000216948128352295 -0.000174227013146174 -0.000247812936650004 -0.000406327603533603 -0.000408437917632414 -4.84658632971278e-05 -0.00118478030018863 -0.000554839973103539 -0.00064331574418615 -8.93937769816631e-05 -0.000792090523363791 -0.00138705788684638 -0.000576712801079024 -0.00148893588779452
"211" -0.000314738510295157 0.000361089960311421 -0.000244504731335709 -0.000192337692846268 -0.00027217839204743 -0.00041777300484217 -0.000421823491114433 -6.10953821045181e-05 -0.00118419905057362 -0.000560637655187212 -0.000645782836844659 -7.68148974273774e-05 -0.000792367941118683 -0.00142377417447212 -0.000566744435612696 -0.00139175175154624
"212" -0.000326788277017787 0.000343744130775559 -0.000271544328896 -0.000209610684186646 -0.000296121878671257 -0.000428619703933655 -0.000433648743774307 -7.35775777610734e-05 -0.00118348668892681 -0.000565044868724953 -0.00064872839068445 -6.49733461362787e-05 -0.00079177399437469 -0.00145400542967285 -0.000553536352738378 -0.00128958644875383
"213" -0.000337532961022943 0.000327013021931982 -0.000297788453268662 -0.000225848966993209 -0.000319326755345337 -0.000438674945534387 -0.000443740185059628 -8.57692443301661e-05 -0.00118258842293357 -0.000567958750093779 -0.000652040603831646 -5.38788055448325e-05 -0.000790231480576666 -0.00147766130083023 -0.0005370085807645 -0.00118306939078168
"214" -0.000346749824581087 0.000311102709730726 -0.000322958071980938 -0.000240859806017109 -0.000341484938025786 -0.000447738948349097 -0.000451932412477198 -9.75162061996937e-05 -0.0011814393531677 -0.000569280702467308 -0.000655581072361063 -4.35221733701471e-05 -0.000787656959467782 -0.00149470166455283 -0.000517145806021773 -0.00107285924568418
"215" -0.000354232141979157 0.000296202471698587 -0.000346786071615728 -0.00025446124135433 -0.000362296366152451 -0.000455623037505645 -0.000458073348187905 -0.000108663930706549 -0.00117995070019729 -0.000568917461563284 -0.000659216331404949 -3.38740343341526e-05 -0.000783974939345751 -0.00150513371777503 -0.000494003976333886 -0.00095963605626287
"216" -0.000359783195439975 0.000282488375129072 -0.000369009366642401 -0.000266488951754001 -0.00038146340706788 -0.000462137325280698 -0.000462021031133207 -0.000119054469360505 -0.00117802815616655 -0.000566786219863557 -0.000662795004005839 -2.48936918829132e-05 -0.000779108116589149 -0.00150901403324525 -0.000467689571381408 -0.000844100063500899
"217" -0.000363226210529629 0.000270123252542734 -0.000389382962939887 -0.000276788672266589 -0.00039870342355102 -0.000467098105341556 -0.000463654339790702 -0.000128532952674021 -0.001175564151603 -0.000562808253723849 -0.000666166721871884 -1.65200632274392e-05 -0.000772989243613519 -0.00150644341277223 -0.000438375447041353 -0.000726970555292003
"218" -0.000364393935119417 0.000259251699445986 -0.000407665267840811 -0.000285221965946361 -0.000413749374473148 -0.000470334466878266 -0.000462871525102098 -0.000136945218736534 -0.00117243946438638 -0.000556921653365345 -0.000669179396292928 -8.67802965963517e-06 -0.000765551620526403 -0.0014975682009411 -0.000406275730835497 -0.000608982745925763
"219" -0.000363146699377403 0.000249998699008878 -0.000423637241983023 -0.000291667505662196 -0.000426350694360165 -0.000471681352672497 -0.00045958732680549 -0.000144150388067047 -0.00116853193524363 -0.000549075471490615 -0.000671671418022837 -1.27717041113049e-06 -0.000756737499624305 -0.00148257254244746 -0.000371645280113184 -0.000490889221460222
"220" -0.000359365387702836 0.000242471792916052 -0.000437086853899064 -0.000296015831784638 -0.000436273025146394 -0.000470987525039247 -0.000453741710387144 -0.000150005161913207 -0.00116371792393123 -0.000539219680581697 -0.000673483831352161 5.78532017249392e-06 -0.000746494251259135 -0.00146168558874159 -0.000334780785136716 -0.000373444114546464
"221" -0.000352948896027433 0.000236763513249201 -0.000447822408446528 -0.000298171319004585 -0.000443298767308733 -0.000468115636455953 -0.000445293374291456 -0.000154378786226163 -0.00115786653659882 -0.000527330620497014 -0.000674462759630281 1.26262982228225e-05 -0.000734771822671087 -0.0014351648983499 -0.000296000746168631 -0.000257413669472611
"222" -0.000343823599810168 0.000232938508597009 -0.000455673689727284 -0.000298060043368262 -0.000447238850363764 -0.000462946642693068 -0.000434231749184321 -0.000157161484741459 -0.00115085771618685 -0.000513394597034047 -0.00067445275351454 1.93663618238426e-05 -0.000721537158462271 -0.00140331222326257 -0.000255648354398649 -0.000143557289875578
"223" -0.00033193813890586 0.000231047028449455 -0.000460478324000912 -0.000295615641301337 -0.000447923945770091 -0.000455376957177447 -0.000420562955169193 -0.000158242750399407 -0.00114257191835963 -0.00049741120697038 -0.000673311125569258 2.61430218816994e-05 -0.000706751664250479 -0.00136644535790116 -0.000214074933872678 -3.26336650383763e-05
"224" -0.000317267865489726 0.000231117881476935 -0.000462104692246268 -0.000290790732667579 -0.000445204137469939 -0.000445320143574689 -0.000404323489423363 -0.00015753347936371 -0.00113289803205685 -0.000479389932393498 -0.000670890353962474 3.30918416661043e-05 -0.000690399207146675 -0.00132492412860658 -0.000171650198029633 7.4610619899224e-05
"225" -0.000299813981563576 0.000233165673970399 -0.000460432888620256 -0.000283550565348395 -0.00043895763633839 -0.000432713646184762 -0.000385573059764898 -0.000154956521643786 -0.00112174208454245 -0.000459366861837961 -0.00066706781168125 4.03561564854762e-05 -0.000672461163237121 -0.00127911639857692 -0.000128744524736866 0.000177454009085095
"226" -0.000279601464536336 0.000237175631138475 -0.000455370706367277 -0.000273876352752669 -0.000429094669223832 -0.000417508693214736 -0.000364398643020044 -0.000150462336727116 -0.00110901124055359 -0.000437377653830503 -0.000661714939636778 4.80810352194717e-05 -0.000652937692495091 -0.0012294261957435 -8.57309935771934e-05 0.000275189749405743
"227" -0.000256682109045199 0.000243124239216167 -0.000446835040341356 -0.000261762569592669 -0.000415544170630308 -0.00039968252595743 -0.000340906974262655 -0.000144002816573266 -0.00109464188416763 -0.000413485592647069 -0.000654731412693961 5.6408947707338e-05 -0.000631832302421981 -0.00117625835406796 -4.29728550746528e-05 0.000367155805434948
"228" -0.000231128311933947 0.000250969178852053 -0.000434782150015597 -0.000247219537772104 -0.000398260196530589 -0.00037923378742828 -0.000315234353534739 -0.000135557876895245 -0.00107858057936358 -0.0003877605997891 -0.000646021856129106 6.54849439799128e-05 -0.000609170343100525 -0.00112004245051384 -8.34326529652036e-07 0.000452717310479088
"229" -0.00020303907588279 0.000260644961356052 -0.000419176204931437 -0.000230269398831459 -0.000377236953859375 -0.000356181986137364 -0.000287535463225906 -0.000125122141840871 -0.00106079581440983 -0.000360287995451431 -0.000635510156378727 7.54448583157927e-05 -0.000584975674836181 -0.00106121231140533 4.03292546935875e-05 0.00053129003053601
"230" -0.000172541089448124 0.000272078212088024 -0.000400009938814722 -0.000210949066279274 -0.000352478841159759 -0.000330572565569743 -0.000257989393384401 -0.0001127132064313 -0.00104127932590272 -0.000331161345746597 -0.000623135425896522 8.64173586774314e-05 -0.000559297724752117 -0.00100020333887925 8.01790010285916e-05 0.000602344183507332
"231" -0.000139771922223641 0.00028517858408087 -0.000377296625233879 -0.00018930950422281 -0.000324037102010677 -0.000302468682948535 -0.000226791740630688 -9.83609520493174e-05 -0.00102004775688597 -0.000300497003167651 -0.000608866019188159 9.85249230342137e-05 -0.000532189700109153 -0.000937453537321072 0.000118384857236044 0.00066542295510935
"232" -0.000104895802370401 0.000299839954763155 -0.000351075485590237 -0.000165413272649229 -0.00029198330614868 -0.000271959863354438 -0.000194156502193221 -8.21177543225872e-05 -0.000997136518644032 -0.000268408452349372 -0.000592674279947422 0.000111871821520362 -0.000503725363278187 -0.000873401522870858 0.000154629950621308 0.000720122467105583
"233" -6.80920293549999e-05 0.000315948362854866 -0.000321407321442571 -0.0001393392481236 -0.00025641094194743 -0.000239156198481962 -0.000160317619669988 -6.40543154391797e-05 -0.000972611319335226 -0.000235028254841549 -0.000574566691610222 0.000126558765692625 -0.000473989091029556 -0.000808462461557598 0.00018862660080023 0.000766129328095757
"234" -2.95616544433637e-05 0.000333376721080048 -0.000288380524648188 -0.00011117197807408 -0.000217455000108708 -0.000204188368881519 -0.000125515914759316 -4.42588270584208e-05 -0.000946557223180926 -0.000200492100808135 -0.000554565509474799 0.000142662935561998 -0.000443081838383633 -0.000743055310835785 0.000220081462358539 0.000803203918514775
"235" 1.04874072333591e-05 0.000351989613862014 -0.000252094952712655 -8.10151614341895e-05 -0.000175271770866357 -0.000167209908902906 -9.00081153590032e-05 -2.2837343967553e-05 -0.000919092294169157 -0.000164941935218619 -0.000532717052551309 0.000160244503289897 -0.000411120015399772 -0.000677570590266924 0.000248737554933927 0.000831198296687771
"236" 5.18258169522738e-05 0.000371641265677245 -0.000212685638591979 -4.89804189881707e-05 -0.000130041878933743 -0.000128397407832601 -5.40597392772513e-05 9.24054043441202e-08 -0.000890358913770384 -0.000128535943624497 -0.000509088041338935 0.000179348681778384 -0.000378232022932756 -0.00061238074545577 0.000274357119462847 0.000850047254947185
"237" 9.42237406404491e-05 0.00039218587578172 -0.000170303756523231 -1.51893502793581e-05 -8.19785084795857e-05 -8.79383384668724e-05 -1.79393275412932e-05 2.43913295609473e-05 -0.000860519426290976 -9.14228504777327e-05 -0.000483773833196358 0.000200002914032414 -0.00034455743832354 -0.000547830791853722 0.000296716373946557 0.000859781309566186
"238" 0.000137434666064597 0.000413468462294016 -0.000125115097854172 2.02277625760048e-05 -3.13139775548009e-05 -4.60456309150585e-05 1.80807923415093e-05 4.99121167759042e-05 -0.00082976893769619 -5.37682093998428e-05 -0.000456888898957663 0.000222205593414906 -0.000310259844520482 -0.000484239949911093 0.000315614758470615 0.000860521531274921
"239" 0.000181214055374889 0.000435329617581808 -7.73210054778374e-05 5.71263518208842e-05 2.16892500121131e-05 -2.94430732294719e-06 5.37254890324825e-05 7.64861265562379e-05 -0.000798320805259776 -1.57264865105521e-05 -0.000428561123793117 0.000245937108605163 -0.000275507228408096 -0.000421896088181541 0.000330868486131184 0.000852473246954203
"240" 0.000225306546019708 0.000457613591002118 -2.71248138061238e-05 9.53619172204699e-05 7.67534601490859e-05 4.11220274554534e-05 8.87268215180092e-05 0.000103941872344407 -0.000766408360791854 2.25307905622541e-05 -0.00039895632402263 0.000271162117385891 -0.000240481713551178 -0.000361049229099364 0.000342323922812408 0.000835932395131761
"241" 0.000269458106646445 0.000480157363258444 2.52405358259449e-05 0.00013477606187137 0.000133571221975061 8.59008718300411e-05 0.000122817339645847 0.000132093393889983 -0.000734291447888224 6.08432027236512e-05 -0.000368245699823523 0.000297814644359726 -0.000205374041473503 -0.00030191750143543 0.000349848909773178 0.000811274800666989
"242" 0.000313417980539792 0.000502803392758768 7.95335697321222e-05 0.000175209077791467 0.0001918279714988 0.000131127704392613 0.000155741332200939 0.000160747337176515 -0.000702245010297467 9.9047449555894e-05 -0.000336630780292978 0.000325813934240814 -0.000170386418805121 -0.000244679997945264 0.000353331625993903 0.00077894486456576
"243" 0.000356930125685001 0.000525396751001427 0.000135492811188664 0.000216494545553695 0.000251182748264151 0.000176526536108187 0.000187252211125763 0.0001897059322857 -0.000670562464689406 0.000136975197273061 -0.000304320741376063 0.000355052159493051 -0.000135728008080731 -0.000189475372826921 0.000352694540746213 0.00073946175181237
"244" 0.000399754992027793 0.000547786276841394 0.00019284444577352 0.000258465008420765 0.000311291661726558 0.0002218205519392 0.000217120625065279 0.000218761324319318 -0.000639549782937071 0.000174474696099738 -0.000271544485581462 0.000385402646333256 -0.000101610637420964 -0.000136410417709561 0.000347880112287337 0.00069339490734516
"245" 0.000441649096393235 0.000569823596079245 0.000251306722598252 0.000300948914227668 0.000371793246988551 0.000266723492312477 0.000245130299644339 0.000247712835054533 -0.00060952378825995 0.00021137986268805 -0.000238550767729816 0.000416725342903898 -6.8250574998111e-05 -8.55463013622616e-05 0.000338863836919898 0.00064136867090531
"246" 0.000482386903684504 0.000591367650943608 0.000310590783795484 0.000343774096704333 0.00043231888515101 0.000310950544014903 0.00027108248396534 0.000276349256601754 -0.000580808287371797 0.000247540674341859 -0.000205590750786986 0.000448854718508406 -3.58697034405726e-05 -3.69195751288826e-05 0.000325643660281485 0.000584038868153205
"247" 0.000521747917983365 0.000612286436732534 0.000370391457080336 0.000386767995161563 0.000492503997259726 0.000354221699131721 0.000294801724008662 0.00030446369675481 -0.000553735895434742 0.000282804389689992 -0.000172929448796001 0.000481613210885822 -4.67920502283388e-06 9.47304382449443e-06 0.000308249324575878 0.000522089630166551
"248" 0.000559524144290489 0.000632455788109856 0.00043040924101036 0.000429760064708101 0.00055197484014117 0.000396255481242287 0.000316141590976495 0.000331860279074136 -0.000528632144441656 0.000317031435303489 -0.000140836767729643 0.000514807759900137 2.51024697397834e-05 5.36665022837008e-05 0.00028673717762312 0.000456226379352231
"249" 0.000595526594723162 0.000651760904767009 0.000490339337521878 0.000472583913096566 0.000610365087513006 0.000436785065949006 0.000334967515024821 0.000358340221735828 -0.000505827231336899 0.000350081794960512 -0.000109585883621359 0.000548234717513046 5.32748119449594e-05 9.57180950718339e-05 0.000261188705425291 0.000387151924635736
"250" 0.000629574852730574 0.000670093251501239 0.00054987124841127 0.00051506995228005 0.000667309684537931 0.000475543682730539 0.000351184384063524 0.000383718926548747 -0.000485642452435993 0.000381819534562516 -7.94546121798381e-05 0.000581678292748068 7.96362299234617e-05 0.000135711592650635 0.000231726049644013 0.000315571310816505
"251" 0.000661515066483841 0.000687359800702919 0.000608703744204466 0.000557061653288474 0.000722465832492663 0.0005122925788177 0.000364716499744797 0.000407819806758687 -0.000468382097480131 0.000412124317530324 -5.07154296721354e-05 0.000614915891664911 0.000104002167050009 0.000173752011963411 0.000198486526972151 0.000242170592241768
"252" 0.000691202147071952 0.000703476617200745 0.000666534143298601 0.000598401725787561 0.000775485213485454 0.000546792673839734 0.000375518605451633 0.000430481320684087 -0.000454340128493233 0.000440879053460288 -2.36366919463903e-05 0.000647716327627213 0.000126195175780661 0.000209957321598852 0.000161636967077583 0.000167612479555658
"253" 0.000718517291449953 0.000718373036292304 0.000723072267971593 0.000638939591516152 0.000826054884103214 0.00057883542771529 0.000383577532136967 0.000451551934400178 -0.000443792276549332 0.000467973872184893 1.52520989819887e-06 0.000679846217618415 0.000146062567163781 0.000244455837277909 0.000121369958894447 9.25328289335582e-05
"254" 0.000743360817304558 0.000731989689730721 0.000778028703294885 0.000678530266844096 0.000873868232699315 0.000608229214165291 0.000388907860339331 0.000470897967379814 -0.000436982864525896 0.000493312262533516 2.45216527717091e-05 0.000711073189808278 0.000163463524564307 0.000277388638630692 7.78996896274345e-05 1.7522476018223e-05
"255" 0.000765649184729457 0.000744279734980402 0.000831136687098202 0.00071704139478151 0.000918648456885673 0.000634804556359839 0.000391550782650581 0.000488406785753441 -0.000434134433745575 0.000516804553982286 4.51197029389217e-05 0.000741164256159277 0.000178273346121445 0.000308892305473197 3.14575284160775e-05 -5.68675711291662e-05
"256" 0.000785328500206826 0.000755206268948493 0.000882127804762268 0.00075434142772116 0.00096014405513956 0.000658419582149069 0.000391581208960246 0.000503977323965498 -0.000435431371571661 0.000538374468685625 6.31096099953373e-05 0.000769888038593698 0.000190389890250177 0.000339107133463884 -1.77092847326185e-05 -0.000130139191393652
"257" 0.000802361825906052 0.000764746776024113 0.000930762927847481 0.000790311163992306 0.000998128318450445 0.0006789583817675 0.000389101012906017 0.000517534610059613 -0.0004410229014529 0.000557953010392601 7.82943372142247e-05 0.000797023773467686 0.000199738351590811 0.000368169351707201 -6.93380258465782e-05 -0.00020184528735767
"258" 0.00081673823337296 0.000772894644400386 0.00097680695209157 0.000824840384986665 0.00103240552151514 0.000696333081453831 0.000384234643491239 0.000529022591103589 -0.000451020052030915 0.000575489550264248 9.05088566780899e-05 0.000822353372665655 0.000206263606167412 0.00039620445555331 -0.000123168157870259 -0.000271596821557988
"259" 0.000828466258502311 0.000779645782871171 0.00102005876013291 0.000857825219376088 0.00106281141753081 0.000710485757208278 0.00037713988483416 0.000538406296831963 -0.000465487021527091 0.000590941149333931 9.96133606249439e-05 0.000845672784317734 0.00020992882014793 0.000423330060981401 -0.000178929688421321 -0.000339060279122631
"260" 0.00083757434579482 0.000785015149886708 0.00106031950578525 0.000889169883143856 0.00108921672566194 0.000721387203470592 0.000367991234092944 0.00054566850411015 -0.000484445978491501 0.000604273176099418 0.000105490944059541 0.000866789699424663 0.000210730092333554 0.000449653573809122 -0.000236348520213621 -0.000403955565691102
"261" 0.000844118824617722 0.000789023600018022 0.00109742185673409 0.000918790131045414 0.00111151871819136 0.000729037401639492 0.000356989679428062 0.000550815748226019 -0.00050786761041773 0.000615472665447578 0.000108062344954947 0.000885522105212006 0.000208681872009383 0.000475258404430551 -0.000295173546709324 -0.000466064662335199
"262" 0.000848172743743072 0.000791703686084584 0.00113121905144757 0.000946609126254934 0.00112965905931438 0.000733472324273733 0.00034435463138576 0.000553880287063703 -0.000535676073250334 0.000624535830216488 0.00010727780725598 0.00090171029893069 0.000203824197376502 0.000500219258575357 -0.000355157722643475 -0.000525215178355297
"263" 0.000849823531647636 0.000793096977045611 0.00116158681848227 0.000972560484622052 0.00114360297313468 0.000734750554517571 0.000330320316553203 0.000554906205258448 -0.000567742622436988 0.00063147287304988 0.000103119650481631 0.00091520596155995 0.000196220724171147 0.000524588970654161 -0.000416074511998345 -0.000581296010624841
"264" 0.000849192140256488 0.000793253947008785 0.00118842422768886 0.000996582982058902 0.00115335542808145 0.000732961957070123 0.000315141937425844 0.00055396335750211 -0.000603892052216219 0.000636306760132161 9.56080201443388e-05 0.00092588478925788 0.000185959607823266 0.000548405795018337 -0.000477720441877665 -0.000634231820521895
"265" 0.000846398954325197 0.000792230311070178 0.00121164727149373 0.00101862598251119 0.00115894887509134 0.000728222112832897 0.000299080566251246 0.00055113722328075 -0.000643894501990794 0.000639072020873321 8.47909447090571e-05 0.000933638396478591 0.000173147074267751 0.000571687116103659 -0.000539920714127259 -0.000684007818970011
"266" 0.000841590494111639 0.000790086411467802 0.00123120672038057 0.00103864610800431 0.00116045053211612 0.000720676126957551 0.000282408636186056 0.000546533427219705 -0.000687478453589825 0.000639815044832789 7.07559326332136e-05 0.000938385814045094 0.000157911234116878 0.00059444111297482 -0.000602531603491313 -0.000730642668900037
"267" 0.000834921695215622 0.000786891551623603 0.00124706690022844 0.00105660689524714 0.00115795669965261 0.000710486464545381 0.000265404312723389 0.000540268947537132 -0.000734323306241243 0.000638597298311239 5.36158378511439e-05 0.000940064316082868 0.00014039964746456 0.000616654184486116 -0.000665437719066975 -0.000774192391005058
"268" 0.000826558314967685 0.000782715933798245 0.00125922300003013 0.00107247642250362 0.00115159370851745 0.000697841447533179 0.00024834942175076 0.000532475534377339 -0.00078406566573863 0.000635493083251353 3.35203223304899e-05 0.000938633016650642 0.000120783713513321 0.000638296168759724 -0.000728574489154123 -0.0008147500743009
"269" 0.000816679410260273 0.000777630143887159 0.0012676827172513 0.00108623584542869 0.00114150204917509 0.000682943911091645 0.000231524815979148 0.000523301697114359 -0.000836304788777873 0.000630577137946945 1.06506735974965e-05 0.000934081953039629 9.92402426069192e-05 0.00065933129671611 -0.000791903413358164 -0.000852437674401228
"270" 0.000805466039339778 0.000771710409196485 0.00127248376805484 0.00109786490698611 0.00112786469407609 0.000666021183724449 0.000215207166119049 0.000512900878005776 -0.000890605583024279 0.000623943905081378 -1.47956732465481e-05 0.000926421132326206 7.59672637194844e-05 0.000679708167826466 -0.000855422306253842 -0.000887396358722272
"271" 0.000793104901564099 0.000765030316524393 0.00127367468980256 0.00110735238599908 0.00111087050739374 0.000647305172453353 0.00019967091823808 0.000501438901331526 -0.00094650408487868 0.000615691924299629 -4.25846073753741e-05 0.000915687588492935 5.11765240383456e-05 0.000699359410232702 -0.000919173709068108 -0.000919795939636507
"272" 0.000779778889414941 0.00075766204399194 0.00127133251393898 0.00111469254629662 0.00109073218195368 0.000627043425129005 0.000185176631835135 0.000489082703541375 -0.00100350989601309 0.000605925702069371 -7.24658579699164e-05 0.000901939554383524 2.50844287130373e-05 0.000718213032745461 -0.000983218156228082 -0.000949812714291154
"273" 0.000765674329619192 0.000749673341718768 0.00126554287103299 0.00111988112368196 0.00106767747182961 0.000605486529661917 0.000171973083530314 0.000476012408990336 -0.00106111650045419 0.000594758968026506 -0.00010417663690157 0.00088526842435615 -2.07952022126425e-06 0.000736184369182356 -0.00104765605710856 -0.000977635954794569
"274" 0.000750973444047537 0.00074113313618723 0.00125641047611831 0.00112292047814496 0.00104194992321857 0.000582894718984294 0.000160296627360778 0.00046240189659769 -0.00111880549921155 0.000582303083949293 -0.000137427093924341 0.000865778595815586 -3.00781736697389e-05 0.000753175573606311 -0.00111260273682317 -0.00100345894427427
"275" 0.000735849436153391 0.000732099545058882 0.00124405210186444 0.00112381854717891 0.00101380208327494 0.000559525137607304 0.000150364597112765 0.000448430687521871 -0.00117604941858227 0.00056867877949484 -0.000171925389681244 0.000843607742235003 -5.86711784605961e-05 0.000769082213900919 -0.00117819793818337 -0.00102747722383833
"276" 0.000720465568477236 0.000722630416855648 0.00122860616763233 0.00112258195339736 0.000983489068197241 0.000535639551400687 0.000142374473825706 0.000434271551649861 -0.00123232117706789 0.000554003722352167 -0.000207364970278777 0.000818906472326808 -8.76153192009573e-05 0.000783780319185487 -0.00124458659972414 -0.00104988504114434
"277" 0.000704975661144252 0.00071277519834117 0.00121020811012767 0.00111922717167909 0.000951279402275728 0.000511485630079297 0.00013649881347611 0.000420095882521839 -0.0012871024232011 0.000538395879446124 -0.000243443947468869 0.000791854709847871 -0.000116665128415996 0.000797137855868521 -0.00131192316632274 -0.00107086087871571
"278" 0.000689516918644782 0.000702571253541323 0.0011890072546496 0.00111376663413623 0.00091743861628043 0.00048731115737246 0.000132888208933679 0.000406069671805735 -0.00133988686020412 0.00052197769124688 -0.000279845537466998 0.000762641133747284 -0.000145575697519572 0.000808994432097159 -0.00138035578794259 -0.00109058166098894
"279" 0.000674213352615857 0.000692052996282426 0.00116516154402665 0.00110621890443503 0.000882228470308384 0.000463351534987756 0.000131663368634003 0.000392348851642913 -0.00139017997518272 0.000504852448106398 -0.00031626983132965 0.000731479428298455 -0.000174108785982321 0.000819185293758924 -0.00145002288630069 -0.00110919910081725
"280" 0.000659168739399841 0.000681242783030672 0.00113883601759126 0.00109660607145918 0.000845917256549991 0.000439829784182058 0.000132920713668439 0.000379081765508774 -0.00143751312077626 0.00048713662790572 -0.000352410664175603 0.000698590655304238 -0.000202021753494523 0.000827512423316733 -0.00152104560798499 -0.00112685419787254
"281" 0.000644468513613292 0.000670158528082246 0.00111019587178912 0.00108495404924361 0.000808753832366892 0.000416955730949966 0.000136724825822844 0.00036640792088917 -0.00148144501018401 0.000468930477276441 -0.000387977982170822 0.000664211679453536 -0.000229090631265053 0.000833761492606882 -0.00159352562761989 -0.00114365629443408
"282" 0.000630185658695806 0.000658800567537132 0.00107940692627766 0.00107128934681368 0.0007709951052947 0.00039491599781004 0.00014310522450254 0.000354443456769313 -0.00152156168716016 0.00045032956109512 -0.000422685478016474 0.000628584499945757 -0.000255091985392022 0.000837696574347833 -0.00166753364322295 -0.00115970079707232
"283" 0.00061636214863496 0.000647172729531454 0.00104664010528163 0.00105564531884835 0.000732876462687046 0.000373889266185619 0.000152065145292149 0.000343304722111506 -0.00155749534822542 0.00043142113396383 -0.00045626732080033 0.000591958546664159 -0.000279808342859027 0.000839063619389062 -0.00174311039770994 -0.00117504084559174
"284" 0.000603027831725472 0.000635255513292265 0.0010120677925564 0.0010380530921979 0.000694620248083285 0.000354026128045603 0.000163576004343805 0.000333084094964252 -0.00158890653975494 0.000412286493203287 -0.000488469949461432 0.000554587841096927 -0.000303043988239208 0.00083758231754085 -0.00182025481591694 -0.00118971820393735
"285" 0.000590190008496369 0.000623031835087195 0.000975853827552397 0.00101855363981751 0.000656449687351952 0.00033545685059016 0.000177572068477057 0.000323856200345181 -0.00161550313101329 0.000392993205153103 -0.000519059160888896 0.000516726355410826 -0.00032460853815279 0.000832972134370835 -0.00189892160675219 -0.00120373447776397
"286" 0.000577838419109097 0.000610474387863848 0.000938166870544529 0.000997192151386847 0.00061856049980741 0.000318294851204469 0.000193962999325216 0.000315684898286967 -0.00163704563837875 0.000373607479234905 -0.000547821785448296 0.000478626804726669 -0.000344335280828481 0.000824939258228562 -0.00197902594876472 -0.00121707437019479
"287" 0.000565940750206202 0.000597550439738016 0.000899173606998223 0.000974015449925953 0.000581141426982099 0.000302624813111399 0.000212623185446285 0.000308615792442982 -0.00165333476656722 0.000354180450399008 -0.000574565443301533 0.000440537218273173 -0.0003620627507546 0.000813193140892433 -0.00206043174617589 -0.00122968656705764
"288" 0.000554452379727799 0.000584218307118108 0.00085903175613519 0.000949080783746197 0.000544360432752702 0.000288511017624256 0.00023339611119096 0.000302678252445011 -0.00166422442000735 0.000334757492298054 -0.000599123862809301 0.000402700440897117 -0.000377652452243192 0.00079745768661624 -0.0021429542312606 -0.00124149610391979
"289" 0.000543310070245079 0.000570443855409787 0.000817905995514323 0.000922450670977875 0.000508376544739734 0.000275996100508285 0.000256106520831624 0.000297880194972554 -0.00166962790099057 0.00031537917937611 -0.000621356387621969 0.000365351725861518 -0.000390992542926731 0.00077747691784157 -0.00222636160639353 -0.001252399513445
"290" 0.000532442631300396 0.000556178938441014 0.000775944839618347 0.000894192299976032 0.000473327961689295 0.00026509883598047 0.000280542349061915 0.000294216444335015 -0.00166950136867856 0.000296071507493714 -0.000641140918238298 0.000328710240323024 -0.000401980022340071 0.0007530224580192 -0.00231036923671446 -0.00126227704751151
"291" 0.000521762170632389 0.000541381583135222 0.000733304654934975 0.000864380452838137 0.00043933479675898 0.000255814282523994 0.000306474100548465 0.000291664999113087 -0.00166386293476971 0.000276864768368862 -0.000658392619068267 0.00029299342949886 -0.000410540795057054 0.000723909106612224 -0.002394646297717 -0.00127098232025604
"292" 0.000511178617420919 0.000526008532372141 0.000690137020705117 0.000833102405731937 0.000406510579241907 0.000248120834246244 0.00033364820870233 0.00029018540063135 -0.00165277830736687 0.000257768970255175 -0.000673042038262023 0.000258392007704106 -0.000416620520356273 0.000689996498802027 -0.00247881541342126 -0.001278355968616
"293" 0.000500584610233437 0.000510025481375076 0.000646584664261823 0.000800449925479977 0.00037494633542931 0.000241971807574836 0.000361796626756282 0.000289729428611677 -0.00163636511187384 0.000238802417458485 -0.000685054560203786 0.00022509253451589 -0.000420189763556877 0.000651208130347163 -0.00256245538654941 -0.00128421817638573
"294" 0.000489885635001885 0.000493390869570687 0.000602788739822866 0.000766522412353993 0.000344713542045279 0.000237305437944113 0.000390630521786008 0.000290224840954307 -0.00161479546272562 0.000219967655593578 -0.00069441315805366 0.000193254758697039 -0.000421237796728508 0.000607525488105555 -0.00264510679190724 -0.00128838547430799
"295" 0.000478968814722527 0.000476081919768605 0.000558893998645037 0.000731427565482856 0.000315879466115717 0.000234037480051692 0.000419856415177805 0.000291591438753943 -0.00158827996352782 0.000201269374921098 -0.000701135968193209 0.000163024138817111 -0.000419782462598302 0.000559000941770727 -0.00272626842793545 -0.00129066224886469
"296" 0.000467738798015347 0.000458071950791212 0.000515028386252668 0.000695281589157421 0.000288481122997512 0.000232075099339799 0.000449162280175247 0.00029373570177861 -0.00155707362343782 0.000182707797615388 -0.000705256622266924 0.000134526066589784 -0.000415861352419213 0.000505755839775202 -0.00280541076914713 -0.00129085939819561
"297" 0.000456090477596322 0.000439349785395065 0.000471330286631345 0.000658211814107451 0.00026255929324612 0.0002313020071197 0.000478240357341906 0.00029655028099914 -0.00152147778909489 0.000164278199031191 -0.000706829495183326 0.000107862117591529 -0.000409539504491338 0.000447987218491671 -0.00288197464215341 -0.00128877949766579
"298" 0.000443929853059674 0.000419908761590837 0.00042792337418595 0.000620343220229692 0.000238124823594675 0.000231596160555492 0.000506772834549635 0.000299917312561744 -0.00148182774809201 0.00014597386093905 -0.000705937350268994 8.31168249103826e-05 -0.000400903019324832 0.000385962754757808 -0.00295537192581815 -0.00128423512818031
"299" 0.000431173546508398 0.000399754009050024 0.000384938085888279 0.00058181871536835 0.000215188713424426 0.000232824839621773 0.000534449529155734 0.000303716781190552 -0.00143848607646076 0.000127781653391075 -0.000702680973147734 6.03499221222203e-05 -0.000390053622619265 0.000320019223867306 -0.00302500385112726 -0.00127704808365698
"300" 0.00041774804660899 0.000378901109179202 0.000342489987265363 0.000542779020478719 0.000193735538442399 0.000234839795056517 0.000560964496429438 0.000307812370190446 -0.00139184673582661 0.000109693796043748 -0.00069717127911795 3.96010048218331e-05 -0.000377127776624629 0.000250551524423156 -0.00309025501641772 -0.0012670517663512
"301" 0.000403581906654415 0.000357375494795459 0.000300704338860922 0.000503373435952849 0.000173747896528121 0.000237495246122246 0.000586017975718742 0.000312066819007342 -0.00134232679403184 9.16976437012407e-05 -0.000689543638692513 2.08873029818066e-05 -0.000362265948711349 0.000178024675412224 -0.00315050606917945 -0.0012540936158131
"302" 0.000388630754634375 0.000335215630145274 0.000259689597196021 0.000463755361733004 0.00015519687670258 0.000240632529827565 0.000609325206988789 0.000316339497434214 -0.00129036579935962 7.3774877972029e-05 -0.000679949103789428 4.20460321123625e-06 -0.000345639328075699 0.000102940222995055 -0.0032051253360295 -0.00123803317751794
"303" 0.000372851122784732 0.000312467108678085 0.000219557149730906 0.000424081469583038 0.000138041374907191 0.000244098975891355 0.000630613813969424 0.000320481949799159 -0.00123641910596434 5.59157351478274e-05 -0.000668542618741378 -1.04714002512083e-05 -0.000327424657474855 2.58574042012602e-05 -0.00325350281114529 -0.00121875817004581
"304" 0.000356221063821585 0.000289196179015214 0.00018041430830968 0.000384513997855458 0.000122235646451919 0.000247732982689331 0.000649636182540856 0.000324351070117328 -0.00118095058697081 3.81016154588559e-05 -0.000655498053810494 -2.3175957590763e-05 -0.00030782429340548 -5.26347258081112e-05 -0.0032950347985029 -0.00119617106426347
"305" 0.000338730831090605 0.000265469517306517 0.000142364885445179 0.00034521312419896 0.000107725897172979 0.000251381085517682 0.000666158881984536 0.000327801106171647 -0.0011244324745874 2.03200175210168e-05 -0.000640999308334971 -3.39733877991809e-05 -0.000287041541339862 -0.000131917079927259 -0.00332913765695619 -0.00117019353341947
"306" 0.000320389283138817 0.000241372962578702 0.000105505435908328 0.000306341952871398 9.44537540508942e-05 0.000254890363033089 0.000679982385673841 0.000330693291204752 -0.00106734569156184 2.55348102330675e-06 -0.000625232161947035 -4.2931274091842e-05 -0.000265300514273076 -0.000211350165533706 -0.00335525796083369 -0.00114077258638045
"307" 0.000301216362840906 0.000216996764764615 6.99315744499435e-05 0.00026806238340882 8.23533643617518e-05 0.000258113417246922 0.000690923374104645 0.000332891179628566 -0.00101016452462972 -1.52107266787546e-05 -0.000608393151428323 -5.01436740289742e-05 -0.000242826754314071 -0.000290280517290258 -0.00337287408787349 -0.00110788034743617
"308" 0.000281247822491902 0.000192442556587007 3.57287226543738e-05 0.00023053709749725 7.13617937865647e-05 0.000260913750135633 0.000698835735840824 0.000334263704568954 -0.000953365870878967 -3.29851220656771e-05 -0.000590684203471372 -5.57011283572952e-05 -0.000219855722087973 -0.00036805440636625 -0.00338150632562684 -0.00107150567620905
"309" 0.00026053583632943 0.000167822885204941 2.98560123888355e-06 0.000193925648494043 6.14100919257339e-05 0.000263154452830726 0.000703596643524815 0.00033469237546119 -0.000897414065778373 -5.07795435421821e-05 -0.000572307643617498 -5.97159875732018e-05 -0.000196620081839731 -0.000444013782927752 -0.00338073021184039 -0.00103166664209641
"310" 0.0002391409370351 0.000143254701802353 -2.82258230819779e-05 0.000158383108673141 5.24277090649903e-05 0.000264718440451183 0.000705118051047239 0.000334065631165684 -0.000842764530880781 -6.86080535094308e-05 -0.000553468771439423 -6.23033933819329e-05 -0.000173358263166279 -0.000517516804577746 -0.00337017823338665 -0.000988406590560673
"311" 0.000217145376687078 0.000118861287408619 -5.78246286864466e-05 0.000124062851479437 4.43514173272938e-05 0.000265495697024292 0.000703345611848814 0.000332284764416632 -0.000789858776141964 -8.64765268722385e-05 -0.000534372941801045 -6.35780767149312e-05 -0.000150307813677466 -0.000587928078850382 -0.00334954297686007 -0.000941783079836444
"312" 0.000194631706274296 9.47712219569082e-05 -8.57537562484344e-05 9.11106034117038e-05 3.710726713949e-05 0.000265385217610976 0.000698253314326935 0.000329260180865699 -0.000739116916452302 -0.000104395642421293 -0.000515223042039334 -6.36658349506989e-05 -0.000127699509198542 -0.000654639718122059 -0.0033185943770528 -0.000891888382603216
"313" 0.000171705486490812 7.11205751366868e-05 -0.000111939572783019 5.96667516281928e-05 3.06349887897599e-05 0.000264303865770287 0.000689852489807297 0.000324926804845112 -0.00069093922657952 -0.000122364565763166 -0.000496216346601067 -6.26892581637461e-05 -0.000105759599885069 -0.000717063166428365 -0.00327717704749096 -0.000838831988803597
"314" 0.0001484695708622 4.80382034404304e-05 -0.000136343834787148 2.98608706356041e-05 2.48684534928225e-05 0.00026217984803344 0.00067818299940415 0.000319221372899487 -0.000645698468184398 -0.000140393164232411 -0.000477550948313897 -6.07729643049934e-05 -8.47029062391173e-05 -0.00077464040624393 -0.00322521645692455 -0.000782741973082407
"315" 0.000125044178469061 2.56658892114194e-05 -0.000158908479002374 1.82138695100802e-06 1.97489378651944e-05 0.000258955878187844 0.000663313746701639 0.0003121073948998 -0.000603743140491237 -0.000158479619487095 -0.000459416730546463 -5.80354705102806e-05 -6.47419970913227e-05 -0.00082684341717662 -0.00316272498926786 -0.000723778526550147
"316" 0.000101547329610279 4.13096482062497e-06 -0.000179601322389649 -2.43444861494875e-05 1.52152032694816e-05 0.000254586863711349 0.000645344871183641 0.000303561223335639 -0.000565389952618388 -0.000176625987037582 -0.000441994834305519 -5.45914001624231e-05 -4.6068264743882e-05 -0.000873183676290452 -0.003089801255563 -0.000662113006433776
"317" 7.81067579078975e-05 -1.64342566625614e-05 -0.000198393252936728 -4.85297496318771e-05 1.12158594100629e-05 0.00024904282109775 0.000624408184942815 0.000293576106771346 -0.000530918776589179 -0.000194827866042319 -0.000425455800494451 -5.0549679604e-05 -2.88672926235074e-05 -0.000913210921679289 -0.00300664425397058 -0.000597946846199177
"318" 5.48502943296231e-05 -3.59019305548763e-05 -0.000215262441321471 -7.06462295506269e-05 7.69079139450888e-06 0.000242304805345504 0.000600654831549261 0.000282161575517536 -0.000500575631598408 -0.000213083253043743 -0.000409966045516462 -4.60148747146944e-05 -1.33056372797858e-05 -0.000946518776154299 -0.00291353141906554 -0.000531497841502782
"319" 3.19153427501214e-05 -5.41514607735084e-05 -0.00023019768298163 -9.06137938936588e-05 4.60032349691787e-06 0.000234374740545245 0.00057426740714337 0.000269348614272361 -0.000474569696187323 -0.00023138171808969 -0.000395676363651947 -4.1075814086409e-05 4.63900029157301e-07 -0.00097274237519268 -0.00281083970889418 -0.000463000965162615
"320" 9.42629415949305e-06 -7.10707739631488e-05 -0.000243199251847069 -0.000108372299623798 1.89240980557491e-06 0.000225255872734601 0.000545441722739345 0.000255180771350834 -0.000453071977410172 -0.000249721789795548 -0.000382724582123838 -3.58149110252493e-05 1.23074976967858e-05 -0.000991573962565242 -0.00269902098321769 -0.000392718819871152
"321" -1.24793669887268e-05 -8.65544302043163e-05 -0.000254271474119813 -0.000123869393093346 -4.82880301674238e-07 0.000214973441915118 0.000514399778418646 0.000239719646709754 -0.000436209415059988 -0.000268083892037031 -0.000371235795025293 -3.03066195678298e-05 2.21014816499089e-05 -0.0010027535164919 -0.00257862235319114 -0.000320930553119027
"322" -3.36734146625324e-05 -0.000100506120603415 -0.000263437671425836 -0.000137070231907085 -2.55886756795891e-06 0.000203559574703296 0.000481376980713907 0.000223047671136507 -0.000424074603440706 -0.000286457946899078 -0.000361325400697812 -2.46115601142787e-05 2.97510442388776e-05 -0.00100607313405255 -0.0024502579451443 -0.000247935897684589
"323" -5.40320750755606e-05 -0.000112844535103294 -0.000270728873153708 -0.000147959754617299 -4.38622921386375e-06 0.000191057658523864 0.000446618593708936 0.00020525604283299 -0.000416707478662808 -0.00030482290931133 -0.00035308888307017 -1.87812158105834e-05 3.51667585205204e-05 -0.0010013855391359 -0.00231461012524922 -0.000174052309091138
"324" -7.34324119136879e-05 -0.000123496253037672 -0.000276180205392726 -0.000156533014277014 -5.99913689188803e-06 0.000177517817775807 0.000410391273463117 0.000186454818898197 -0.000414119227480905 -0.000323163532045266 -0.00034660748434226 -1.28514640746066e-05 3.82896773442035e-05 -0.000988601642907714 -0.00217242616514875 -9.96112445565313e-05
"325" -9.17601615590537e-05 -0.000132398593668618 -0.000279845712370233 -0.00016280843035691 -7.43998612729898e-06 0.000163005976325742 0.000372958013726303 0.000166762226435371 -0.000416271182897595 -0.000341451597872809 -0.000341946229457775 -6.85406904061603e-06 3.90667610265852e-05 -0.000967693398832051 -0.00202449695747189 -2.49619818839555e-05
"326" -0.000108901816058116 -0.000139510040802506 -0.000281789418445353 -0.000166817437379181 -8.7412380195136e-06 0.000147588452546754 0.000334594692541134 0.000146313822152896 -0.000423084541007259 -0.000359657793797202 -0.000339151488985697 -8.03194989097414e-07 3.74681687933947e-05 -0.000938706797880488 -0.0018716650865102 4.95352453557892e-05
"327" -0.000124758255169762 -0.000144793571461979 -0.000282081758696109 -0.000168610117625869 -9.94115901631817e-06 0.000131345265300072 0.000295579477141886 0.000125252756468417 -0.000434450248152469 -0.000377750318227635 -0.000338263183986235 5.29721873579374e-06 3.34830762141744e-05 -0.000901745280512111 -0.00171479023726983 0.000123513116304335
"328" -0.000139230467509006 -0.000148229989274332 -0.00028080771225126 -0.000168251378713079 -1.1074404021369e-05 0.000114357092638162 0.000256189447706128 0.000103735442537098 -0.000450210077779468 -0.000395692850265623 -0.00033928909916768 1.14493394245261e-05 2.7114177233992e-05 -0.000856989975632689 -0.00155476443219746 0.000196591556187537
"329" -0.000152238640036087 -0.000149814564293564 -0.000278063227225653 -0.00016582844111153 -1.21744005760446e-05 9.67139011058454e-05 0.000216698256654767 8.19127632129118e-05 -0.000470174323992034 -0.000413443070448266 -0.000342232858267322 1.76631370275278e-05 1.83807129694202e-05 -0.000804691509115198 -0.00139248307375882 0.000268383864478605
"330" -0.000163700835552052 -0.000149550248883513 -0.000273944520117507 -0.000161437786436718 -1.32683261923843e-05 7.85109892145385e-05 0.000177380036621653 5.99559419987852e-05 -0.000494120155137309 -0.000430949540038978 -0.000347070908208704 2.39629271164685e-05 7.32237834112046e-06 -0.000745172434007501 -0.00122884479513703 0.000338510080871263
"331" -0.000173553177939194 -0.000147460033875908 -0.000268569025185461 -0.000155197483827866 -1.43821359495903e-05 5.98474377145529e-05 0.000138500420227943 3.8031173319718e-05 -0.000521792917627523 -0.000448164574797496 -0.000353772349305377 3.03735792838554e-05 -6.01268527743173e-06 -0.00067883144292944 -0.0010647341195367 0.000406587134218923
"332" -0.000181734936694902 -0.000143574500888119 -0.000262055889286015 -0.000147234735111455 -1.5541840394103e-05 4.08251518452004e-05 0.000100317505765959 1.63120585871988e-05 -0.000552913192451409 -0.000465029027767018 -0.000362283842009108 3.69294794327349e-05 -2.15540682921881e-05 -0.000606139747821488 -0.000901022657303093 0.000472247266449658
"333" -0.000188205895873165 -0.000137941647729696 -0.000254528875112957 -0.000137697610424975 -1.67661534301783e-05 2.15503177308824e-05 6.30732496932258e-05 -5.04018275165946e-06 -0.000587166602984829 -0.000481481785554487 -0.000372537305246964 4.36661601531602e-05 -3.92154037085464e-05 -0.000527643652569509 -0.000738552909861911 0.000535127187853188
"334" -0.000192932069006671 -0.000130611905980156 -0.000246121812491168 -0.000126737735017593 -1.80685583909898e-05 2.1315533624094e-06 2.70060618990054e-05 -2.58467865506907e-05 -0.00062422580042448 -0.000497456573384636 -0.00038445818152799 5.0625325014211e-05 -5.89011081394439e-05 -0.000443953433960368 -0.000578133174244488 0.000594896192617874
"335" -0.000195895538424742 -0.000121652753646121 -0.000236971277428736 -0.000114521058880455 -1.94563293594113e-05 -1.73196348260286e-05 -7.66341175407333e-06 -4.59528989235825e-05 -0.000663740777963256 -0.00051288326233966 -0.000397940418576316 5.7846274324584e-05 -8.04939420554319e-05 -0.000355755418595436 -0.000420537435842607 0.000651233119403704
"336" -0.000197087434970471 -0.000111140462602524 -0.00022721632174891 -0.000101222250822459 -2.09329980129371e-05 -3.66891976363551e-05 -4.07324869557107e-05 -6.51925436616891e-05 -0.000705344784120155 -0.000527691765742422 -0.000412879871217512 6.53700168705741e-05 -0.000103866171112608 -0.000263795119059126 -0.000266492866446493 0.000703859004353213
"337" -0.000196518107997146 -9.91583717675343e-05 -0.000216998448550699 -8.70186456197329e-05 -2.24900286731419e-05 -5.58694646037052e-05 -7.20119552875807e-05 -8.34229060783409e-05 -0.000748661586862518 -0.000541809112789628 -0.000429151844052677 7.32384152850339e-05 -0.000128868252109901 -0.000168874432687601 -0.0001166808087564 0.000752519032114949
"338" -0.000194210920153724 -8.57997893400694e-05 -0.000206460472406482 -7.20973037247666e-05 -2.41199375234502e-05 -7.47434840429519e-05 -0.000101336322545725 -0.000100499953938763 -0.000793305831703476 -0.000555163855805211 -0.000446620800519386 8.14862443947935e-05 -0.000155346796989638 -7.1848865315e-05 2.82693930489334e-05 0.000796994747681613
"339" -0.000190207145205671 -7.11686591950302e-05 -0.000195740451934764 -5.66434865490805e-05 -2.58014477600363e-05 -9.32016659879858e-05 -0.000128555024630954 -0.000116296948408793 -0.000838887315282034 -0.0005676829149591 -0.000465141304086501 9.01432288652783e-05 -0.000183120891332543 2.63822399646488e-05 0.000167781245039332 0.00083711308217519
"340" -0.000184565609422404 -5.53716282269386e-05 -0.000184980929101705 -4.08432435964471e-05 -2.75076473187016e-05 -0.000111134765919861 -0.000153546844836564 -0.000130695787517194 -0.000885020301982109 -0.000579303419333859 -0.000484561534359627 9.92386345184513e-05 -0.000212004185622076 0.000124893912232122 0.000301333723438174 0.000872748358996886
"341" -0.0001773559938072 -3.85249175994128e-05 -0.000174313010524649 -2.48784543071033e-05 -2.92090959197761e-05 -0.00012843723807375 -0.000176204457323473 -0.000143597478181759 -0.000931319730607649 -0.000589956942797616 -0.000504715317288351 0.000108792636501557 -0.000241794133284405 0.000222733431476805 0.000428456700894609 0.000903822247317176
"342" -0.000168674027371566 -2.07547449397765e-05 -0.000163869966549893 -8.93407841878683e-06 -3.08657992894189e-05 -0.00014500992431753 -0.000196454657418144 -0.000154915112817333 -0.000977405767438542 -0.0005995925248368 -0.000525438521974729 0.000118812453594722 -0.000272277982740667 0.00031893855929958 0.000548736231410307 0.000930301644987887
"343" -0.000158628793365543 -2.18830700612021e-06 -0.000153775313591878 6.82000787990053e-06 -3.24327523143541e-05 -0.000160757729432928 -0.000214244789107248 -0.000164581173323068 -0.00102290837061315 -0.000608159252546353 -0.000546550626703099 0.000129301329130039 -0.000303231937629204 0.000412551305771535 0.000661812870141811 0.000952211887719585
"344" -0.000147351865175675 1.70354573373363e-05 -0.000144147601481949 2.22141544543647e-05 -3.38725246160959e-05 -0.000175594853787956 -0.000229547190043714 -0.0001725472062674 -0.00106747573832144 -0.000615617490514689 -0.000567877900668031 0.000140249646749362 -0.000334422457185463 0.000502626031765433 0.000767383376461429 0.000969624629339847
"345" -0.000134981440860988 3.67752077588241e-05 -0.000135100079349655 3.70899848447209e-05 -3.51314138165399e-05 -0.000189442340880094 -0.000242360561030753 -0.000178777047796106 -0.00111076939807863 -0.000621936707422542 -0.000589238114747237 0.00015163414742526 -0.000365611385196393 0.000588245042348423 0.000865198789579646 0.000982672556379277
"346" -0.00012168214105955 5.68803578767437e-05 -0.000126737657241282 5.12975369579533e-05 -3.61672164842224e-05 -0.000202231109066862 -0.00025271450296796 -0.000183262731675357 -0.00115246905230557 -0.000627103186653531 -0.000610455248535359 0.00016342182313178 -0.000396552898494798 0.000668529599642645 0.000955055698156279 0.000991528176921085
