"V1" "V2" "V4" "V5" "V7" "V8" "V10" "V11" "V13" "V14" "V15" "V17" "V18" "V20" "V21" "V23"
"1" 0.000153720502536035 -0.000564158738528787 4.89509156681269e-05 0.000445371432250167 0.000366916903158543 0.000373411813784781 0.000295173794217782 -0.000156421945362333 0.00106863051240425 -0.000242799359178124 0.00133419419998477 0.000309016413338064 0.00116463398943361 0.000681235716809188 0.000566388561220503 -0.000484680627706233
"2" 0.000155499681079919 -0.00059601394033142 3.94335096873066e-05 0.000430225129697257 0.000345129688297341 0.000363316364555069 0.000281995702864907 -0.000164573001492708 0.00107668145077005 -0.000256021606323213 0.00133560131805668 0.000301404130830915 0.00115647171553796 0.000608419526881394 0.000468598211059547 -0.000556861818751961
"3" 0.000158021265504667 -0.000626051567886655 2.78413337770281e-05 0.000412289465034631 0.000321256861380315 0.000351809151299319 0.000268284868669366 -0.000172739664262033 0.00108520634202399 -0.00026721831929623 0.00133452903137125 0.000294092453233704 0.00114738009601308 0.00053276484828638 0.000374135535552798 -0.000628380626215149
"4" 0.000161414457180778 -0.000653943339937196 1.43114868272724e-05 0.000391726312679028 0.000295602356725504 0.000339062276302576 0.000254194479706738 -0.000180862904639034 0.0010942668578352 -0.000276217567186634 0.00133110501761581 0.000287001176563929 0.00113741141845221 0.000454846097425314 0.000283200358780221 -0.000698724444254346
"5" 0.000165791746221914 -0.000679383396553903 -9.9490527051424e-07 0.000368737922229113 0.000268486421776848 0.000325248598201645 0.00023986442153052 -0.000188888145755844 0.00110389461251199 -0.000282888265361267 0.00132547679772611 0.00028004769397888 0.00112663025849117 0.000375333624005479 0.000195972178449352 -0.000767400802476788
"6" 0.000171233930013885 -0.000702100871277566 -1.78907604711491e-05 0.000343554641211051 0.000240233953408902 0.000310538963164845 0.000225415296978455 -0.000196766696472319 0.00111408963885471 -0.00028714390418395 0.0013177993884323 0.00027315707709726 0.00111510023540835 0.000294992045564147 0.000112618477656286 -0.000833917412856154
"7" 0.000177787731128816 -0.000721869590838928 -3.61655465943485e-05 0.000316436137321731 0.000211169390948478 0.00029509535288552 0.000210951084137495 -0.000204467005488575 0.00112481449856706 -0.000288938739306342 0.00130824871690522 0.000266246985083102 0.00110291163303765 0.000214660194045824 3.32879734892884e-05 -0.000897814481217642
"8" 0.000185473794985008 -0.000738491773681709 -5.55926909277463e-05 0.000287668046631603 0.000181627704595716 0.000279078177543497 0.000196558813340597 -0.000211952932539565 0.00113599850892306 -0.000288274835029666 0.00129700431522385 0.000259249924154913 0.00109015102382367 0.000135255676526989 -4.18829443599703e-05 -0.000958631823231521
"9" 0.000194264860122601 -0.000751819830978091 -7.59395602747023e-05 0.000257543121997436 0.000151927825285347 0.000262631564436623 0.00018230260991239 -0.000219206984988074 0.00114753802759272 -0.000285196755836219 0.00128424966978341 0.000252100553785177 0.0010769230304219 5.77562696541807e-05 -0.00011276320643455 -0.00101593340216768
"10" 0.000204112245264035 -0.000761751200042514 -9.69566260856279e-05 0.00022637536180778 0.000122389313705068 0.000245898294373268 0.000168234866476002 -0.000226202941613872 0.00115929384321922 -0.000279793276474906 0.00127016953192811 0.00024474020920487 0.00106334440528682 -1.68110325765397e-05 -0.000179233781579373 -0.00106929258533004
"11" 0.000214931337034162 -0.00076821590114755 -0.000118400520163322 0.000194478755540107 9.33244740165501e-05 0.000229012477488401 0.000154388794159617 -0.000232926493662616 0.00117110060857105 -0.000272194023830401 0.00125494890418865 0.00023712604617579 0.00104953409873358 -8.739005346396e-05 -0.000241177631115212 -0.00111829829620897
"12" 0.000226606773352182 -0.000771197793909666 -0.000140016486345738 0.000162163090049754 6.50282651711263e-05 0.000212098045065923 0.000140789554751829 -0.000239361160090328 0.00118276320137079 -0.000262557693674048 0.00123876287354035 0.000229218818218905 0.00103562172056804 -0.000152910649823427 -0.00029847933012395 -0.00116255021698742
"13" 0.000239005624264812 -0.000770712131716216 -0.0001615639384921 0.000129739677046554 3.7783645759218e-05 0.000195270232594802 0.000127455315506591 -0.000245489468843097 0.00119407242904752 -0.000251079225232231 0.00122178360245559 0.000220994039805851 0.00102174008212378 -0.000212314259470159 -0.000351031093340608 -0.0012016632510281
"14" 0.000251971915005992 -0.000766813595622575 -0.000182803300659522 9.75064054011631e-05 1.18612494901895e-05 0.000178648733717425 0.00011439303922894 -0.000251289241639963 0.00120479928816797 -0.000237978237809658 0.00120416689970905 0.000212435110031596 0.00100801941661857 -0.000264554815933076 -0.000398717257049135 -0.00123526236291286
"15" 0.000265335070930699 -0.000759588789528796 -0.000203510296351278 6.57434852046881e-05 -1.24883015054615e-05 0.00016233582401348 0.000101614657470661 -0.000256736890571082 0.00121470347277753 -0.000223489195759584 0.00118605790878367 0.000203537238411702 0.000994599495577721 -0.000308638462701486 -0.000441427302959179 -0.00126298931656986
"16" 0.000278920046736421 -0.000749156527783726 -0.000223465267612158 3.47187047197661e-05 -3.50367847225411e-05 0.000146437216307425 8.91266725428769e-05 -0.000261801656999106 0.0012235441635257 -0.000207864826484298 0.0011675883792982 0.000194305177213543 0.000981609042294494 -0.000343628624112985 -0.000479052674133645 -0.00128450581337759
"17" 0.000292546273125645 -0.00073566104661249 -0.000242468419103752 4.67677666850803e-06 -5.55597578136805e-05 0.000131053950618152 7.69469787952489e-05 -0.000266444078457733 0.00123107718161573 -0.000191367534482643 0.00114887669486028 0.000184755446662453 0.000969176360579074 -0.000368665756638009 -0.000511488495060259 -0.00129948472787637
"18" 0.000306043343544343 -0.000719265900803424 -0.00026032847010275 -2.41538286258997e-05 -7.38674032569939e-05 0.000116291005279291 6.5091067852635e-05 -0.0002706224465549 0.00123706905501823 -0.000174255446841804 0.00113002367808898 0.000174909177265101 0.000957418695358307 -0.000382984170996247 -0.000538629814851202 -0.00130762804304623
"19" 0.000319239442809876 -0.000700153651570327 -0.000276872244044297 -5.15716297561701e-05 -8.97810006182233e-05 0.000102243751737749 5.35893235822084e-05 -0.000274286857048936 0.00124129669407055 -0.000156794388517728 0.00111112126056678 0.000164796662649104 0.000946447507953729 -0.000385923468866705 -0.000560384192941754 -0.00130865844715859
"20" 0.000331984179137935 -0.000678524146165315 -0.000291940771895286 -7.7392275643113e-05 -0.000103151981358462 8.90100627862779e-05 4.24775272463336e-05 -0.000277378420721872 0.00124355436358938 -0.000139232691548287 0.00109224052076148 0.000154454551806416 0.00093635922522965 -0.00037693695626686 -0.000576668464192723 -0.00130234002881204
"21" 0.00034414106613467 -0.00065458640620031 -0.000305387963765245 -0.000101458930642035 -0.000113847737409434 7.66893841775079e-05 3.17969861137714e-05 -0.000279838939411451 0.00124366036669866 -0.000121812137793669 0.00107344670143943 0.000143924637817979 0.000927240314111206 -0.000355611999378161 -0.000587413620580384 -0.00128846578199505
"22" 0.000355592867801606 -0.000628556093904775 -0.000317085151565348 -0.000123630223979672 -0.000121755041013987 6.53758925504619e-05 2.16081827608254e-05 -0.000281603776009341 0.00124145650447478 -0.000104759822522139 0.00105479338120354 0.000133252560920472 0.000919156878304726 -0.000321664380292422 -0.000592568353220518 -0.00126687333805541
"23" 0.00036623921430088 -0.000600660204550011 -0.000326923023530195 -0.000143794488614719 -0.000126798482973938 5.51608131133679e-05 1.19682020024163e-05 -0.000282609729711938 0.00123680838393539 -8.82890613302001e-05 0.00103631880476475 0.000122489804105668 0.000912164027910422 -0.000274956589823093 -0.000592101714315239 -0.00123745494632256
"24" 0.000376011768054092 -0.000571128140637612 -0.000334800406761211 -0.000161852882676756 -0.000128917002380547 4.61316227597629e-05 2.94715199402722e-06 -0.00028279090187156 0.00122962278002078 -7.25857388972801e-05 0.00101805940335085 0.000111683577117261 0.000906300887434345 -0.000215493750006207 -0.000586015359916699 -0.00120015930847615
"25" 0.000384854698935334 -0.000540194197925895 -0.000340635553891476 -0.000177732324784081 -0.000128081545237621 3.83705451126525e-05 -5.38362712820774e-06 -0.0002820900861842 0.00121982715687919 -5.78239543347363e-05 0.00100004050835357 0.000100888823679225 0.000901581991091282 -0.000143423662166018 -0.00057433253158812 -0.00115498991428676
"26" 0.000392740409711781 -0.000508089389192698 -0.000344367940999885 -0.00019137789136521 -0.000124293132733891 3.19520930394242e-05 -1.29500070385479e-05 -0.000280456819890091 0.0012073960186613 -4.41455714843158e-05 0.000982288467639923 9.0155220022006e-05 0.000898005731512843 -5.90556647546575e-05 -0.000557112910103917 -0.00110202604717538
"27" 0.000399660983527455 -0.000475055639700404 -0.000345945782136075 -0.000202753209048628 -0.000117579876848304 2.69393666111655e-05 -1.96739612031698e-05 -0.000277843749672909 0.00119232694036517 -3.16727739923776e-05 0.000964816493506 7.95300316028458e-05 0.000895553594033169 3.71636130148628e-05 -0.000534445604112691 -0.00104141301300126
"28" 0.000405626562799809 -0.000441331321959957 -0.000345344435809877 -0.00021184291994828 -0.000108007233699266 2.33846534674575e-05 -2.5487646707464e-05 -0.000274219882369333 0.0011746579773374 -2.05130186994554e-05 0.000947642351753864 6.90592133267324e-05 0.000894178987912539 0.000144640390595405 -0.000506454074700558 -0.000973384456466575
"29" 0.000410670260844333 -0.000407154164607685 -0.000342545529164704 -0.000218648877320088 -9.56642106230103e-05 2.13277421028129e-05 -3.03216277884745e-05 -0.00026956629838023 0.00115445772131388 -1.07350539135633e-05 0.000930778277163326 5.87882632075059e-05 0.000893824586740114 0.00026263066245879 -0.000473309367028403 -0.000898246629814694
"30" 0.000414829263531924 -0.000372764739039816 -0.00033756764976773 -0.00022319130775155 -8.06790091280829e-05 2.07909930371981e-05 -3.41148692353655e-05 -0.000263883862734771 0.00113183009640271 -2.4007093172388e-06 0.000914235295755635 4.87520313214109e-05 0.000894404776948261 0.000390262495238818 -0.000435211798351575 -0.00081639725533301
"31" 0.000418166676440302 -0.00033840833923769 -0.00033043026526361 -0.000225511634933958 -6.32147234330716e-05 2.17859512079406e-05 -3.68215243432724e-05 -0.000257184079774771 0.00110690668929103 4.46197720784493e-06 0.000898025034254489 3.89859950393906e-05 0.000895827174904294 0.000526529009615333 -0.000392408540540987 -0.000728314629693793
"32" 0.000420744741653021 -0.00030431792756836 -0.000321185930902392 -0.000225666314896558 -4.3451440245041e-05 2.42970664921622e-05 -3.83986917379452e-05 -0.000249502292981782 0.00107984694734173 9.83795970203227e-06 0.000882154519015654 2.9517496488443e-05 0.000897967332728637 0.000670306928758889 -0.000345182328635028 -0.000634562896036464
"33" 0.000422641359769188 -0.000270736287769531 -0.000309900255567263 -0.000223727799074998 -2.16187102121607e-05 2.8299800854765e-05 -3.88235248566219e-05 -0.000240890386459846 0.00105083900567045 1.37360281035765e-05 0.000866636577200975 2.03698611146017e-05 0.000900693950902949 0.0008203533777782 -0.0002938537870527 -0.000535793269660772
"34" 0.000423929140762085 -0.000237898016852752 -0.000296664663406774 -0.000219790813208651 2.03285177536475e-06 3.37443567473404e-05 -3.80897924189672e-05 -0.000231424596318005 0.00102009132915718 1.61810955844016e-05 0.00085147928439271 1.1555355756469e-05 0.000903861586520199 0.000975337341270275 -0.000238783916654943 -0.000432734099166108
"35" 0.000424688171516301 -0.000206033634460723 -0.000281579349672027 -0.000213959512828824 2.72315043076834e-05 4.05622830277414e-05 -3.61979735625519e-05 -0.000221191664650458 0.000987830562912467 1.72089474261131e-05 0.000836688703677233 3.08247827513893e-06 0.000907305453687011 0.00113383218835743 -0.000180368454481277 -0.000326184955487204
"36" 0.000424993245817355 -0.000175374960345373 -0.000264777190848931 -0.000206363165708299 5.36778096090317e-05 4.86703748427711e-05 -3.31749100587129e-05 -0.000210307404926084 0.000954295696706633 1.68799789653963e-05 0.000822271314609338 -5.03723976745404e-06 0.000910858769525551 0.00129435907813192 -0.00011902793663024 -0.000217009851478708
"37" 0.0004249228072076 -0.000146141543016059 -0.000246401339782519 -0.00019713659072622 8.10463461636621e-05 5.79602858134119e-05 -2.9058699216967e-05 -0.000198894558954686 0.000919738359047607 1.52548628847176e-05 0.000808233435021129 -1.28078146487039e-05 0.000914343608425342 0.00145538019424537 -5.52137241715989e-05 -0.000106123217315126
"38" 0.000424542847974749 -0.000118537602887721 -0.000226607403066817 -0.000186429565504976 0.000109011931928046 6.83142299029867e-05 -2.39046931442363e-05 -0.000187093959262635 0.000884415105387499 1.24184086829971e-05 0.000794577792902721 -2.02368114369575e-05 0.000917575733351544 0.00161532584507636 1.05933535973149e-05 5.51775511650304e-06
"39" 0.000423913076568911 -9.27683556284413e-05 -0.000205576361010176 -0.00017440925065516 0.000137220588417484 7.95934042009531e-05 -1.7783684640716e-05 -0.000175062723231701 0.000848583326601821 8.4502265407746e-06 0.000781297709806947 -2.73246762374124e-05 0.000920385604041045 0.00177262296451892 7.79150535490119e-05 0.000116932861233962
"40" 0.000423088418356069 -6.90172849427098e-05 -0.00018348796657839 -0.000161243765805491 0.000165327478822475 9.16515078763196e-05 -1.07841352945871e-05 -0.000162960122632324 0.000812497691124481 3.44490244749262e-06 0.000768393524398663 -3.40883597504669e-05 0.000922588185666051 0.00192570917749692 0.000146238904784132 0.000227126258639989
"41" 0.000422107763662483 -4.74477463688146e-05 -0.000160537626902679 -0.00014711533901097 0.000192987313122729 0.000104327116644524 -3.00045710966337e-06 -0.000150951287356343 0.000776402093259456 -2.5029362139632e-06 0.000755851608644875 -4.05335654458123e-05 0.000924024253766259 0.00207305914283373 0.000215065248886077 0.000335111170556364
"42" 0.000421004108640867 -2.82103737893476e-05 -0.000136931753495357 -0.000132210652547886 0.000219855899133521 0.000117448587568572 5.45327413064619e-06 -0.000139208372705372 0.000740521771435575 -9.29301522304588e-06 0.000743654402202063 -4.66685890597674e-05 0.000924533197328402 0.0022132108107637 0.000283888275444262 0.000439920389459738
"43" 0.000419795846993452 -1.1432296237312e-05 -0.000112870108738159 -0.000116720584593971 0.000245606632222564 0.000130844985909329 1.44555708604691e-05 -0.000127897105845808 0.000705077514272017 -1.68298454676008e-05 0.000731781274036431 -5.25075351435113e-05 0.000923978098322186 0.00234477525673671 0.000352206275014958 0.00054062491866769
"44" 0.000418487456340671 2.78782230798429e-06 -8.85628744028658e-05 -0.000100836022090585 0.000269928922877989 0.000144337544488343 2.38810607188779e-05 -0.000117178175219037 0.000670256230138121 -2.50161267380947e-05 0.00072019853481166 -5.80464473750211e-05 0.000922241461761932 0.00246648681918884 0.000419541555111892 0.000636354047172231
"45" 0.000417075090000382 1.43747436917371e-05 -6.42096041559515e-05 -8.47466093839277e-05 0.000292538184154447 0.000157748891838683 3.35938095396698e-05 -0.000107205510719923 0.000636228240681826 -3.37601517932971e-05 0.000708871331578726 -6.32877995250241e-05 0.000919219868653372 0.00257718650083511 0.000485423874120793 0.000726307896379364
"46" 0.000415538546773076 2.32789593455488e-05 -4.00130140128388e-05 -6.86404265585295e-05 0.000313173506214148 0.000170902576858219 4.34524413461062e-05 -9.81154496873958e-05 0.000603129398337326 -4.29817279033138e-05 0.000697750971223231 -6.82296559869716e-05 0.0009148455874087 0.00267587103961654 0.000549418648591942 0.000809776941797876
"47" 0.000413853273774743 2.94815789743422e-05 -1.61648735330222e-05 -5.27023577561892e-05 0.000331605798109315 0.000183627317812843 5.33179048429012e-05 -9.00383268110321e-05 0.000571072957059242 -5.25923316889641e-05 0.000686784763196173 -7.28595746184658e-05 0.000909066864405657 0.00276168599112464 0.000611109207728088 0.000886147464522193
"48" 0.000411978351803122 3.29922828365561e-05 7.1548334103511e-06 -3.71085818583426e-05 0.000347645180905225 0.000195761903054376 6.30520575262856e-05 -8.30821757408445e-05 0.000540141506952685 -6.25258698549597e-05 0.000675911396131651 -7.7162592591887e-05 0.000901865027007687 0.00283394811743591 0.00067011385710226 0.000954916400013771
"49" 0.000409863747998826 3.38535300377432e-05 2.97721884377969e-05 -2.20212515082428e-05 0.00036113631181466 0.00020714990735596 7.25142944800714e-05 -7.73347123655736e-05 0.000510387437250042 -7.27154721824139e-05 0.000665064276535513 -8.11182739110371e-05 0.000893242623355494 0.00289215454859222 0.000726089187026402 0.00101569936715112
"50" 0.000407458147470586 3.21290984160431e-05 5.15354702095459e-05 -7.59924849036381e-06 0.000371957540281197 0.000217647719273412 8.1569073493437e-05 -7.28701107496176e-05 0.000481834638063259 -8.310543680444e-05 0.00065416811442346 -8.47029989847342e-05 0.000883237080376054 0.0029359834705087 0.000778718403308824 0.00106823422542944
"51" 0.000404695122192918 2.79166485212688e-05 7.22945545291144e-05 6.01425025774724e-06 0.000380032738160557 0.000227123651082428 9.00872155897994e-05 -6.9741038938121e-05 0.000454480431391361 -9.36476245719549e-05 0.000643147214606026 -8.78866393593041e-05 0.000871895735427998 0.00296529114654106 0.0008277228292704 0.00111238093984208
"52" 0.000401513041250042 2.13375018053795e-05 9.19323190510487e-05 1.86866198865972e-05 0.000385314417747454 0.00023546219950285 9.79457394669753e-05 -6.79764684495266e-05 0.000428300958397446 -0.000104298556164068 0.000631919091312227 -9.06427178229239e-05 0.000859301168898852 0.0029801191742157 0.000872851954316524 0.00114813124212321
"53" 0.00039784552175323 1.25321675530939e-05 0.000110327398693685 3.03042049029564e-05 0.000387802624764117 0.000242556112356676 0.000105028267579043 -6.75963564198384e-05 0.000403247173502334 -0.000115027746125485 0.000620400632919897 -9.29400251959531e-05 0.000845544257752461 0.00298067637525731 0.000913892821795826 0.00117559972656976
"54" 0.000393622637409317 1.67059238079939e-06 0.0001273923246677 4.07644623468932e-05 0.000387522301927652 0.000248321732500362 0.000111226706123887 -6.8592118640343e-05 0.000379252050432202 -0.000125804291601767 0.000608508973861064 -9.47472289549618e-05 0.000830742106194533 0.00296733725295387 0.000950659616437323 0.00119501863576102
"55" 0.000388777753266221 -1.10658816387084e-05 0.00014304650320499 4.99809760774341e-05 0.000384534440046569 0.00025268141340201 0.000116442898794234 -7.09466575108717e-05 0.000356238704590955 -0.00013660506288283 0.000596159384083022 -9.6037611417392e-05 0.000815013326788797 0.00294062404290386 0.000982989473436179 0.00120673139090347
"56" 0.000383254654367782 -2.54766486370574e-05 0.000157226465340559 5.78870278565215e-05 0.00037893154272883 0.00025558038113794 0.000120592570442909 -7.46281060997993e-05 0.000334114928898996 -0.000147408216464576 0.000583279885101461 -9.67896683155465e-05 0.000798490177558376 0.00290118934890348 0.00101074485411242 0.00121117796075011
"57" 0.000376992636847746 -4.13520353935496e-05 0.00016989468675957 6.44261487861454e-05 0.000370826981128476 0.000256975019111224 0.000123597138092171 -7.95888374707921e-05 0.000312783654735446 -0.000158199953666547 0.000569793688902778 -9.69850473341035e-05 0.000781315626438245 0.00284981148153685 0.00103381541494778 0.00120889637232517
"58" 0.000369943469389461 -5.84656194696373e-05 0.000181014054335131 6.9564561403221e-05 0.000360360864426609 0.000256843543618002 0.000125393164026103 -8.57689324069375e-05 0.000292144613795565 -0.000168957817753317 0.00055563480220358 -9.6611668788104e-05 0.000763622565978799 0.00278736620261177 0.00105210982255165 0.00120050642334662
"59" 0.000362070317155239 -7.65950557501684e-05 0.000190573975166275 7.32785213152844e-05 0.000347694832967173 0.000255172152386088 0.000125929102237697 -9.31041247186652e-05 0.000272093309056961 -0.00017966631066071 0.000540746222887779 -9.56708248095695e-05 0.000745547644656965 0.00271480741686674 0.00106555342740421 0.00118669199562244
"60" 0.000353335878858622 -9.55101331484353e-05 0.000198575056738327 7.55630864168288e-05 0.000333002083337735 0.000251966251793884 0.000125164501204503 -0.000101518822709973 0.000252533616162839 -0.000190310085310012 0.000525076065137346 -9.41598566171036e-05 0.000727229177887896 0.00263316455742109 0.00107409642993962 0.0011681959303814
"61" 0.000343727886018503 -0.000114978234359943 0.000205031849846756 7.64273124628136e-05 0.000316474963331591 0.0002472455677121 0.000123073595085356 -0.000110928436472666 0.000233370173367147 -0.000200868195902678 0.000508593041884219 -9.20997704459612e-05 0.000708787851891665 0.00254350291822417 0.00107770187279617 0.00114579821104902
"62" 0.000333232740585606 -0.00013477254394928 0.000209970737077535 7.58977375267863e-05 0.000298313566550608 0.000241042043751259 0.000119643839458616 -0.000121248807595919 0.000214514870663354 -0.000211320184167945 0.000491266225802937 -8.95089974846539e-05 0.000690344888012662 0.00244693427737835 0.00107635928404235 0.00112031765883961
"63" 0.000321853990897328 -0.000154666399983285 0.000213431995499095 7.40111680537133e-05 0.000278728787831781 0.000233406242235669 0.000114875648973614 -0.000132386493886585 0.000195892568027759 -0.000221643958089588 0.000473084194636976 -8.64169819236464e-05 0.000672010008330158 0.00234456805977182 0.00107006776964531 0.00109258749440113
"64" 0.000309613610377251 -0.000174445706748138 0.000215472040330745 7.08186639460381e-05 0.000257934850514278 0.000224398709171031 0.000108781338399809 -0.000144246411955209 0.000177430497181155 -0.000231810406688385 0.000454047532906493 -8.28610111528848e-05 0.000653878394889748 0.00223753101861476 0.00105885906372173 0.00106345273540045
"65" 0.00029653227293576 -0.000193902431790008 0.000216155629195138 6.638682478571e-05 0.000236154324484802 0.000214093332048245 0.000101390771726184 -0.000156731241913537 0.000159073105523525 -0.000241789724556609 0.000434168258647905 -7.88887307534505e-05 0.000636039035135594 0.00212692656126157 0.00104278252949641 0.00103375624812658
"66" 0.000282653819392109 -0.000212839754290361 0.000215552524596694 6.07902252279683e-05 0.000213604539036654 0.000202572467072931 9.27436899120258e-05 -0.000169738199574514 0.000140773306737734 -0.000251549265457262 0.000413470932478763 -7.45509780902049e-05 0.00061856666135829 0.00201383780704889 0.00102191267387541 0.00100432985104546
"67" 0.000268031240753026 -0.00023107237190437 0.000213751292645534 5.41124780279841e-05 0.000190506277023952 0.000189936833275221 8.28927921238065e-05 -0.000183166352642916 0.000122497368898729 -0.000261056532481358 0.000391996636027139 -6.99086618428399e-05 0.000601524687041217 0.00189932182075487 0.000996347788221169 0.00097598679598137
"68" 0.000252725874098189 -0.000248428793007225 0.00021084538789905 4.64501150437185e-05 0.000167075831406757 0.000176289600960908 7.19032917205784e-05 -0.000196913063946536 0.000104221812381363 -0.000270272473122281 0.000369799446972995 -6.50168404066446e-05 0.000584968433980383 0.00178438312981155 0.000966213432528786 0.0009495091058322
"69" 0.000236814972320039 -0.000264754130863379 0.00020693632405696 3.79074103455631e-05 0.00014353034003241 0.000161747625747571 5.98542370864873e-05 -0.000210872518361068 8.59318582735769e-05 -0.000279158020681559 0.000346941089480098 -5.99473557835965e-05 0.000568936629167318 0.00166998409611438 0.000931661903658054 0.000925644649872161
"70" 0.000220379349337174 -0.000279904805048061 0.000202131642979949 2.8594754274316e-05 0.000120076237823084 0.000146435801812872 4.68329527564653e-05 -0.000224939001945431 6.76276418374731e-05 -0.000287669363467115 0.000323499413366335 -5.47662958225237e-05 0.000553465078214236 0.00155702810661086 0.000892867533927417 0.000905105802597887
"71" 0.000203515145146006 -0.000293755754301358 0.000196550686134466 1.86311842941185e-05 9.69192361446612e-05 0.000130483072719707 3.29395459941938e-05 -0.00023900992126672 4.93178690235745e-05 -0.000295764077973654 0.000299560094936437 -4.95380773365039e-05 0.000538578466041366 0.00144635714587347 0.000850039464090225 0.000888550344580027
"72" 0.000186320561375873 -0.000306198359220644 0.000190312737911385 8.13403887320995e-06 7.42513946582747e-05 0.00011402724509174 1.82836051019991e-05 -0.000252977816352247 3.10200936301601e-05 -0.00030340146898661 0.000275220969623689 -4.43366609355872e-05 0.000524291538178603 0.00133875321776122 0.000803413627546729 0.000876595203405386
"73" 0.000168901471234935 -0.000317138941020136 0.000183540256150245 -2.7673364673065e-06 5.22547822834935e-05 9.72084432164999e-05 2.97941704520377e-06 -0.0002667407512547 1.27612642096748e-05 -0.000310534703497634 0.000250586787208743 -3.92276581055062e-05 0.000510614559712186 0.00123492698983645 0.000753249793422219 0.000869796433894528
"74" 0.000151375249934353 -0.000326502575275993 0.000176365993343136 -1.39472507980617e-05 3.11085274375006e-05 8.01680610473398e-05 -1.28479726027964e-05 -0.000280193878920195 -5.42544369778895e-06 -0.000317124554920952 0.000225772460545115 -3.42757561290835e-05 0.000497552957497967 0.0011355256040402 0.000699836799733972 0.000868649934500506
"75" 0.000133858492479948 -0.000334231113812912 0.000168921186945686 -2.52769248781108e-05 1.09746175050269e-05 6.30571882265702e-05 -2.90742831033545e-05 -0.000293239860555325 -2.34981186871666e-05 -0.000323129402135623 0.000200891889342032 -2.95422277290573e-05 0.000485099515623341 0.00104112294423794 0.000643484401914174 0.000873589370465162
"76" 0.000116470657545412 -0.000340277907030155 0.000161335708088451 -3.66261684619898e-05 -7.99710685062868e-06 4.60168919608476e-05 -4.55589478355246e-05 -0.00030577328926088 -4.14145892859613e-05 -0.000328511711348266 0.000176069566172574 -2.50893171582682e-05 0.000473253765103611 0.000952224046655454 0.000584528730907983 0.00088498623289979
"77" 9.93392716735149e-05 -0.000344617677082842 0.000153743637883232 -4.78654334775325e-05 -2.56685329035134e-05 2.91953149003724e-05 -6.21698510907702e-05 -0.000317705510582436 -5.91194544605109e-05 -0.000333228644879038 0.000151433777490355 -2.09670482777469e-05 0.000462003284325555 0.000869265286309189 0.000523311974530711 0.000903132729365609
"78" 8.25805326367226e-05 -0.000347240153402708 0.000146276559978142 -5.88720140956356e-05 -4.19125086564522e-05 1.2730432177874e-05 -7.87674610221028e-05 -0.000328939201176123 -7.65616484936821e-05 -0.000337254383440328 0.00012710699528067 -1.72253865255099e-05 0.000451335239471261 0.000792614184045455 0.000460200341577314 0.000928253664869074
"79" 6.63230932171827e-05 -0.000348144768948885 0.000139064594950216 -6.951951473811e-05 -5.66213056138984e-05 -3.23317464471432e-06 -9.52137549274584e-05 -0.000339387151657244 -9.36826586005379e-05 -0.000340553870470915 0.00010321871364507 -1.39055249247394e-05 0.000441234621412923 0.00072256852635116 0.000395555816025454 0.000960496093528916
"80" 5.06896993550913e-05 -0.000347349475198763 0.000132234977568009 -7.96897449046029e-05 -6.96975932256699e-05 -1.85636781297623e-05 -0.000111378626521463 -0.000348964705788583 -0.000110425009897374 -0.00034310248476368 7.98921789438246e-05 -1.10452251891116e-05 0.000431685751506104 0.000659361418427045 0.000329760877023045 0.000999928786969616
"81" 3.57968801171944e-05 -0.000344886589020716 0.000125912951418626 -8.92689948038934e-05 -8.10658987752305e-05 -3.31342757769846e-05 -0.000127122381331385 -0.000357595416898024 -0.00012672656734825 -0.000344879080361862 5.72522783313768e-05 -8.67093375885431e-06 0.000422669572940773 0.000603156979581396 0.000263186127763035 0.00104653700535958
"82" 2.1761333355785e-05 -0.000340797774239652 0.000120213131007345 -9.81514934689178e-05 -9.06562965159486e-05 -4.68263330825865e-05 -0.000142317572563924 -0.000365208434759937 -0.000142528907835147 -0.00034586740733342 3.54157820704743e-05 -6.81091742962244e-06 0.000414170370026844 0.00055406036825531 0.000196201006011542 0.00110022363077749
"83" 8.69348592112899e-06 -0.000335137215018392 0.00011524476717116 -0.00010623356301774 -9.84224759257938e-05 -5.95238995342805e-05 -0.00015684329872755 -0.000371736621575682 -0.000157771907086947 -0.000346050924821622 1.44962502133877e-05 -5.47555554007079e-06 0.000406162468015245 0.000512107111881819 0.000129169262511156 0.00116080003601319
"84" -3.30067294987042e-06 -0.000327973149447508 0.000111115059854622 -0.00011342365219612 -0.000104337347466491 -7.11253484443609e-05 -0.000170581956154181 -0.000377126552962502 -0.000172395091767092 -0.000345429845675148 -5.40054404084463e-06 -4.67705773076543e-06 0.000398633036814232 0.000477276139825579 6.243160905891e-05 0.00122799271439305
"85" -1.41236675405408e-05 -0.000319376112370403 0.0001079190663544 -0.000119637485551216 -0.000108379743433078 -8.15420585729804e-05 -0.000183428146156229 -0.000381324361993675 -0.000186345271300757 -0.000343997595659312 -2.41808759512868e-05 -4.41562715519991e-06 0.000391552913343357 0.000449488243305477 -3.6787027571437e-06 0.00130143313905626
"86" -2.36884571908332e-05 -0.000309433210475305 0.000105741480014976 -0.000124801350473168 -0.000110554363869791 -9.06906160909591e-05 -0.000195280411073642 -0.000384297225825296 -0.000199567613019294 -0.000341760148290972 -4.17550907385259e-05 -4.68960336200586e-06 0.000384904084124096 0.00042860523096931 -6.88587048340529e-05 0.00138065718420991
"87" -3.19110041347826e-05 -0.000298236419879532 0.000104660377073237 -0.000128851513659304 -0.000110877259256322 -9.85041875196321e-05 -0.000206050383318272 -0.000386011173619059 -0.000212008033141278 -0.000338729573051544 -5.8039487149955e-05 -5.48721557661308e-06 0.000378664353195246 0.000414435611513702 -0.000132821721466025 0.00146511181546582
"88" -3.87218458657389e-05 -0.000285882083720259 0.000104739187447929 -0.000131731254296012 -0.000109379225049071 -0.000104926234718531 -0.000215666283950891 -0.000386445231283444 -0.000223624026870755 -0.000334918932312648 -7.29758944963616e-05 -6.78749232520671e-06 0.000372811413691649 0.00040673622555249 -0.000195307385784292 0.00155414999786142
"89" -4.40621074610489e-05 -0.000272476598802202 0.000106032018947819 -0.00013340131836293 -0.000106107728962999 -0.000109912078088534 -0.000224060583172077 -0.000385590868397814 -0.000234372803383573 -0.000330353008372007 -8.65024914258563e-05 -8.5742074305973e-06 0.000367316500395077 0.000405219128623083 -0.000256085823018489 0.00164703457709019
"90" -4.78800497667343e-05 -0.000258126325192874 0.000108583044725601 -0.000133829593017742 -0.000101126279130552 -0.000113434166723889 -0.000231178074611964 -0.000383447362088988 -0.000244215996656443 -0.000325055644625834 -9.85806694118116e-05 -1.08127654071374e-05 0.000362162253308251 0.000409546857800273 -0.000314952415713267 0.00174294196989746
"91" -5.01403996175285e-05 -0.000242945984025359 0.000112419182521769 -0.000132996661477815 -9.45103132756972e-05 -0.000115475907996481 -0.000236983182175289 -0.000380024215327249 -0.000253124343140388 -0.000319065515859451 -0.000109175945019488 -1.34728761268843e-05 0.000357320794059198 0.000419348753816461 -0.000371727594151348 0.00184096918093133
"92" -5.08171485865463e-05 -0.000227048758209572 0.000117554201529525 -0.000130898331309127 -8.63506099740272e-05 -0.000116033435570964 -0.000241449707082688 -0.000375348359615136 -0.000261072168973247 -0.00031241790291161 -0.000118276338905471 -1.65147973426288e-05 0.000352768741072198 0.000434208471790523 -0.000426266857495663 0.0019401320426224
"93" -4.99029820857974e-05 -0.000210549787995743 0.000123994657787801 -0.00012754109609199 -7.67457572784446e-05 -0.000115120936958613 -0.000244568100358102 -0.000369444276963288 -0.000268043315746178 -0.000305160969835794 -0.000125872887289669 -1.98974801466789e-05 0.000348482283145159 0.000453682706121718 -0.000478450211080928 0.00203938697707455
"94" -4.73979467586117e-05 -0.000193567537678506 0.000131727516637627 -0.000122942632527599 -6.58059377899201e-05 -0.00011276047474994 -0.000246340384166433 -0.00036235733655049 -0.000274023891227309 -0.000297339494523359 -0.000131974445818371 -2.35739510231597e-05 0.000344431242472459 0.000477299334343874 -0.000528186026379089 0.00213762551444942
"95" -4.33204036238388e-05 -0.000176213427702177 0.000140728604223051 -0.00011713530771109 -5.36535063532902e-05 -0.000108990444096378 -0.000246779559399279 -0.000354135005551007 -0.000279014327704762 -0.000289014831143255 -0.000136608327944631 -2.74974987593116e-05 0.000340597341019106 0.000504562274851841 -0.000575403366026813 0.00223370795913753
"96" -3.76990608902411e-05 -0.000158606852699435 0.000150959000568511 -0.000110162485800468 -4.04193782876991e-05 -0.000103862037381838 -0.000245920854173779 -0.000344843837122628 -0.000283021184090848 -0.000280241017826716 -0.000139805662613861 -3.16168292954198e-05 0.000336955649995464 0.000534957586750817 -0.000620059908672131 0.0023264522037635
"97" -3.05829993245017e-05 -0.000140851445696574 0.000162373437127612 -0.000102080664981179 -2.6234180732083e-05 -9.74349664724277e-05 -0.000243798838397275 -0.000334546820953931 -0.000286054450508877 -0.000271084220091108 -0.00014161227123099 -3.58778254931125e-05 0.000333482041596922 0.000567956743963674 -0.000662136798340721 0.00241466701177885
"98" -2.20260146814726e-05 -0.000123060026650124 0.000174904659657061 -9.29559850910934e-05 -1.12414788815016e-05 -8.97837530687576e-05 -0.00024047674950608 -0.00032332570373244 -0.00028813984767429 -0.000261616086520732 -0.000142092843243922 -4.02279813689122e-05 0.000330156659865863 0.000603028635861723 -0.000701624803386287 0.00249715716452541
"99" -1.2109312964965e-05 -0.000105334029046098 0.000188474678002181 -8.28694756642129e-05 4.41845402532541e-06 -8.09928234897714e-05 -0.000236016843193479 -0.000311258599317645 -0.000289311432105335 -0.00025190592596148 -0.00014131869815029 -4.46125696616439e-05 0.000326959745164866 0.000639648993300536 -0.000738537512240971 0.00257275416114525
"100" -9.15609675820077e-07 -8.77686104056654e-05 0.000203002698306262 -7.19083102672835e-05 2.05949440569795e-05 -7.11537221789523e-05 -0.000230500173437167 -0.000298441754344345 -0.000289603839049446 -0.000242031746976268 -0.000139365946451412 -4.89767090437973e-05 0.000323873381844372 0.0006772837944202 -0.000772903380937521 0.00264031792343362
"101" 1.14525282639769e-05 -7.04587527453922e-05 0.000218388117431024 -6.01736188932243e-05 3.71449527757837e-05 -6.03704328290723e-05 -0.000224018542052679 -0.000284966850199754 -0.000289072465440377 -0.000232072229691889 -0.000136331005629513 -5.32642152369958e-05 0.000320883980764715 0.000715431246810669 -0.000804748934408282 0.00269877113488611
"102" 2.48781396492783e-05 -5.34864277743187e-05 0.000234522786307105 -4.77699415420881e-05 5.39216346914391e-05 -4.87513597113507e-05 -0.00021666515025253 -0.000270935708679655 -0.000287769661965834 -0.000222108237832395 -0.000132312806968606 -5.74251491472901e-05 0.000317975423131525 0.000753584682840542 -0.000834126527591208 0.00274710054587631
"103" 3.92411225681228e-05 -3.69330932696099e-05 0.000251289053221515 -3.48145498621581e-05 7.07868071298281e-05 -3.64110618243954e-05 -0.000208551179885975 -0.0002564511505146 -0.000285761718479321 -0.000212222776131326 -0.000127415934267848 -6.14103691137757e-05 0.000315142921716048 0.000791271108193896 -0.000861083017316927 0.00278438889534861
"104" 5.44020895774489e-05 -2.08656716028075e-05 0.000268565374679469 -2.14277795151836e-05 8.75944131176342e-05 -2.34742740843233e-05 -0.000199787551095003 -0.000241619648394731 -0.000283122555968162 -0.000202500380723729 -0.000121758047248141 -6.51683988605736e-05 0.000312378217798275 0.000828044337086701 -0.000885676251618031 0.00280982057101272
"105" 7.02119733459695e-05 -5.34720468925928e-06 0.00028621677046928 -7.73804132821215e-06 0.000104213571983239 -1.00621293263529e-05 -0.000190497607337411 -0.000226550665315866 -0.000279929491054862 -0.000193027839088323 -0.000115456112051642 -6.86530975503914e-05 0.000309673957420699 0.000863481856058728 -0.000907967569184878 0.0028226969917392
"106" 8.65181262173869e-05 9.56269602716851e-06 0.000304107126648371 6.12361406885872e-06 0.00012051659638482 3.69608456045853e-06 -0.000180803488064087 -0.000211351924820125 -0.000276265692934342 -0.000183885446025276 -0.000108631593546153 -7.18266077307177e-05 0.000307030542319649 0.00089719991625628 -0.000928013406889284 0.00282244440510307
"107" 0.000103159946579373 2.38213075289015e-05 0.00032209503049438 2.00219754490059e-05 0.00013638359932859 1.7673041637811e-05 -0.000170837013230234 -0.000196132977914997 -0.000272224410023606 -0.000175162757577149 -0.000101413393326987 -7.46493218644364e-05 0.000304449430956744 0.000928851914720032 -0.000945873757232899 0.00280863632319891
"108" 0.000119969659083832 3.73885782134442e-05 0.000340037276491835 3.38229805206989e-05 0.000151700656603187 3.17375079785789e-05 -0.0001607238438973 -0.000181001093872093 -0.000267895408145253 -0.000166936498504096 -9.39274131034726e-05 -7.70912418907524e-05 0.000301933657070625 0.00095812885622106 -0.000961605028208447 0.00278098031613435
"109" 0.000136778017277668 5.02312504805858e-05 0.000357778547649161 4.73875252182602e-05 0.000166359559222856 4.57619357891495e-05 -0.000150600278150839 -0.000166065322446714 -0.000263371009040675 -0.000159286190748297 -8.6293280052982e-05 -7.91258231766653e-05 0.000299487790055999 0.000984756094259783 -0.000975267842752473 0.00273933403422423
"110" 0.000153406591744827 6.23294651302814e-05 0.000375175952194621 6.05819934396546e-05 0.000180270096121561 5.96220636098735e-05 -0.000140592422927247 -0.000151427224966678 -0.000258749454333488 -0.000152288770178164 -7.86442412445577e-05 -8.07319559815998e-05 0.000297119649963239 0.00100850807194728 -0.000986912769218611 0.00268369751645743
"111" 0.000169688760994278 7.36608740597089e-05 0.000392081339946812 7.3275682259994e-05 0.000193346360523778 7.31944896682494e-05 -0.00013083119245155 -0.000137192292072345 -0.000254122195288762 -0.000146010805925233 -7.1092330785766e-05 -8.18987206316258e-05 0.000294834329117689 0.00102918822193739 -0.00099659497640732 0.00261421209871013
"112" 0.000185451818419162 8.42187427186897e-05 0.000408347467239924 8.53348977436355e-05 0.000205507203160625 8.63617380328245e-05 -0.000121436185427352 -0.000123450619712202 -0.00024958508109026 -0.000140517366068492 -6.37560030897942e-05 -8.26159224120854e-05 0.000292642994095242 0.00104664407229664 -0.00100435978592931 0.0025311576012263
"113" 0.000200528609598147 9.39978791110208e-05 0.000423826075766403 9.66401670763152e-05 0.000216691459270695 9.90120234882471e-05 -0.000112531305653228 -0.000110302653431942 -0.00024522515394044 -0.000135869100465806 -5.67472428340134e-05 -8.28848211925012e-05 0.00029055132966299 0.00106075460408959 -0.00101025088852134 0.00243493709014232
"114" 0.000214757385648314 0.00010299825818748 0.000438382334405097 0.000107071400470541 0.000226844327736005 0.000111040709542604 -0.00010422653332165 -9.78308877991739e-05 -0.000241131526576884 -0.000132111775161369 -5.01659496920841e-05 -8.27140167411108e-05 0.000288563774326092 0.00107143626616396 -0.00101430312947516 0.00232607100188563
"115" 0.000227985474618399 0.000111231373577069 0.000451881563656674 0.000116522539699956 0.000235914926207882 0.000122353607760827 -9.6623267626608e-05 -8.61217015249464e-05 -0.00023737752376418 -0.000129292429815915 -4.41065471414428e-05 -8.21153451498471e-05 0.000286693137338409 0.00107863349670616 -0.00101656235251635 0.00220519068554137
"116" 0.000240066724041122 0.000118704466570839 0.000464191660479153 0.000124887158220483 0.000243875327675787 0.000132863848353196 -8.98223112049572e-05 -7.52494111807925e-05 -0.000234042544987342 -0.00012744325364691 -3.86546999830982e-05 -8.11126561311617e-05 0.000284938515028933 0.00108231990088151 -0.00101704781242919 0.00207302152183955
"117" 0.000250872048032969 0.000125432725472133 0.000475199915978693 0.000132079131137205 0.000250694763267857 0.000142489620266785 -8.39080385212896e-05 -6.52842541469271e-05 -0.00023118418801255 -0.000126587282635467 -3.38813516441035e-05 -7.97350323905882e-05 0.000283305337441739 0.00108248967971086 -0.00101579374461457 0.00193036958850765
"118" 0.000260274607964334 0.000131434471045788 0.000484791489289834 0.000138013280844109 0.000256364623368884 0.000151168452609539 -7.89544850387608e-05 -5.62890606578326e-05 -0.000228864139932062 -0.000126745540156225 -2.98575329135113e-05 -7.80160131792395e-05 0.000281791960592022 0.00107916858983034 -0.00101281107339031 0.00177810781302718
"119" 0.000268167943307663 0.000136734235169772 0.00049286187242194 0.000142624491678324 0.000260871606529863 0.00015884174852089 -7.50195688951708e-05 -4.83147830966779e-05 -0.00022712941604908 -0.000127918782580252 -2.66283618822532e-05 -7.59963106564596e-05 0.000280401371558686 0.00107239520979504 -0.00100810769400066 0.00161717290367001
"120" 0.000274466402552551 0.000141351878948658 0.000499328164412938 0.000145852901814554 0.000264225594421991 0.000165466568992726 -7.2160382427986e-05 -4.14109321179944e-05 -0.000226013725188564 -0.000130104853556436 -2.42377134676035e-05 -7.37200995162428e-05 0.000279123188166913 0.00106221885709242 -0.0010016875979336 0.00144853888019148
"121" 0.000279086056724871 0.000145310949878856 0.000504105232393496 0.000147653022426217 0.000266439810511154 0.000171011964506693 -7.04107757068923e-05 -3.56141998662882e-05 -0.00022554941949437 -0.000133290426912087 -2.27110738478316e-05 -7.12429203176007e-05 0.000277955697542915 0.00104870959703217 -0.000993538622146038 0.00127321430004482
"122" 0.000281973247089317 0.00014864444520308 0.00050713187502881 0.000147994894296218 0.000267533806951581 0.000175458860953163 -6.97953933283115e-05 -3.09526492612984e-05 -0.000225750716450329 -0.000137446760102179 -2.20636716288216e-05 -6.86137364892132e-05 0.00027688605706938 0.0010319464786565 -0.000983644796946419 0.00109223178634381
"123" 0.000283082273268831 0.000151369068252074 0.000508350700786793 0.000146858410264338 0.000267535670752268 0.000178798070165124 -7.0323273685836e-05 -2.74478706571418e-05 -0.000226628163874744 -0.000142547959391847 -2.23003854766512e-05 -6.58913528448326e-05 0.000275903122995113 0.00101201371338015 -0.000971976864794499 0.000906632330572664
"124" 0.000282394765926132 0.000153520034471669 0.000507723468128693 0.000144238890532434 0.000266488579556063 0.00018103700193541 -7.19840526921857e-05 -2.51089905883572e-05 -0.000228175737116548 -0.000148543007119688 -2.34130482762449e-05 -6.31338538336927e-05 0.000274994085196998 0.000989010805355106 -0.000958492907403906 0.000717463534532106
"125" 0.000279904268521035 0.000155118212014681 0.000505228972902952 0.000140146144885631 0.000264432290650698 0.000182196083676092 -7.4761747579292e-05 -2.3936883848123e-05 -0.00023038282411836 -0.000155385635258775 -2.53782273707831e-05 -6.04005144279761e-05 0.000274145493206698 0.000963031375272987 -0.000943142020151551 0.00052576940400384
"126" 0.000275620202408581 0.000156195970117982 0.000500855177870303 0.000134601623985126 0.000261424650341307 0.000182304475906729 -7.86231928307364e-05 -2.39228077455442e-05 -0.000233231589485778 -0.000163014864782301 -2.81651380652906e-05 -5.77518802189078e-05 0.000273332491513893 0.000934190249635071 -0.000925855106226092 0.000332585885173657
"127" 0.000269579488819185 0.000156775975577279 0.000494607832245132 0.000127639486240014 0.000257520869889642 0.000181405662596055 -8.3524614989154e-05 -2.50524583688372e-05 -0.000236686016303078 -0.00017136114331203 -3.17334490853198e-05 -5.52450378661638e-05 0.000272541741742117 0.000902598132025336 -0.000906560766482919 0.000138930699819381
"128" 0.000261828837032414 0.00015688218309603 0.000486502575847059 0.000119307656068356 0.000252782732207236 0.000179549812636921 -8.94037085787924e-05 -2.72935224839079e-05 -0.000240712402969095 -0.000180349465815622 -3.60229832620039e-05 -5.29358286972882e-05 0.000271752000665131 0.000868373810026889 -0.000885171178254266 -5.41901802788579e-05
"129" 0.000252435836296106 0.000156541084128049 0.000476575645290052 0.000109667192648109 0.000247286109032092 0.000176806188089523 -9.6190078374778e-05 -3.06122319795358e-05 -0.000245266855887855 -0.00018990304015849 -4.0980461384052e-05 -5.0873306010735e-05 0.000270942603141101 0.000831643173353895 -0.000861591504754255 -0.000245796042500114
"130" 0.000241479900885027 0.00015577525317782 0.000464880561963651 9.87880043709917e-05 0.000241097493977713 0.000173245641922672 -0.000103801297243881 -3.49627371503276e-05 -0.000250293861193295 -0.00019993153663032 -4.65319818294123e-05 -4.91111637568541e-05 0.000270088913606427 0.000792539369365074 -0.000835721808874021 -0.000434930345867389
"131" 0.000229057831333947 0.000154608648180171 0.000451472370600046 8.67520339639482e-05 0.00023430018985275 0.000168950326337021 -0.000112140109478732 -4.02951783726839e-05 -0.000255745236205139 -0.000210352877770344 -5.26061496733672e-05 -4.76888229197086e-05 0.000269175248792748 0.000751206069489736 -0.000807454150681365 -0.000620650633861476
"132" 0.000215286710349396 0.000153063590278015 0.00043643448505079 7.36562990298394e-05 0.000226972114439056 0.000164011075182716 -0.0001211065672342 -4.65439137930452e-05 -0.000261552686548082 -0.000221065222434031 -5.91165655059045e-05 -4.66433050155777e-05 0.000268179288437036 0.000707794985133192 -0.000776687364072191 -0.000802048493268105
"133" 0.000200284507395046 0.000151156974523557 0.000419855637173696 5.95976534802034e-05 0.000219196010677663 0.000158527278774042 -0.000130594952740444 -5.36460979810572e-05 -0.000267659020701307 -0.000231982920307954 -6.59778486516176e-05 -4.60094641953683e-05 0.000267077019131107 0.000662465996244976 -0.000743318102052076 -0.000978228456681423
"134" 0.000184191275326606 0.000148912721142675 0.000401835757939264 4.46873726142912e-05 0.000211056774268903 0.000152599128010197 -0.000140480498910155 -6.1522846073651e-05 -0.000273996385914054 -0.000243005870851618 -7.31046986223861e-05 -4.58078620356136e-05 0.000265854192530191 0.00061540480365247 -0.000707252596194246 -0.00114832596282773
"135" 0.000167148584869704 0.000146349682063338 0.000382491637568585 2.90428686704916e-05 0.000202638492200089 0.000146336039312125 -0.000150647935470097 -7.00967251420616e-05 -0.000280496491217292 -0.000254039345226382 -8.04043854620813e-05 -4.60572460277248e-05 0.000264490578659095 0.000566798586843734 -0.000668410696432084 -0.00131149175026686
"136" 0.000149313719975768 0.000143486706252491 0.000361949371127139 1.27901389057383e-05 0.000194032901735421 0.00013984722669671 -0.000160970284427705 -7.92794875203718e-05 -0.000287094243219075 -0.000264991470213879 -8.77852125296168e-05 -4.67701530409244e-05 0.000262973219796387 0.000516856996759214 -0.000626729427722693 -0.00146689857164272
"137" 0.000130846982238708 0.000140341728127096 0.000340336709784004 -3.94654030021485e-06 0.000185318983999438 0.000133246371817204 -0.000171315928948863 -8.8982755390955e-05 -0.000293721519350292 -0.00027576682079456 -9.51582650982781e-05 -4.79457504220842e-05 0.000261279441617929 0.00046580460157737 -0.000582165312314325 -0.00161374283015726
"138" 0.000111913398724829 0.000136937350479568 0.000317808106236252 -2.1028255298367e-05 0.000176587993229781 0.000126644236520795 -0.000181558629720375 -9.91155712353688e-05 -0.000300314553137729 -0.000286281240674629 -0.000102431588060027 -4.9581990549004e-05 0.00025940218917783 0.000413886135968535 -0.000534707488947139 -0.00175123665514002
"139" 9.26840370841557e-05 0.000133288728774434 0.000294505755579051 -3.83256931415662e-05 0.000167919920037534 0.000120157553576196 -0.000191566506712112 -0.000109578483686516 -0.000306810517966725 -0.000296443406337239 -0.00010952671279366 -5.16688645041355e-05 0.000257326725148367 0.000361358761685232 -0.000484362257891082 -0.00187862215207746
"140" 7.33269714893237e-05 0.00012941639880057 0.000270591419013276 -5.56990781535318e-05 0.000159392419330687 0.000113894333043755 -0.000201215326034857 -0.000120276612261154 -0.000313152171966955 -0.00030617407480242 -0.000116355812206058 -5.41839636491236e-05 0.000255042423277417 0.000308498824422651 -0.000431178163615655 -0.00199515534164541
"141" 5.40148297907646e-05 0.000125341091455612 0.000246224953931187 -7.30122023859638e-05 0.00015108879422164 0.000107965398889294 -0.000210380121233777 -0.000131110261674291 -0.00031928102924937 -0.000315402587101298 -0.000122847785144296 -5.71006327762844e-05 0.000252543040910815 0.000255599129882181 -0.000375230565073203 -0.00210012419725766
"142" 3.49173889759285e-05 0.000121082537082867 0.000221570393093536 -9.01269597514967e-05 0.000143083652476003 0.000102474165189313 -0.000218942989893526 -0.000141982974883498 -0.000325150414690581 -0.000324054739110812 -0.000128933477337164 -6.03865622629681e-05 0.000249818976968825 0.000202963811171505 -0.000316637752761474 -0.00219284310394749
"143" 1.62031093717588e-05 0.000116664478218127 0.000196801175714582 -0.000106909135004 0.000135448239133048 9.75201114458177e-05 -0.000226788821211289 -0.000152795414997375 -0.000330711166993434 -0.000332070604407311 -0.00013454646839221 -6.40050511691971e-05 0.000246867258771798 0.000150903623157061 -0.000255554712409038 -0.00227266124930369
"144" -1.97002297527819e-06 0.000112103552291562 0.000172078053011904 -0.000123228520920183 0.000128243532321945 9.31959991263883e-05 -0.000233814716793348 -0.000163453565744822 -0.000335925955345725 -0.000339391891218444 -0.000139641237883314 -6.79100888303584e-05 0.00024368232098593 9.9750341893173e-05 -0.00019216039897331 -0.00233896958620269
"145" -1.94461349727664e-05 0.000107426758903818 0.000147576062012619 -0.000138958854522531 0.000121537021255022 8.95887118167386e-05 -0.000239922366898506 -0.000173865320940315 -0.000340762883097584 -0.000345973147466312 -0.000144169371206134 -7.20531193516057e-05 0.000240265061334298 4.98287901276203e-05 -0.000126670711301988 -0.0023912116208732
"146" -3.60722634148034e-05 0.000102654375762289 0.000123456062503926 -0.000153975126206353 0.000115380102508738 8.67775571690085e-05 -0.000245022534287549 -0.000183941485455025 -0.000345190536443223 -0.000351770426019312 -0.000148093957679364 -7.63823226244188e-05 0.00023660770277993 1.4645206072094e-06 -5.93394379451801e-05 -0.00242888313131052
"147" -5.17187942757314e-05 9.7812914955783e-05 9.98827176106419e-05 -0.000168166758243097 0.000109829383761829 8.48320289482699e-05 -0.000249033688697925 -0.000193596125674907 -0.000349194925906654 -0.000356755284595097 -0.000151389110766313 -8.0842341754012e-05 0.000232719188140828 -4.50155760183596e-05 9.57618920434661e-06 -0.00245153890824453
"148" -6.62497615566873e-05 9.29274088284696e-05 7.70134685357963e-05 -0.000181422532101353 0.000104920916429262 8.38142039550201e-05 -0.000251895172749709 -0.000202751149707411 -0.00035275631458625 -0.000360903578064153 -0.000154040272773201 -8.53784390939217e-05 0.000228590771897461 -8.92974074008943e-05 7.97800349687364e-05 -0.00245882188999211
"149" -7.95538835501151e-05 8.8023824675796e-05 5.49997431086774e-05 -0.000193644148742014 0.000100701434547024 8.3776007587221e-05 -0.000253545338501533 -0.00021133027457537 -0.000355870106125105 -0.000364197239851171 -0.000156039119825623 -8.9928766177284e-05 0.000224229937395822 -0.000131080665615822 0.000150974577879497 -0.00245044631013758
"150" -9.15234521202483e-05 8.31264641436551e-05 3.39880845612798e-05 -0.000204740992118594 9.71980014153714e-05 8.47550993871582e-05 -0.000253947106441512 -0.000219264565903548 -0.000358539295555406 -0.000366631213356096 -0.000157392193887369 -9.44368396210009e-05 0.000219639206054563 -0.000170081583354561 0.00022284771712581 -0.0024262280642811
"151" -0.000102069080520443 7.82614127458789e-05 1.41156860932239e-05 -0.00021463300419371 9.44343249171415e-05 8.67849085536109e-05 -0.000253065280882764 -0.000226493477791859 -0.0003607636458015 -0.000368205740288875 -0.000158108762309008 -9.88419973947075e-05 0.000214818156663527 -0.000206040008407795 0.000295091625982124 -0.00238608629186597
"152" -0.000111114470516253 7.34560602094744e-05 -4.49187735044831e-06 -0.000223251910605538 9.24307470565203e-05 8.98831240431374e-05 -0.000250883878100118 -0.000232961850721765 -0.000362562963403537 -0.000368929025928811 -0.000158214491626427 -0.000103088904469669 0.000209775818130341 -0.000238719515932546 0.00036739514431564 -0.00233005023250938
"153" -0.000118599571922293 6.87372141929698e-05 -2.17193413529644e-05 -0.000230539248087645 9.11982369757972e-05 9.4060042412333e-05 -0.000247403040963555 -0.000238623681893178 -0.000363951319837861 -0.000368823084290356 -0.000157743752951328 -0.000107123202425897 0.000204509798772528 -0.000267915803892934 0.000439460629883931 -0.00225827403301047
"154" -0.000124475501142123 6.41316934399631e-05 -3.74610007766691e-05 -0.000236447336635265 9.07413810470591e-05 9.93093123003327e-05 -0.000242624219580178 -0.00024343800660956 -0.000364955859940959 -0.000367907433996266 -0.000156731675134931 -0.000110893491433856 0.000199028837694919 -0.000293456124944983 0.000510997592116416 -0.00217103946827475
"155" -0.000128716801579307 5.96627475968029e-05 -5.16206123620852e-05 -0.00024094562729145 9.10585461012322e-05 0.000105619543842677 -0.000236580466795934 -0.000247374921258941 -0.000365605016486187 -0.000366218544068966 -0.00015522891637273 -0.000114350019211003 0.000193335840749126 -0.000315203097859016 0.000581737809158888 -0.00206875145765641
"156" -0.000131304781082891 5.53570325718962e-05 -6.41221903532777e-05 -0.000244007006796435 9.21404787520368e-05 0.000112965361898369 -0.000229302108192713 -0.000250413060142049 -0.000365933992616446 -0.00036379207329906 -0.000153294428924896 -0.000117451359418319 0.000187436677060386 -0.000333048242147943 0.000651427426381686 -0.00195196129036281
"157" -0.000132249061166307 5.12350737375012e-05 -7.48986002018965e-05 -0.000245627216493615 9.3968307486006e-05 0.000121307642161758 -0.000220845214860788 -0.000252536120820799 -0.00036598220717871 -0.000360676923282527 -0.000150986587998129 -0.000120157936268681 0.000181335182738581 -0.000346924783779118 0.000719834547854561 -0.00182134389197956
"158" -0.000131562831115366 4.73211018943583e-05 -8.38932496141988e-05 -0.000245808687565773 9.65220236101638e-05 0.000130604395823454 -0.000211264184181164 -0.000253737560495366 -0.00036578992490352 -0.000356922918785838 -0.000148377171495512 -0.000122437683593765 0.000175037521945861 -0.000356802435865241 0.000786749367009952 -0.00167770339583871
"159" -0.000129287531443149 4.3635020630079e-05 -9.10703297425428e-05 -0.000244567009172211 9.97755856306145e-05 0.00014079604362431 -0.000200638044052811 -0.000254023966920646 -0.000365402484007715 -0.000352589971883765 -0.000145534969413186 -0.000124267412020131 0.000168549099064974 -0.000362677986338921 0.000851979702081461 -0.0015219701023862
"160" -0.000125467726112406 4.01959781654338e-05 -9.64068214933157e-05 -0.000241931093582969 0.000103692838920997 0.000151816887911079 -0.000189051687384177 -0.000253403029957471 -0.000364865748032486 -0.000347736559138101 -0.000142537609728366 -0.000125625725191201 0.000161870127948102 -0.000364590198269671 0.000915359860361412 -0.00135519328055343
"161" -0.000120175654098067 3.70190298778843e-05 -9.98891346718401e-05 -0.000237942490811199 0.000108233034021719 0.000163593481400108 -0.000176602848338129 -0.000251893986467046 -0.000364230928973845 -0.00034243238085557 -0.000139464031779524 -0.000126498961723495 0.000155016199943492 -0.000362594026384944 0.000976743896012391 -0.00117851106365317
"162" -0.000113487746283615 3.41176863552046e-05 -0.000101526931207557 -0.000232654018383746 0.000113354641689582 0.000176040411764449 -0.000163397212644119 -0.000249527249316982 -0.00036354276530439 -0.000336744733370078 -0.000136399629817885 -0.000126885780920552 0.000147984759817358 -0.000356787569478169 0.00103600207793375 -0.000993166848938199
"163" -0.000105498795347694 3.1506199853862e-05 -0.000101335593155802 -0.000226125869674435 0.000119005100619539 0.000189071721177577 -0.000149552293093079 -0.000246332768772524 -0.000362852248700589 -0.000330744030446865 -0.000133416380574321 -0.000126787438603588 0.000140783410368422 -0.000347287784095241 0.001093018406239 -0.00080046830606563
"164" -9.63184638049804e-05 2.91890878415511e-05 -9.93502740165135e-05 -0.000218436138683806 0.000125134780415955 0.00020258506352166 -0.000135188576392916 -0.000242356609258669 -0.000362208035808848 -0.000324512513463784 -0.000130602507343441 -0.000126216602136755 0.000133421674967097 -0.000334234183431874 0.00114769350906775 -0.000601786306812282
"165" -8.60653054079239e-05 2.71765391415718e-05 -9.56174326002339e-05 -0.000209666808403903 0.000131683418818099 0.000216481232292217 -0.000120434114563487 -0.000237643293111901 -0.000361652012137802 -0.000318119096662087 -0.000128034703968204 -0.000125187958454133 0.000125901852463774 -0.000317785882608813 0.00119993986476259 -0.000398531074012458
"166" -7.48674061356485e-05 2.54668887149576e-05 -9.01981504490223e-05 -0.000199911568269814 0.000138591653015371 0.000230654116950107 -0.000105427031007131 -0.000232250368530319 -0.000361231122647562 -0.000311646441615449 -0.000125790876806408 -0.000123726853761702 0.000118231318709877 -0.000298116198975376 0.00124968222889957 -0.000192138650339204
"167" -6.28632314427261e-05 2.40639917652185e-05 -8.31654124924463e-05 -0.000189270252219652 0.00014579425912968 0.000244993092486235 -9.03064616284699e-05 -0.000226238176017999 -0.000360982819073002 -0.000305164914651575 -0.000123940713550437 -0.000121872363520447 0.000110417919424422 -0.000275424931910838 0.00129684106142492 1.59412705487577e-05
"168" -5.02006330733402e-05 2.29605973325118e-05 -7.46050302059947e-05 -0.000177852644588372 0.000153229796506844 0.00025938325214703 -7.52111852454346e-05 -0.000219671125029157 -0.000360945159881342 -0.00029875401923912 -0.000122559062411014 -0.00011965669386753 0.000102470193348521 -0.000249907946173498 0.00134135461360356 0.000224275479264237
"169" -3.70318558071812e-05 2.21535089440514e-05 -6.4612031573708e-05 -0.000165772983719366 0.000160832568461499 0.000273713545514902 -6.02837351865606e-05 -0.00021261737604758 -0.000361150863266854 -0.00029248481467542 -0.000121705935733852 -0.000117130767277109 9.43917304055239e-05 -0.000221783119025818 0.0013831511716639 0.000431453629423124
"170" -2.3512917792958e-05 2.16273899915813e-05 -5.3297766485791e-05 -0.000153149554445071 0.000168527548515982 0.000287868482824427 -4.56664175105416e-05 -0.000205156382974577 -0.000361622681063823 -0.000286432936837181 -0.000121438096686098 -0.000114347497216208 8.61926307939e-05 -0.000191271251999374 0.00142216529899517 0.000636098004421278
"171" -9.80555795136087e-06 2.1376483676677e-05 -4.07756696435657e-05 -0.000140108647213066 0.000176254457183344 0.00030173753090544 -3.15009756579844e-05 -0.000197361684329394 -0.0003623900104874 -0.000280661450647808 -0.000121811180116577 -0.000111360969729256 7.7883246543081e-05 -0.000158604331963248 0.00145832147178767 0.000836890450145532
"172" 3.93163936717915e-06 2.13809012416175e-05 -2.71685735873696e-05 -0.000126772897388558 0.000183939620698715 0.000315208269628802 -1.79221652114471e-05 -0.000189311042317379 -0.00036346110244774 -0.000275239907069301 -0.000122863444616986 -0.000108236047322169 6.94686384636309e-05 -0.000124019364195307 0.00149154530151423 0.00103256598606943
"173" 1.75332933362878e-05 2.16235377448036e-05 -1.26144363882929e-05 -0.000113271646088805 0.000191518560932811 0.000328176415579603 -5.06329617783879e-06 -0.000181085336774263 -0.000364851760173386 -0.00027022499131294 -0.000124636757519685 -0.000105037950943307 6.0958688228019e-05 -8.77515342241812e-05 0.0015217552941909 0.001221941070722
"174" 3.08451850476467e-05 2.20815475398733e-05 2.75252879287599e-06 -9.97334640362173e-05 0.000198928997049005 0.000340534605423855 6.95099685390359e-06 -0.000172771587364577 -0.000366563968645505 -0.000265669272894997 -0.000127158133492529 -0.000101836935719957 5.23643968002251e-05 -5.0051212411308e-05 0.00154885918876251 0.00140389847202858
"175" 4.37073996223563e-05 2.27311997195476e-05 1.8787142173321e-05 -8.62836540096871e-05 0.000206104441046535 0.000352190028687666 1.80022498543699e-05 -0.000164444462672982 -0.000368595358041418 -0.000261625196250724 -0.000130442496165877 -9.87012316083477e-05 4.36964194871052e-05 -1.11618152234805e-05 0.00157276080537101 0.00157741844771849
"176" 5.59751982205294e-05 2.35492020770221e-05 3.53420085589405e-05 -7.30484479435936e-05 0.000212981607396952 0.000363050926482084 2.79797082603411e-05 -0.000156187912124003 -0.000370938571143135 -0.000258135265390038 -0.000134506744795301 -9.57056061920516e-05 3.49629307972444e-05 2.86658682375939e-05 0.00159335567208853 0.00174156353952552
"177" 6.75070057383455e-05 2.45041940219715e-05 5.22724441265977e-05 -6.0147884175455e-05 0.000219507253887317 0.000373033965317531 3.67805858134462e-05 -0.000148082243410519 -0.000373577332794427 -0.000255236351793441 -0.00013934853259359 -9.29260942003821e-05 2.61777272970395e-05 6.91810441324983e-05 0.00161053632755056 0.00189548922831639
"178" 7.81603986899929e-05 2.55688628797509e-05 6.94195141930274e-05 -4.77023546868643e-05 0.000225625475027472 0.000382064859744204 4.43223846147173e-05 -0.000140203128225359 -0.000376492148147832 -0.000252958337720532 -0.000144962631465444 -9.04317079509159e-05 1.73491325802993e-05 0.000110131855838399 0.00162419167124656 0.00203845970959259
"179" 8.78184787756197e-05 2.67088715651024e-05 8.663956547739e-05 -3.58228341550739e-05 0.000231284680974818 0.000390076530273585 5.0521813495665e-05 -0.000132626690921884 -0.000379657918825526 -0.000251323798966929 -0.000151335108973203 -8.82962186149523e-05 8.49610755218564e-06 0.00015127125012996 0.00163420327053177 0.00216982474384527
"180" 9.6363519445683e-05 2.78942248698808e-05 0.000103783271829028 -2.4614972669726e-05 0.000236439156079871 0.000397013054247351 5.53147328588008e-05 -0.000125423883862814 -0.000383042363101293 -0.000250349786569579 -0.000158436786257224 -8.65883376123665e-05 -3.74204406338554e-07 0.000192350644719905 0.00164045302860959 0.0022890408484592
"181" 0.000103695969434261 2.90912647094273e-05 0.000120701183639703 -1.41756225666886e-05 0.000241052630194235 0.000402827003014602 5.86521692015569e-05 -0.000118661125682904 -0.000386607584755874 -0.000250040996381299 -0.000166242213855088 -8.53760715321394e-05 -9.24770417586668e-06 0.000233122673616597 0.00164282076225319 0.00239566197683407
"182" 0.00010972523130953 3.02658612430242e-05 0.000137252496531706 -4.5963854475716e-06 0.000245081514318601 0.000407484708771987 6.04918350144364e-05 -0.000112399427465399 -0.000390314033040479 -0.000250398440160418 -0.000174704977889701 -8.47204415651454e-05 -1.81055670730356e-05 0.000273346559057381 0.00164119020260534 0.00248933619155709
"183" 0.00011437680472618 3.1384690590198e-05 0.000153301926416621 4.04188589475137e-06 0.000248504074319332 0.000410958524027813 6.08102996918965e-05 -0.00010669646629924 -0.000394116844566532 -0.000251421632822638 -0.00018377693390652 -8.46771738356638e-05 -2.69319820380503e-05 0.000312791306323932 0.00163546005380915 0.00256981246569131
"184" 0.000117590702758558 3.24138841304188e-05 0.000168720072617687 1.16688362141906e-05 0.000251291654766662 0.000413236891464522 5.95969007639591e-05 -0.000101603926784252 -0.000397968106024561 -0.000253090251862846 -0.000193409029764231 -8.53026827387599e-05 -3.57146464452075e-05 0.000351225892376756 0.00162552069030122 0.00263693056564364
"185" 0.000119322547795619 3.33222283122795e-05 0.000183383323715886 1.82223716392942e-05 0.000253427628360844 0.000414314751806607 5.68571412919558e-05 -9.71669210595839e-05 -0.000401816506109587 -0.000255387569742427 -0.000203532494783337 -8.66373208728918e-05 -4.44321678110304e-05 0.000388438205644399 0.00161127986684664 0.00269061836631356
"186" 0.000119540686627452 3.40751461930592e-05 0.000197178396826865 2.36552798870052e-05 0.000254896911219886 0.000414198767752468 5.26033443060749e-05 -9.34234844800619e-05 -0.000405611652189028 -0.000258281303687132 -0.000214085138184258 -8.87219258861145e-05 -5.30689978628144e-05 0.00042421940655841 0.00159266550567616 0.00273089865355543
"187" 0.000118226839087468 3.46455800404891e-05 0.000210004600828538 2.79270176506671e-05 0.0002556980798777 0.000412909695399507 4.68705017874764e-05 -9.04068603717836e-05 -0.000409296741007442 -0.000261743762109428 -0.000224996115198282 -9.15862526679076e-05 -6.16088823148255e-05 0.000458381636004747 0.00156961487507565 0.0027578717082221
"188" 0.000115387413933879 3.5002981448525e-05 0.00022176662398628 3.10100386746619e-05 0.000255829605023888 0.000410473265023873 3.96969220932365e-05 -8.81393047205077e-05 -0.000412818622688967 -0.000265729113367242 -0.00023618413252421 -9.52500446326202e-05 -7.00259054251026e-05 0.000490750759240238 0.00154208433963885 0.00277172465238828
"189" 0.000111029517426146 3.51213256430566e-05 0.000232384132028359 3.28897310190102e-05 0.000255292448456035 0.000406928055250796 3.11433267979887e-05 -8.6638546605444e-05 -0.000416124751220377 -0.000270195633009897 -0.000247574154454926 -9.97334835834986e-05 -7.83035002678065e-05 0.000521171793877202 0.00151005557783752 0.00277271439101079
"190" 0.000105193185872285 3.49807541503269e-05 0.00024178737364336 3.35658939647841e-05 0.000254109883784245 0.000402323262227728 2.12745380982334e-05 -8.59144175900653e-05 -0.000419161043625415 -0.000275093010676789 -0.000259079270545496 -0.000105035083238302 -8.64187159627097e-05 0.000549511516317325 0.00147352755857574 0.00276117895775591
"191" 9.79083201599942e-05 3.45548617735055e-05 0.000249921586019445 3.30404520711452e-05 0.000252290176107982 0.000396715201764315 1.01668047409844e-05 -8.59713895902679e-05 -0.000421876719172212 -0.000280363720063123 -0.000270621884809134 -0.00011115508159139 -9.43551830047987e-05 0.000575656041703903 0.00143253259718898 0.00273751978403759
"192" 8.92441133569807e-05 3.38329442839662e-05 0.000256737946214231 3.13390936967357e-05 0.000249861984131916 0.000390165197931605 -2.08812864615992e-06 -8.68032876153373e-05 -0.000424221376976004 -0.000285948991220936 -0.000282111427542666 -0.000118079702950628 -0.000102086178134807 0.000599518169149807 0.00138711760647708 0.00270220574008501
"193" 7.92637188507585e-05 3.27931599899563e-05 0.000262216326062178 2.84900897691528e-05 0.000246857717702462 0.000382748106379738 -1.53950158312478e-05 -8.83995344773344e-05 -0.000426148498128453 -0.000291789705844421 -0.000293464575078857 -0.000125786826891564 -0.000109586286083685 0.000621036831003818 0.0013373624440773 0.00265577109657869
"194" 6.80501368758e-05 3.14310752337179e-05 0.000266331383941076 2.453676008227e-05 0.000243306256582963 0.000374539237842422 -2.96493327445896e-05 -9.07422685893319e-05 -0.000427612890105649 -0.000297819522513353 -0.000304599223146377 -0.000134247663675205 -0.000116841098892135 0.000640175713183785 0.00128337581247361 0.00259880666474466
"195" 5.56944480977131e-05 2.97381468374211e-05 0.00026908464980563 1.95273765776681e-05 0.000239250832599558 0.000365624659272364 -4.47394864456625e-05 -9.38020215462126e-05 -0.000428580444046038 -0.000303975209186654 -0.000315430143546201 -0.000143423988781109 -0.000123822676626644 0.000656930021363054 0.00122529569655116 0.00253195976682413
"196" 4.22960168516286e-05 2.77087291984944e-05 0.000270481189738548 1.35281370944643e-05 0.000234732867533162 0.000356089826148275 -6.0550890653278e-05 -9.75482920468844e-05 -0.000429010476077668 -0.000310186458797821 -0.00032587772451424 -0.000153267049130952 -0.000130507209575989 0.000671322134020695 0.00116328435145481 0.00245592673834609
"197" 2.79665381487152e-05 2.53465442653837e-05 0.000270549472998289 6.60613085402462e-06 0.000229802517948484 0.000346026442999746 -7.69593656058664e-05 -0.00010194380278769 -0.000428873536982755 -0.00031638443583714 -0.000335866566140307 -0.000163726818993873 -0.000136871455170561 0.000683394556239905 0.00109752586421514 0.0023714557717637
"198" 1.2823802551531e-05 2.26575119901289e-05 0.000269324894696526 -1.15521921277675e-06 0.000224513830605101 0.000335532247027672 -9.38446893272635e-05 -0.000106943026993377 -0.000428143337774351 -0.000322503111740057 -0.000345318013979489 -0.000174742233553426 -0.000142898407445042 0.0006932232676512 0.00102823464523372 0.00227933826920904
"199" -3.01354271841057e-06 1.96505010058969e-05 0.000266857072526891 -9.67330236810272e-06 0.000218917117549636 0.000324703121842322 -0.000111079082349252 -0.000112494905829322 -0.000426801689166367 -0.0003284743037285 -0.000354169031119062 -0.000186240313211578 -0.000148556510625343 0.000700912387308813 0.000955651214976888 0.00218040651223491
"200" -1.94154969050962e-05 1.63385152587566e-05 0.000263201438499708 -1.88539830032397e-05 0.000213072650315786 0.000313634592295758 -0.000128535239024764 -0.000118545745220894 -0.000424828329819504 -0.000334233667545322 -0.000362347830925788 -0.000198160019266965 -0.000153832400853686 0.000706577593986043 0.000880034826273948 0.00207552763824208
"201" -3.62516976745171e-05 1.27375734390912e-05 0.00025842921169582 -2.85978246156166e-05 0.0002070367365187 0.00030242490405195 -0.000146088934907838 -0.000125034257603711 -0.000422216161566131 -0.000339716562217887 -0.000369801585424583 -0.000210414213092107 -0.00015869775899259 0.000710367292431106 0.000801662743167912 0.00196560392119484
"202" -5.33917219843036e-05 8.87353341460743e-06 0.000252624440510119 -3.8802269946414e-05 0.000200877452270472 0.000291175292174699 -0.00016361222324844 -0.000131899446819956 -0.000418957596663475 -0.000344859877447608 -0.000376477333824997 -0.000222926564133552 -0.00016313504158303 0.000712436437290112 0.000720831913164132 0.00185156079916574
"203" -7.07000723966356e-05 4.76753097730619e-06 0.000245874202582102 -4.93587700397323e-05 0.000194647732374172 0.000279976363215364 -0.000180985023546485 -0.000139071772108907 -0.000415053052878126 -0.000349609287309221 -0.000382323159300898 -0.000235611896926091 -0.000167124465764847 0.000712967726174301 0.000637858082427358 0.00173435198772326
"204" -8.80439407413926e-05 4.52554797339886e-07 0.000238277737166218 -6.01598260734055e-05 0.000188419304313332 0.00026892383065452 -0.00019808787755817 -0.000146481823427067 -0.000410508874280431 -0.00035390637701668 -0.00038730552922834 -0.000248384548703758 -0.000170647607117087 0.000712141652624718 0.000553061454130758 0.00161494245925046
"205" -0.000105290413628745 -4.04177544973514e-06 0.000229939356458666 -7.10922020490036e-05 0.000182250317351718 0.000258107145578795 -0.0002148044920825 -0.000154057561990068 -0.000405331490886461 -0.000357699093409773 -0.000391386840068157 -0.000261155510809695 -0.000173685586100512 0.000710154134676183 0.000466779045265637 0.00149431308052263
"206" -0.000122311632157572 -8.67970804705133e-06 0.000220966888495613 -8.20452426984315e-05 0.00017620211363444 0.000247612674331809 -0.000231027455708839 -0.000161724136890131 -0.000399539823822786 -0.000360942609426088 -0.000394546570256958 -0.000273832904413056 -0.000176227875437211 0.000707202323851872 0.000379354518180625 0.00137344503796512
"207" -0.000138984166728193 -1.34226077896842e-05 0.000211476359785512 -9.29072477816232e-05 0.000170336454348637 0.000237524903550904 -0.000246651192059434 -0.000169409243776073 -0.000393149771044615 -0.000363593468308994 -0.000396761020294453 -0.000286332121523751 -0.000178254156226609 0.000703487330135096 0.000291131638139438 0.00125331909373076
"208" -0.00015518215395012 -1.82301025883923e-05 0.000201590034350625 -0.000103568326264054 0.00016471852505696 0.000227920449580579 -0.000261579773709004 -0.000177033691064059 -0.000386184498941063 -0.000365616740027881 -0.000398021124912629 -0.000298563851302927 -0.000179754358097343 0.000699196881242742 0.000202464217059182 0.00113490443106349
"209" -0.000170791848647499 -2.30602916620858e-05 0.000191420209501802 -0.000113920452039522 0.000159399440154823 0.000218869244900181 -0.000275720326862914 -0.000184525373425159 -0.000378668936368337 -0.000366977411435181 -0.000398323472416063 -0.000310442436572124 -0.000180719913238684 0.000694520622840163 0.000113704118214228 0.00101914997301346
"210" -0.000185704900529323 -2.7871651245949e-05 0.000181093873298772 -0.000123858578848452 0.000154430525607775 0.000210438427987324 -0.000288992534274501 -0.000191809106692161 -0.000370638503686377 -0.000367651396541746 -0.000397673155137141 -0.000321882968824826 -0.000181143008720831 0.000689637123225235 2.51994764869453e-05 0.000906979339129551
"211" -0.000199821852903301 -3.26152651721406e-05 0.000170728713508879 -0.000133285507698339 0.000149874159551393 0.000202688408862544 -0.000301319088578095 -0.000198812579984668 -0.00036211968823788 -0.000367614578619431 -0.000396077242590429 -0.00033280668987974 -0.000181017344700996 0.000684710195183729 -6.2698075860103e-05 0.000799275147048496
"212" -0.000213043187651684 -3.72467395506853e-05 0.000160447346081408 -0.000142102691794812 0.000145768358537448 0.000195672779165617 -0.000312634853049157 -0.000205461365470028 -0.000353150619256161 -0.000366856048726801 -0.000393556230926328 -0.000343133670277291 -0.00018034212982395 0.0006798939152164 -0.00014965174517139 0.000696879373806318
"213" -0.000225288725011465 -4.17254639131945e-05 0.000150362117394691 -0.000150223036801866 0.000142162003558566 0.000189435497779888 -0.000322884834321981 -0.000211691156945507 -0.000343767860402657 -0.000365362950526522 -0.000390131254411424 -0.000352794030152608 -0.000179113471675407 0.000675314632470601 -0.000235317266063544 0.000600575235569743
"214" -0.000236477465941262 -4.60022570118229e-05 0.000140587692722282 -0.00015756727673947 0.000139090632242848 0.000184017463633973 -0.000332015907364237 -0.000217436770850311 -0.000334009521481453 -0.000363133264518501 -0.00038583235286418 -0.000361720556346507 -0.000177336160676669 0.000671092865027218 -0.000319376448872848 0.000511085353800918
"215" -0.000246546771678356 -5.00343619673152e-05 0.000131231904164895 -0.000164056115587718 0.000136593019858271 0.000179447142817752 -0.000339996559755234 -0.000222632443915446 -0.000323914452950184 -0.000360169294072728 -0.000380698973807179 -0.000369850847825323 -0.000175015874603519 0.000667320947396488 -0.000401506836234276 0.000429064175504445
"216" -0.000255434980127828 -5.37799864641826e-05 0.000122394138152202 -0.000169624339765416 0.000134694092502764 0.000175752669783041 -0.0003467852280327 -0.000227226039954222 -0.000313523066121634 -0.000356481711445404 -0.000374770215007294 -0.000377127004415651 -0.000172161463172953 0.000664071163705924 -0.000481409948081195 0.000355081937113766
"217" -0.000263096909369929 -5.72010402816371e-05 0.000114171711738815 -0.000174214295622527 0.000133423848066644 0.000172950483793992 -0.000352368185991308 -0.000231161663235308 -0.000302873381969328 -0.000352078601123761 -0.000368091187786773 -0.000383503550182484 -0.00016878381344142 0.000661393682861416 -0.00055879815974245 0.000289622837168395
"218" -0.000269493919584757 -6.02550128418038e-05 0.000106650005801046 -0.000177776610262229 0.000132794849050858 0.000171047634850261 -0.000356735529949545 -0.000234395996556542 -0.000292002330932035 -0.000346986024616164 -0.000360710399868952 -0.000388935278780658 -0.000164899984669502 0.000659320506840374 -0.00063339957837891 0.000233079642695531
"219" -0.000274604083524163 -6.29122141130258e-05 9.99065650932255e-05 -0.000180270950836397 0.000132821639658481 0.000170048175065927 -0.000359874808230507 -0.000236882726512008 -0.000280954163364015 -0.000341224416940106 -0.000352686825415319 -0.000393382805824921 -0.000160525393231157 0.000657860393289295 -0.000704950140660781 0.000185747832406792
"220" -0.000278407926333073 -6.51395399950445e-05 9.40103484500252e-05 -0.000181668425625837 0.000133508877506471 0.000169945704896432 -0.000361798151158576 -0.000238587179645833 -0.000269760193082567 -0.000334830701123804 -0.000344075953616997 -0.000396823022950426 -0.000155684072246646 0.000656997528615445 -0.000773210720324411 0.00014782205198604
"221" -0.000280900801776111 -6.69086340099282e-05 8.90198122072593e-05 -0.000181947011836972 0.000134858448197012 0.000170725235054507 -0.000362522939455697 -0.000239485380766591 -0.000258458127691723 -0.000327833870373942 -0.000334936872166061 -0.000399228182078842 -0.000150398471150587 0.00065669973989171 -0.000837955608615613 0.000119389903262789
"222" -0.000282088202639242 -6.8198991483026e-05 8.49865225329022e-05 -0.00018109963095282 0.000136865141141055 0.000172369771318492 -0.000362064618839025 -0.000239547030764967 -0.000247078508014638 -0.000320280075308696 -0.000325329193822956 -0.000400586434757141 -0.000144698777249004 0.000656909075193541 -0.000898980203066339 0.000100437144708837
"223" -0.000281988610450419 -6.89922287998441e-05 8.19411287084999e-05 -0.000179125695067309 0.000139513047213743 0.000174853168328072 -0.000360456523313433 -0.000238760047240134 -0.000235653421403656 -0.000312212928697107 -0.00031532378715089 -0.000400890862111361 -0.00013861355481746 0.000657548777179551 -0.000956095604146747 9.08463442759797e-05
"224" -0.000280624920187627 -6.92743842113428e-05 7.99156121239706e-05 -0.000176034514576015 0.00014278896541832 0.000178138227026576 -0.000357742105958583 -0.000237117738268526 -0.000224209507765844 -0.000303680488650707 -0.000304974888749792 -0.000400137289877423 -0.000132176739996431 0.000658523594545294 -0.00100913916791401 9.03953477933444e-05
"225" -0.00027803185553074 -6.90344226939824e-05 7.89242617680488e-05 -0.000171848841266865 0.000146663050503632 0.000182189458641062 -0.000353961642530535 -0.000234613897511453 -0.000212772682373066 -0.000294736272192021 -0.000294356816398981 -0.000398335426184919 -0.000125428061836225 0.000659720207162536 -0.0010579648706582 9.87708861144189e-05
"226" -0.000274255846320983 -6.82748891405476e-05 7.89695773643273e-05 -0.000166599310391876 0.000151109647642611 0.000186960879011524 -0.000349166320779648 -0.000231259129661558 -0.000201364474597472 -0.000285434324826244 -0.000283525256638641 -0.000395501401284669 -0.000118400856770408 0.000661007751025084 -0.00110245274390612 0.00011555786603567
"227" -0.000269352153507859 -6.69965207943899e-05 8.00414724554347e-05 -0.000160325939077519 0.000156091391298336 0.000192401352691293 -0.000343418825815164 -0.000227062895845151 -0.000190002110620267 -0.000275837878720219 -0.000272546511493579 -0.000391649903777125 -0.000111144552948592 0.000662242731968916 -0.00114249533456899 0.00014026156308427
"228" -0.000263382177673221 -6.52087254162894e-05 8.21203211715788e-05 -0.000153080833737937 0.000161564237586374 0.000198454320069411 -0.000336785045626298 -0.000222046432114369 -0.000178702599132601 -0.000266006911177569 -0.000261484995641712 -0.000386811598375377 -0.000103694040927819 0.000663271561320194 -0.00117801276890898 0.000172309622273317
"229" -0.00025641723664016 -6.29251508959679e-05 8.51751724076562e-05 -0.000144920357589084 0.000167478487618103 0.000205059478346853 -0.000329331195384483 -0.000216239530756539 -0.00016747606873345 -0.000256004062503984 -0.000250397218228186 -0.00038101658169964 -9.61001819283659e-05 0.000663920156986671 -0.00120894149109958 0.000211050756517216
"230" -0.000248533588448074 -6.01653031331476e-05 8.91685917170791e-05 -0.000135913754709853 0.000173791320613348 0.000212152207900988 -0.000321132612083297 -0.000209673963782129 -0.000156331337756445 -0.000245895998232312 -0.000239345408907393 -0.00037430829976293 -8.84074482349587e-05 0.000664012339948155 -0.00123524352826907 0.000255777055140408
"231" -0.000239819550891414 -5.69560077700463e-05 9.40417177321095e-05 -0.000126136367447963 0.000180436546841905 0.00021966321876381 -0.000312274509781565 -0.000202392983499873 -0.000145275281766258 -0.000235745669578419 -0.000228379741909493 -0.000366726544640959 -8.06670132796522e-05 0.000663356999882258 -0.00125689264288178 0.000305720320815511
"232" -0.00023036362746547 -5.33244821676796e-05 9.97366447333784e-05 -0.000115669097577837 0.000187362404558864 0.000227522214692143 -0.000302828776537749 -0.000194442101260829 -0.000134308744152391 -0.000225620835432396 -0.000217557631688355 -0.000358324040204882 -7.2923247034762e-05 0.000661767810218069 -0.00127388635576595 0.000360080777388128
"233" -0.000220261183530881 -4.93091082677701e-05 0.000106183041383736 -0.000104603632814546 0.000194501308824627 0.000235656467060613 -0.00029289001283613 -0.000185876875236866 -0.000123433529139552 -0.000215583586761787 -0.000206923550281076 -0.000349153185677329 -6.52316648298579e-05 0.000659042279728288 -0.0012862425861327 0.000418016867082773
"234" -0.000209612959456099 -4.4950540213517e-05 0.000113299556029773 -9.30333828709923e-05 0.000201783918014203 0.000243988212348519 -0.000282539571471672 -0.000176757233943182 -0.000112646164523248 -0.000205706153348626 -0.000196526060488546 -0.000339269502686537 -5.76408919881719e-05 0.000654988532090827 -0.00129399553901065 0.00047867104873871
"235" -0.000198522509481584 -4.02903262809663e-05 0.000120996919096923 -8.10573004386252e-05 0.000209148748120152 0.000252441336757002 -0.000271868568181505 -0.000167147902993819 -0.000101938830217589 -0.000196041097224473 -0.000186402563509286 -0.00032874026214312 -5.01970993365059e-05 0.000649403013077252 -0.00129719827059704 0.000541168225739652
"236" -0.000187099643169012 -3.53819905042893e-05 0.000129187781146453 -6.87820423967534e-05 0.000216519169382207 0.000260937680286059 -0.000260969940671556 -0.000157116062200631 -9.13063350119226e-05 -0.000186656470294509 -0.000176597959676991 -0.000317622518943881 -4.29514790992185e-05 0.0006421024780818 -0.0012959165328033 0.000604633287480212
"237" -0.000175452744713354 -3.02741061249237e-05 0.000137765870952542 -5.63103425256903e-05 0.000223822213746674 0.000269399286522423 -0.000249932175755749 -0.000146738906247865 -8.07387990966576e-05 -0.000177610061099408 -0.000167140271150212 -0.000305985000676429 -3.5953073912409e-05 0.000632900407737489 -0.00129023580805001 0.000668194991279971
"238" -0.000163690982146929 -2.50239460034213e-05 0.000146630577568839 -4.37542516983299e-05 0.000230990781697146 0.000277746869936677 -0.000238845407639005 -0.000136092171339373 -7.02303603600355e-05 -0.000168957853798757 -0.00015806315889954 -0.000293897890391772 -2.92459779663267e-05 0.000621632394545236 -0.00128025849960763 0.00073099920834333
"239" -0.000151923720173687 -1.96865512839967e-05 0.000155668765382099 -3.12204583830746e-05 0.000237951107118978 0.000285906264546901 -0.000227798145409155 -0.000125254408565019 -5.9764520633728e-05 -0.000160749838426223 -0.000149390677651181 -0.000281427964217505 -2.28742240407259e-05 0.000608136144016671 -0.00126610426690748 0.000792214112476853
"240" -0.00014026668497029 -1.43230565266786e-05 0.00016477566013643 -1.88197133641845e-05 0.000244631601970206 0.00029380112673553 -0.000216879638575214 -0.000114309755596145 -4.93336919249008e-05 -0.000153032731650248 -0.000141143657646086 -0.000268641845157274 -1.6883884346365e-05 0.00059227746160351 -0.00124790600691449 0.000851040661866975
"241" -0.000128821769591728 -8.99086332626096e-06 0.00017384036024475 -6.65922518835671e-06 0.000250959952247414 0.000301360135374865 -0.000206174226131125 -0.000103342105669938 -3.89261813330418e-05 -0.000145853906229036 -0.000133344648786907 -0.000255610584898223 -1.13083105508778e-05 0.000573938941423264 -0.00122581775856877 0.000906720165731555
"242" -0.000117700472882491 -3.75391436600038e-06 0.00018274398227369 5.15383313378371e-06 0.000256870863122114 0.000308511191290038 -0.000195766716570481 -9.24332245805438e-05 -2.85303194004449e-05 -0.000139250525023801 -0.00012600246052489 -0.000242404295705305 -6.18515388015118e-06 0.000553026347748669 -0.00120000261126691 0.000958538973627147
"243" -0.00010700237310295 1.32957630427946e-06 0.000191382329546057 1.65164839866132e-05 0.000262301183510151 0.000315190423374151 -0.000185735489365692 -8.16688946927325e-05 -1.81371857362493e-05 -0.000133253383647115 -0.000119126481844638 -0.000229085970518859 -1.54871628709477e-06 0.000529472327641023 -0.00117065146204165 0.00100583644084626
"244" -9.68299712097259e-05 6.19965580504945e-06 0.000199640626607282 2.73285705449356e-05 0.000267185283507732 0.000321333061801323 -0.000176157923569553 -7.11309953673001e-05 -7.73694238091791e-06 -0.000127890685428551 -0.000112727158883967 -0.00021572125654261 2.57398417769132e-06 0.000503246043744745 -0.00113796816539531 0.00104801108974399
"245" -8.72747806784673e-05 1.07975667355645e-05 0.00020741919244876 3.75002448192337e-05 0.000271469035403348 0.000326879964977524 -0.00016710396956167 -6.0902395398493e-05 2.67779056000372e-06 -0.000123184066474526 -0.000106803181873477 -0.000202373365699176 6.15692579065754e-06 0.000474347387477161 -0.00110217457889855 0.00108452521112714
"246" -7.84321123131009e-05 1.50668792827001e-05 0.000214612159447682 4.69402574190717e-05 0.000275098771703724 0.00033177888219902 -0.000158641813362536 -5.10592458672935e-05 1.31091005707055e-05 -0.000119150165366198 -0.000101361511863616 -0.000189099422932318 9.18421625029142e-06 0.00044281781752005 -0.0010635117323141 0.00111491358302745
"247" -7.03839969549748e-05 1.89565054708421e-05 0.000221126037530387 5.55674833808017e-05 0.000278024285872094 0.000335978656857107 -0.0001508354531664 -4.1680361017767e-05 2.35619152239229e-05 -0.000115793050273376 -9.63915087068615e-05 -0.000175954847260036 1.16370214770264e-05 0.000408735645846978 -0.00102223853765618 0.00113877811514244
"248" -6.32059227365506e-05 2.24163009277779e-05 0.000226867978599305 6.33109782501571e-05 0.00028020617153304 0.000339439300970769 -0.000143738747201824 -3.28367374882825e-05 3.40382650889523e-05 -0.000113119145648496 -9.18868794498287e-05 -0.000162993372822089 1.35066534355726e-05 0.00037222076348198 -0.000978639337105477 0.00115579003804705
"249" -5.69709709556027e-05 2.53992818554306e-05 0.000231761919099088 7.01035966851457e-05 0.000281605736031096 0.000342119997763949 -0.000137403844173979 -2.45943789421745e-05 4.45279234066423e-05 -0.000111122753061348 -8.78450297488503e-05 -0.000150260680573429 1.47897835000266e-05 0.000333440177135117 -0.000933005675725277 0.00116570364991976
"250" -5.17401469637255e-05 2.78644420688235e-05 0.000235723930624242 7.58891498447809e-05 0.000282190874506861 0.000343990750307309 -0.000131877021719741 -1.70167933627385e-05 5.50324394091716e-05 -0.00010979197993633 -8.42460278731128e-05 -0.000137803541905401 1.54841393743347e-05 0.000292594588325783 -0.000885665657554044 0.00116834128381082
"251" -4.75712694935221e-05 2.97761025325129e-05 0.000238699574397591 8.06219098293538e-05 0.000281941198055458 0.000345025716799352 -0.000127195513741691 -1.01581364817517e-05 6.55410964577281e-05 -0.000109107903215299 -8.10815567273422e-05 -0.000125657213684359 1.55943334839698e-05 0.000249937818034598 -0.000836948364804509 0.00116361013600758
"252" -4.45105223893498e-05 3.11025343987312e-05 0.000240622468306398 8.4263931869273e-05 0.000280837053154518 0.00034520510228286 -0.000123393831632285 -4.07021596800351e-06 7.60378519301536e-05 -0.00010904846101534 -7.83320250041184e-05 -0.000113855966794185 1.51350299780101e-05 0.00020575758870508 -0.000787207331132149 0.00115148911123455
"253" -4.259904670352e-05 3.18170156110584e-05 0.000241454620248536 8.67883531669018e-05 0.000278867390147171 0.00034451640368697 -0.000120496184803388 1.20597032988112e-06 8.65084347116373e-05 -0.00010958033675334 -7.59816637239514e-05 -0.000102429156564675 1.41183222828316e-05 0.000160382513012531 -0.000736805908494377 0.00113203101098743
"254" -4.18684812261977e-05 3.19015736038882e-05 0.000241154190809622 8.81765160028837e-05 0.000276030596456605 0.000342952358979775 -0.000118520634779217 5.63478129422782e-06 9.69346860897056e-05 -0.000110669312309473 -7.40134492677929e-05 -9.13983900923155e-05 1.25682664991491e-05 0.000114177200037413 -0.000686119439749745 0.00110536664767738
"255" -4.23398966736027e-05 3.13411910753084e-05 0.000239696629680033 8.84246140277965e-05 0.000272325673867447 0.000340513167980034 -0.000117483358710048 9.18665377474127e-06 0.000107292339262685 -0.000112269189984899 -7.24002041427275e-05 -8.07831074101104e-05 1.05120976631144e-05 6.7540387038886e-05 -0.000635533064842069 0.00107169216989397
"256" -4.40235461570026e-05 3.01308854913281e-05 0.000237071838038542 8.75364794993549e-05 0.000267763361106374 0.000337206920662095 -0.000117391049186463 1.18402126301969e-05 0.000117559290584198 -0.00011432826636921 -7.11227110389934e-05 -7.06000168589242e-05 7.97730185722279e-06 2.08932969406773e-05 -0.000585434412584407 0.00103127372156249
"257" -4.69327634884496e-05 2.82646609424446e-05 0.000233266863674148 8.55234948211515e-05 0.000262361445727735 0.000333041818368953 -0.000118242242616245 1.35860473586234e-05 0.000127703765697847 -0.000116796310565475 -7.01593399117817e-05 -6.08533955531541e-05 5.0022098312102e-06 -2.53183893400765e-05 -0.00053620476342433 0.000984438315742761
"258" -5.10588274125667e-05 2.57533397406333e-05 0.00022829981429087 8.24132234355214e-05 0.000256142660458821 0.000328040845415467 -0.000120027285202139 1.44197479751669e-05 0.0001376943511608 -0.000119614670805001 -6.94810994529626e-05 -5.15485793097961e-05 1.62765628962711e-06 -7.06304668710725e-05 -0.000488221206555871 0.000931574682682492
"259" -5.63915208429383e-05 2.26047971435282e-05 0.000222181186152073 7.823765759787e-05 0.000249138877665464 0.000322226267834765 -0.000122735489635227 1.43450066854392e-05 0.000147500205036346 -0.000122711970431764 -6.90640387651133e-05 -4.26897080407763e-05 -2.10132422042659e-06 -0.000114578984501695 -0.000441852283688417 0.000873113048105088
"260" -6.29144443158591e-05 1.88365092831396e-05 0.000214937523901479 7.3038477820153e-05 0.000241378831037206 0.00031562598942611 -0.000126348354387767 1.3372508573436e-05 0.000157084251611307 -0.000126025529506829 -6.88831546675669e-05 -3.42651234629796e-05 -6.14170817735172e-06 -0.000156694436424625 -0.000397443598638637 0.000809535767459244
"261" -7.05992516204402e-05 1.44737653676536e-05 0.000206610891012999 6.68692263011286e-05 0.000232908469276737 0.000308277985045045 -0.000130840560297781 1.1521644094273e-05 0.000166412616865133 -0.00012948311032223 -6.89085530338006e-05 -2.62690500453224e-05 -1.04399057414045e-05 -0.000196519741380866 -0.000355322607471722 0.00074136755752959
"262" -7.94159980406017e-05 9.54146794190785e-06 0.00019724145653406 5.97884947163329e-05 0.000223769872406434 0.000300217112902546 -0.00013618112932945 8.8208401798713e-06 0.000175442577328078 -0.000133005531797144 -6.91172478745727e-05 -1.86869311535737e-05 -1.49416147454272e-05 -0.000233605143418969 -0.000315777943587061 0.000669157456733781
"263" -8.93206872294249e-05 4.07751765460179e-06 0.000186893418465581 5.18643350210135e-05 0.00021401321512077 0.000291493582079712 -0.000142334684824286 5.30556856451425e-06 0.000184135004830474 -0.000136522868974694 -6.94800068384664e-05 -1.15011231005993e-05 -1.95902839509669e-05 -0.000267536444769446 -0.000279079977005729 0.000593484239870029
"264" -0.000100266823501551 -1.88185674249719e-06 0.000175622046647616 4.31709143285684e-05 0.000203694261507768 0.000282150152925367 -0.000149261028063336 1.01565377590122e-06 0.000192454235206267 -0.000139947438652663 -6.99661635529161e-05 -4.6936756929833e-06 -2.43285264201258e-05 -0.000297929158906493 -0.000245453177464815 0.000514945333103668
"265" -0.000112207163974109 -8.29278264665244e-06 0.000163497620052936 3.37860818913843e-05 0.000192869356223912 0.000272240756654858 -0.000156913165728245 -4.00129142321385e-06 0.000200358352091869 -0.000143208381598869 -7.0549951082561e-05 1.75891210602213e-06 -2.91001234030287e-05 -0.000324435991006336 -0.000215083308126624 0.000434147000026916
"266" -0.000125077867581888 -1.5108737206897e-05 0.000150602198715907 2.37967566700834e-05 0.000181602186026311 0.00026182047406429 -0.000165241298606494 -9.68740761350967e-06 0.00020780684932037 -0.000146218807266569 -7.1205693519148e-05 7.88417615094839e-06 -3.38388100058409e-05 -0.000346758966717562 -0.000188115908839255 0.000351701271692036
"267" -0.000138822519888415 -2.2277065338784e-05 0.000137017853730176 1.32920728554195e-05 0.000169953968630345 0.00025094404902501 -0.000174194661060889 -1.59883006027142e-05 0.000214764820919609 -0.00014890049589945 -7.19015171974579e-05 1.37086642630783e-05 -3.8490914511179e-05 -0.000364656997166994 -0.000164650456987554 0.000268217150679642
"268" -0.000153370561129149 -2.97475588597075e-05 0.000122827033297974 2.36354972362828e-06 0.000157988691632496 0.000239672439868717 -0.000183717493070574 -2.28373035879702e-05 0.000221193060289922 -0.000151178463644947 -7.26142856945956e-05 1.92617691865975e-05 -4.29909911920784e-05 -0.00037793415797926 -0.000144735950445088 0.000184296665310699
"269" -0.000168656275371503 -3.74615857335786e-05 0.000108123484050529 -8.8913380697641e-06 0.000145775158873947 0.000228064117641445 -0.000193747378703332 -3.01647304953773e-05 0.000227056276966361 -0.00015297486328016 -7.33171615762051e-05 2.45699575653775e-05 -4.72854303091024e-05 -0.000386470403522834 -0.000128383948750072 0.000100523973765946
"270" -0.000184607946683672 -4.53636066019708e-05 9.30011668758801e-05 -2.03784985160144e-05 0.000133377116295314 0.000216184417085097 -0.000204223126488645 -3.79022622067631e-05 0.000232322439977295 -0.000154220817692185 -7.3981923857978e-05 2.96694210705981e-05 -5.13141892275328e-05 -0.000390197444857634 -0.000115558105563355 1.74646523518024e-05
"271" -0.000201148210516559 -5.33930777866782e-05 7.75567427368265e-05 -3.2000401626377e-05 0.000120863214927658 0.000204090678922602 -0.000215081815725585 -4.5969842771963e-05 0.000236958886696359 -0.000154838767128629 -7.45887123893137e-05 3.45865001702751e-05 -5.50251076844382e-05 -0.000389122600812543 -0.00010618601047726 -6.43394307047041e-05
"272" -0.000218205736456294 -6.14920312452139e-05 6.18827024501614e-05 -4.36572123318015e-05 0.000108298362622609 0.000191847071375523 -0.000226259808943195 -5.42963837894611e-05 0.000240939494759739 -0.000154771525538985 -7.51095599606307e-05 3.9353118934507e-05 -5.8360187187132e-05 -0.000383308825123482 -0.000100149680222974 -0.000144381636289625
"273" -0.000235698803150037 -6.96028619178431e-05 4.60749744666087e-05 -5.52575928662351e-05 9.57465074367879e-05 0.000179514726020028 -0.000237691190381282 -6.28019215161605e-05 0.000244239365186956 -0.000153960681230485 -7.55261200244912e-05 4.39980815598039e-05 -6.1275939271016e-05 -0.000372889829583222 -9.73000014593692e-05 -0.000222191062535477
"274" -0.000253555757278909 -7.7663624422565e-05 3.02369817245116e-05 -6.67030203063526e-05 8.3274610824732e-05 0.000167155221756646 -0.000249306785253496 -7.14060850789238e-05 0.00024683383650398 -0.00015234883407552 -7.5815388444895e-05 4.85504952248301e-05 -6.37221127131776e-05 -0.00035805783442455 -9.74537684985033e-05 -0.000297331793152597
"275" -0.000271696701004453 -8.56198811502443e-05 1.44506285867924e-05 -7.79056826145974e-05 7.09369894833793e-05 0.000154821716021288 -0.000261045949997458 -8.00283337721449e-05 0.000248706545140883 -0.000149898508937084 -7.59650111406405e-05 5.30360375973592e-05 -6.56594908428537e-05 -0.000339064730829675 -0.000100402400856484 -0.000369418033196022
"276" -0.000290047856984292 -9.34148476032743e-05 -1.18616365000124e-06 -8.87777365574485e-05 5.8792013044867e-05 0.000142571699196751 -0.000272839686098437 -8.85956688132865e-05 0.000249840936015915 -0.000146565399049873 -7.59512187672228e-05 5.74741435561566e-05 -6.70529574576775e-05 -0.00031622219349085 -0.000105912803768238 -0.00043810629804473
"277" -0.00030853468331393 -0.000100992972694142 -1.65866167323516e-05 -9.92340140459264e-05 4.68963760837524e-05 0.000130461087032533 -0.000284623720027874 -9.70253600611802e-05 0.000250225483514982 -0.000142324181072241 -7.57665092937058e-05 6.18907840967666e-05 -6.78709806658132e-05 -0.000289883838393572 -0.000113733232946951 -0.000503100527921471
"278" -0.000327085852216923 -0.000108306320585103 -3.16691723377427e-05 -0.000109197228979126 3.5301386590146e-05 0.00011853924913428 -0.00029633650204944 -0.000105247385995483 0.00024985431802768 -0.000137153506961163 -7.53957506602832e-05 6.63041440112184e-05 -6.80869174024736e-05 -0.000260452959698684 -0.000123598760132502 -0.000564162329966951
"279" -0.000345628651306661 -0.000115303335760439 -4.63561589689768e-05 -0.000118593735025903 2.40481272500853e-05 0.000106852824018025 -0.000307918043750509 -0.000113187419321817 0.000248723087318083 -0.000131041508078322 -7.48313397367863e-05 7.0725500632793e-05 -6.76793645873762e-05 -0.000228370737090189 -0.000135236653486273 -0.0006210991119095
"280" -0.00036409817152069 -0.000121944883002442 -6.05717573624252e-05 -0.000127358795476477 1.31817386703869e-05 9.54438739987236e-05 -0.000319310117813595 -0.000120775359627563 0.000246828293802301 -0.000123989839053235 -7.40725675799625e-05 7.51717095608481e-05 -6.66371810646767e-05 -0.000194110322005914 -0.000148364367870557 -0.000673772929999739
"281" -0.000382432553626127 -0.000128184896175656 -7.42547621205056e-05 -0.000135431308162891 2.73620856301657e-06 8.43501035063867e-05 -0.000330454425517766 -0.000127946483371456 0.000244176975530667 -0.000116009037565805 -7.31112283547214e-05 7.96506193901986e-05 -6.49520112608346e-05 -0.000158169586702422 -0.000162701088137095 -0.000722098883573608
"282" -0.000400570368173374 -0.000133992900897042 -8.734042420828e-05 -0.000142760050940696 -7.25607892692736e-06 7.36070389951875e-05 -0.000341301246048815 -0.000134641541010982 0.000240773376857782 -0.000107117204095548 -7.19538652260208e-05 8.41632792646974e-05 -6.26271730625867e-05 -0.000121068428001169 -0.000177967373567649 -0.000766039341180048
"283" -0.000418458983941787 -0.000139332535159565 -9.97778475845883e-05 -0.000149300996434568 -1.67741416802004e-05 6.32442186299867e-05 -0.000351802355592755 -0.000140804542794005 0.000236628686899638 -9.73499308581092e-05 -7.06049080739521e-05 8.87088990332514e-05 -5.96667087549286e-05 -8.33397215070123e-05 -0.000193878433725498 -0.000805609832838014
"284" -0.000436040263766978 -0.000144180916956254 -0.000111523484310041 -0.000155014320197837 -2.57903002914021e-05 5.3286955851228e-05 -0.000361910832418797 -0.000146379192986367 0.000231757016440734 -8.67422969156783e-05 -6.90725002842612e-05 9.32884304940311e-05 -5.60845605741371e-05 -4.55248390592242e-05 -0.000210167661008531 -0.000840869566631463
"285" -0.000453274251836778 -0.000148515514729632 -0.000122537854729304 -0.000159873156318366 -3.429742268692e-05 4.37489478313106e-05 -0.000371587654396858 -0.000151326254161582 0.000226174560096029 -7.53500882103561e-05 -6.73661252919589e-05 9.78901038565223e-05 -5.19006662729602e-05 -8.17016070925317e-06 -0.000226574711444374 -0.00087192824260279
"286" -0.000470113984813936 -0.000152319286801782 -0.000132785863890145 -0.000163858285061506 -4.22880617372149e-05 3.46502338633067e-05 -0.000380795659701821 -0.000155603658810377 0.000219899063709632 -6.3237274952672e-05 -6.55063492894124e-05 0.000102503262673586 -4.71456810773637e-05 2.81914047988942e-05 -0.000242840630430435 -0.000898932078444142
"287" -0.000486525952359238 -0.00015557922328462 -0.000142255684284741 -0.000166956226942665 -4.97543952486431e-05 2.59941978985723e-05 -0.000389507646251041 -0.000159179414073937 0.00021295570192646 -5.04750458297374e-05 -6.35148662578047e-05 0.000107105725319547 -4.18536156129745e-05 6.30258856787572e-05 -0.000258731507959295 -0.000922074068845449
"288" -0.000502476782715097 -0.000158294671267916 -0.000150924019217559 -0.000169164455507412 -5.67049975462403e-05 1.77850866651513e-05 -0.000397691396596898 -0.0001620257557261 0.000205368073464036 -3.71420275025776e-05 -6.14155521644294e-05 0.000111682098821161 -3.60658951780726e-05 9.58227350841275e-05 -0.000274013689714701 -0.000941578466908672
"289" -0.000517940270985105 -0.000160460743052667 -0.000158790837001704 -0.000170488983129504 -6.31492676355839e-05 1.00188200123238e-05 -0.000405331244434717 -0.000164121793715656 0.000197163082328495 -2.33346453541588e-05 -5.9235980875493e-05 0.000116201936575488 -2.98334404415363e-05 0.000126086884278486 -0.000288472002183316 -0.000957698104517181
"290" -0.00053289544486736 -0.000162086288607044 -0.000165854482241767 -0.000170944876076366 -6.91022816849403e-05 2.68504950652103e-06 -0.000412409032049021 -0.000165455415565425 0.000188371811358197 -9.14955728759482e-06 -5.70082949840232e-05 0.000120636424903203 -2.320916717739e-05 0.000153346923150579 -0.000301907668023191 -0.000970718449091617
"291" -0.000547326739716772 -0.000163179833706959 -0.000172125847207273 -0.000170553448207519 -7.45820481829413e-05 -4.22720557930662e-06 -0.000418915044564169 -0.00016602151508351 0.000179021873076349 5.3048126761912e-06 -5.47705904204777e-05 0.00012495649406522 -1.62544862894857e-05 0.000177170251760333 -0.000314129238475955 -0.000980940578308148
"292" -0.000561220961874783 -0.000163757980521378 -0.00017762509799376 -0.000169346123695612 -7.96187008236712e-05 -1.07437689891514e-05 -0.000424845177373516 -0.000165819782211855 0.00016914859439975 1.99179997802632e-05 -5.25618605015817e-05 0.000129118987015116 -9.03599242466738e-06 0.000197148788718623 -0.000324970717323061 -0.000988682316976832
"293" -0.000574577736549307 -0.000163842176320151 -0.000182375595524592 -0.000167360958571904 -8.42458417247705e-05 -1.68856845970637e-05 -0.000430200194596946 -0.000164860378210496 0.000158784065653585 3.45704418939596e-05 -5.04234435157957e-05 0.000133083630814824 -1.62686002545281e-06 0.000212918946373043 -0.000334270637590964 -0.000994269035790494
"294" -0.000587395008297582 -0.000163459349300956 -0.000186412919706816 -0.000164648713403739 -8.84952378514334e-05 -2.26882757576121e-05 -0.000434989978492451 -0.000163156242726777 0.000147962367856522 4.9137060180936e-05 -4.83999454603253e-05 0.000136812926832236 5.89743732895947e-06 0.000224150235044839 -0.000341891253243287 -0.000998032431027038
"295" -0.00059967768211643 -0.000162638673392594 -0.000189770339264118 -0.000161260781801635 -9.24133813594252e-05 -2.81835553228534e-05 -0.000439224265330486 -0.000160728267339819 0.000136720281017394 6.34947992742257e-05 -4.65439784222967e-05 0.000140254596247968 1.34545891490798e-05 0.000230569031184353 -0.000347701501438294 -0.00100029865794838
"296" -0.000611435773638365 -0.000161414806874918 -0.000192498155845119 -0.000157256931130122 -9.60395214304786e-05 -3.34144180759368e-05 -0.000442921180496805 -0.000157605401895064 0.00012509381513008 7.75144079106757e-05 -4.49003026693553e-05 0.000143362986457778 2.09640852187318e-05 0.000231942207801381 -0.00035159574129077 -0.00100139003204216
"297" -0.000622685892106788 -0.000159828996008786 -0.000194649898771967 -0.000152707767684785 -9.94290123155271e-05 -3.84246901111126e-05 -0.000446105304551264 -0.000153823117016034 0.000113118517735056 9.10658667329697e-05 -4.35211547884857e-05 0.000146090327391974 2.83339848199392e-05 0.000228091054148669 -0.000353474502620643 -0.00100161099698937
"298" -0.000633444010847278 -0.000157923397930974 -0.000196277299392948 -0.000147683562802275 -0.000102630152333799 -4.32626275828916e-05 -0.000448804622621804 -0.000149421489827108 0.000100831642513975 0.000104024611381708 -4.24582774144717e-05 0.00014838120853641 3.54827543260004e-05 0.000218891957937617 -0.000353261211169249 -0.00100124983083089
"299" -0.000643737178246803 -0.000155745533061934 -0.000197442262213619 -0.000142263114120238 -0.000105698569888303 -4.79813214266744e-05 -0.00045105085577039 -0.000144446975848745 8.82674366918659e-05 0.000116263935146038 -4.17631551202005e-05 0.000150187831053246 4.23166965862777e-05 0.000204277177924209 -0.000350898580810732 -0.00100057357162931
"300" -0.000653593630135945 -0.000153341740742277 -0.000198215453262792 -0.000136528757819888 -0.000108693327611683 -5.26346229059507e-05 -0.000452883186441982 -0.000138953584474177 7.54632947877592e-05 0.000127658833936374 -4.14880435236297e-05 0.000151459129722825 4.87499463564836e-05 0.000184233308833485 -0.000346346356070423 -0.00099981606931099
"301" -0.000663040564503722 -0.000150768447451424 -0.000198662440781026 -0.000130566526982651 -0.000111667813280199 -5.72820084680514e-05 -0.000454344466095589 -0.000132995429233938 6.24554910695789e-05 0.000138098170292534 -4.16825231835979e-05 0.00015214561986195 5.46894028041901e-05 0.000158808597514307 -0.000339580324003642 -0.000999185141266803
"302" -0.000672113959456699 -0.000148075337111125 -0.000198852714313108 -0.000124463625732419 -0.000114684812741839 -6.19813061167644e-05 -0.000455480708199138 -0.000126638230184312 4.92785982023642e-05 0.000147465133504053 -4.23908578034943e-05 0.000152196772386055 6.00516509639288e-05 0.000128108366617239 -0.000330603295033809 -0.000998850842021259
"303" -0.000680850414937961 -0.00014531906034464 -0.000198864264485645 -0.000118312492739412 -0.000117803386849768 -6.67914746352614e-05 -0.000456339275007155 -0.000119943586010169 3.59649196956668e-05 0.000155659654630602 -4.36654579103808e-05 0.000151568005587945 6.47539893643543e-05 9.23002166552614e-05 -0.00031943406678492 -0.000998940150409406
"304" -0.000689288107389688 -0.000142556256422968 -0.000198765087572404 -0.00011220232272778 -0.000121077446539053 -7.17759489737761e-05 -0.000456974097079366 -0.000112983941242856 2.25503942690385e-05 0.00016258454234549 -4.5543125760927e-05 0.000150213792435343 6.871008918695e-05 5.16025069498258e-05 -0.000306114469754002 -0.000999552353966758
"305" -0.000697470966655988 -0.000139841915353613 -0.000198636792515631 -0.00010622794889657 -0.000124567921227996 -7.69944131693167e-05 -0.000457439436365406 -0.000105827646771681 9.06794240799217e-06 0.000168155201020317 -4.80639883669215e-05 0.00014809773284129 7.1851918892258e-05 6.29641211685111e-06 -0.000290708617875623 -0.00100073677058659
"306" -0.000705442326258601 -0.000137237349546612 -0.000198551543313222 -0.000100476586924749 -0.000128331955878998 -8.25086056691315e-05 -0.000457790480553483 -9.85500965115577e-05 -4.45424153150727e-06 0.000172294937955644 -5.12627531336343e-05 0.000145182670785249 7.41047543228344e-05 -4.32839630216848e-05 -0.000273297465226631 -0.00100250744827774
"307" -0.000713239221785819 -0.000134791876152546 -0.000198581931319247 -9.5039412577387e-05 -0.000132416456153772 -8.83769737335002e-05 -0.000458088190899842 -9.12276749257914e-05 -1.79809176261503e-05 0.0001749429775984 -5.51643331309279e-05 0.000141436778254089 7.54020354402131e-05 -9.675148616865e-05 -0.000253993381074257 -0.00100483868561457
"308" -0.000720911382130821 -0.000132563513709441 -0.00019879627234556 -9.00007617759207e-05 -0.000136873553052237 -9.46522189093414e-05 -0.00045838876358538 -8.39324588710241e-05 -3.14880765818612e-05 0.000176043786602481 -5.9795769298843e-05 0.000136841094056415 7.5691085785992e-05 -0.00015366676136168 -0.000232920092558794 -0.00100765514924648
"309" -0.000728496960571221 -0.000130603944496629 -0.00019926667582792 -8.54431154241962e-05 -0.000141750074297263 -0.00010139278106431 -0.000458749424898241 -7.67443854914638e-05 -4.4943588067672e-05 0.000175562383656934 -6.51692500402501e-05 0.000131371716216524 7.49201359831527e-05 -0.000213550834697647 -0.000210229258500696 -0.00101085645787882
"310" -0.000736039456297548 -0.00012896461543021 -0.000200051974840219 -8.1446501054567e-05 -0.000147083816029393 -0.000108645731506998 -0.000459228683600181 -6.97350192337917e-05 -5.8321175212383e-05 0.00017347284800444 -7.12967699645329e-05 0.000125018476546387 7.3049701233145e-05 -0.000275874485566324 -0.000186083589340878 -0.0010142970002725
"311" -0.000743584279697828 -0.000127691283526872 -0.000201216506380762 -7.80825802980181e-05 -0.000152909470153648 -0.000116458919324303 -0.000459883498704527 -6.29818868962805e-05 -7.15975515498984e-05 0.000169764948253791 -7.81810340693925e-05 0.000117776579835152 7.0048175816479e-05 -0.000340082443148878 -0.000160669923370561 -0.00101780628131252
"312" -0.000751165922256865 -0.000126827247713781 -0.000202814425482316 -7.54180453803887e-05 -0.000159256701503473 -0.000124870690969229 -0.000460764712912406 -5.65484539750644e-05 -8.47470040880306e-05 0.00016443847281778 -8.58188453524638e-05 0.000109650646291597 6.588849535903e-05 -0.000405580794481954 -0.000134179152147833 -0.00102118175956015
"313" -0.000758821981317272 -0.000126414863193915 -0.000204895385025634 -7.35117667686329e-05 -0.0001661528952156 -0.000133918570499814 -0.000461927970607213 -5.05062180905891e-05 -9.77434942192614e-05 0.000157511243326206 -9.41911383596437e-05 0.000100652749698863 6.05635832556844e-05 -0.000471756962337895 -0.000106826924377119 -0.0010241958965526
"314" -0.000766584922694684 -0.000126483667690557 -0.000207496573798775 -7.2414939842921e-05 -0.000173608836534351 -0.000143628815526255 -0.00046341467355508 -4.49179796341812e-05 -0.000110568272374062 0.000149016280395732 -0.000103283661474454 9.07971401163284e-05 5.40681575965179e-05 -0.000537978335525654 -7.88219273052966e-05 -0.00102659873618293
"315" -0.000774489783783974 -0.000127072323052754 -0.000210661994023066 -7.21761871304679e-05 -0.000181636328593971 -0.000154025303418211 -0.000465272158087166 -3.98394916945865e-05 -0.000123199269515979 0.000138997093886746 -0.000113067785479549 8.01138995419395e-05 4.64141749238438e-05 -0.000603600917992645 -5.03787109837255e-05 -0.00102813044579026
"316" -0.000782559208722637 -0.000128199298830116 -0.000214420332242814 -7.28267589556341e-05 -0.00019023410002878 -0.000165124219852042 -0.000467538226705577 -3.53246755463372e-05 -0.000135615668829821 0.000127508475995223 -0.000123509561820926 6.86410588193382e-05 3.76144587279074e-05 -0.000667969857302549 -2.1705349970908e-05 -0.00102851842997932
"317" -0.000790814618862591 -0.000129885257912111 -0.000218789801880366 -7.43939182704491e-05 -0.000199401858800684 -0.000176930341512754 -0.000470243479548027 -3.14208666758739e-05 -0.000147798910842003 0.000114627174652533 -0.000134564541323949 5.64207595704519e-05 2.77041070951439e-05 -0.000730447701645256 6.982612964686e-06 -0.0010274895089842
"318" -0.000799273378900854 -0.000132146687234105 -0.000223784885873838 -7.68950347781949e-05 -0.000209124865704042 -0.000189446919191741 -0.00047341458468064 -2.81702993161062e-05 -0.00015972857413022 0.000100434588378153 -0.000146181880409999 4.35039509757538e-05 1.67182732107119e-05 -0.000790397022123391 3.54940734729836e-05 -0.00102476879860145
"319" -0.000807945451551403 -0.00013498958639419 -0.000229413036026008 -8.03369973663089e-05 -0.000219378967879642 -0.000202663633365611 -0.00047707529232066 -2.56013794321288e-05 -0.000171389373612427 8.50271596977705e-05 -0.000158309770130801 2.99558708129705e-05 4.71166991475195e-06 -0.000847198530050627 6.36424921087691e-05 -0.00102008034476216
"320" -0.000816839950467708 -0.000138416192711104 -0.000235671821030172 -8.47153776839337e-05 -0.000230137692868366 -0.000216561762654607 -0.000481234117084473 -2.37396045926083e-05 -0.000182759524835238 6.85149847170154e-05 -0.000170880205161778 1.58377608955156e-05 -8.25869877890773e-06 -0.000900267104000005 9.1260011407474e-05 -0.00101317639565959
"321" -0.000825957014481017 -0.000142422915333899 -0.000242551936120578 -9.00197541199784e-05 -0.000241362759604479 -0.000231119277015437 -0.000485897421649717 -2.26065604324097e-05 -0.000193828245346995 5.1010453409944e-05 -0.000183829187255205 1.23485223428614e-06 -2.21255883645453e-05 -0.000949041901596742 0.000118205877395959 -0.00100380415414011
"322" -0.000835291530062778 -0.000146997841588299 -0.000250038544218686 -9.6229022311243e-05 -0.000253011472003529 -0.000246304535444957 -0.000491066094621589 -2.22059692206404e-05 -0.000204576450832132 3.26423155396495e-05 -0.000197079353953875 -1.37777502229814e-05 -3.68072894540211e-05 -0.000993005196992691 0.00014434976650523 -0.00099174759262911
"323" -0.000844830754995721 -0.000152123921764728 -0.00025810570054936 -0.000103310926857209 -0.000265031320801702 -0.00026207166522702 -0.000496728379308813 -2.25439876759841e-05 -0.000214985571801026 1.35487929464073e-05 -0.000210554217932556 -2.91097868855398e-05 -5.22180376483082e-05 -0.00103168771027199 0.000169589974232535 -0.000976807459907314
"324" -0.000854558470566781 -0.000157778389653542 -0.000266719594554461 -0.000111222034143269 -0.000277366905517686 -0.000278372967646388 -0.00050286896680899 -2.36094969664126e-05 -0.000225042957309458 -6.1347323371005e-06 -0.000224171115722954 -4.46604761549466e-05 -6.82650028824694e-05 -0.00106466361151041 0.000193852302822116 -0.000958815246564494
"325" -0.000864455758449383 -0.000163937142870598 -0.000275845838079061 -0.000119919404066897 -0.000289954619658836 -0.000295151918492993 -0.000509461070003621 -2.5389442033792e-05 -0.000234730566539627 -2.62579452816712e-05 -0.000237842470356672 -6.03372614674825e-05 -8.48488661506609e-05 -0.00109157065498903 0.000217083118845435 -0.00093763883545321
"326" -0.000874488533240154 -0.000170561886888158 -0.000285435176294579 -0.00012934186882277 -0.000302720682982406 -0.000312343361271127 -0.000516471248506673 -2.78595775122128e-05 -0.000244032102952302 -4.66678051246738e-05 -0.000251483135499751 -7.60319193511092e-05 -0.000101864689293429 -0.00111209540572531 0.000239259065163457 -0.000913171105220255
"327" -0.000884626750526278 -0.000177615850636208 -0.000295438239096505 -0.000139424945453554 -0.000315595750152181 -0.000329875994096729 -0.000523859756061073 -3.09885901736594e-05 -0.00025293284392635 -6.72113305927045e-05 -0.000264998084604536 -9.16379517567939e-05 -0.000119197470592813 -0.00112599986052802 0.000260375716028108 -0.000885349489461994
"328" -0.0008948289758244 -0.000185057678074675 -0.000305798571043475 -0.000150099437564203 -0.000328500382573255 -0.000347674783620456 -0.000531579827380826 -3.47404118221115e-05 -0.000261415487392687 -8.77300272349848e-05 -0.000278301394568401 -0.000107044689119473 -0.000136737211934694 -0.0011331057607798 0.000280451724808337 -0.000854147255938341
"329" -0.000905056070071977 -0.0001928394585105 -0.00031646032503576 -0.000161287134496246 -0.000341349863960414 -0.000365655192280248 -0.00053957886663831 -3.90647399598169e-05 -0.000269458731609488 -0.000108065514360919 -0.000291297270833247 -0.000122139877756626 -0.000154366875280152 -0.00113330667875973 0.000299527733393286 -0.000819582248676296
"330" -0.000915257801275672 -0.000200909872424022 -0.000327351814938364 -0.00017290612886544 -0.000354063330902419 -0.000383731011428847 -0.000547794028163577 -4.39152134766565e-05 -0.000277050789493184 -0.000128063161492066 -0.000303898278820081 -0.000136813627369247 -0.000171965658360676 -0.00112655697525796 0.00031766282974459 -0.000781712844010171
"331" -0.000925383858015673 -0.000209216998308588 -0.000338413402489646 -0.000184867130075016 -0.000366548253558886 -0.000401807513585732 -0.000556159785564505 -4.92308348123406e-05 -0.000284168766753548 -0.000147569246368836 -0.00031600917315248 -0.00015095447687055 -0.000189415057660126 -0.00111289165440853 0.000334927154236995 -0.000740643788262196
"332" -0.000935376508366427 -0.000217705037908368 -0.00034957234783651 -0.000197084374577673 -0.000378724562827988 -0.000419794241359354 -0.000564603242894618 -5.49529991443311e-05 -0.000290794133363678 -0.000166431503334091 -0.000327541677935613 -0.000164450474169512 -0.000206593901810796 -0.00109240592119855 0.000351409192786912 -0.000696528792496953
"333" -0.000945185063299406 -0.000226315220153426 -0.000360755481281107 -0.000209462220241748 -0.000390496090098857 -0.000437592620376755 -0.000573052699867994 -6.10113567057826e-05 -0.00029690918698784 -0.000184505439227239 -0.000338416278078704 -0.000177199903140745 -0.000223387507154706 -0.0010652645076372 0.000367202753793292 -0.000649556855617177
"334" -0.000954743502699234 -0.000234990963686288 -0.000371894110079427 -0.000221909123646927 -0.000401782311286239 -0.000455104577884827 -0.000581426334827549 -6.7340365246166e-05 -0.000302491075909323 -0.000201650448138519 -0.000348542856299727 -0.000189099339161515 -0.000239681992013691 -0.00103169297966959 0.000382404038574214 -0.000599969223999968
"335" -0.000964000158180591 -0.000243673483279873 -0.000382917493227477 -0.000234328618311482 -0.000412494094140761 -0.0004722305698452 -0.000589643632212382 -7.3863017285498e-05 -0.000307519398550885 -0.000217736262037169 -0.000357845622271379 -0.000200049807515353 -0.000255363274901637 -0.00099197875520798 0.000397115780590517 -0.00054804386882595
"336" -0.000972887000980295 -0.000252303844343419 -0.000393753200066754 -0.000246628407534688 -0.00042254690157133 -0.000488872808314169 -0.00059761907143511 -8.05072768377788e-05 -0.000311973647026283 -0.000232638599823258 -0.000366254281833306 -0.000209960802789116 -0.000270323497625657 -0.000946469022761788 0.000411439207289856 -0.000494104087330602
"337" -0.000981345449561354 -0.000260821573032948 -0.000404333830603031 -0.000258712644726524 -0.000431863559003232 -0.000504932814401218 -0.000605270663191851 -8.72005611981552e-05 -0.00031582986834604 -0.000246242466564066 -0.000373692050359964 -0.000218747918118558 -0.000284463767281528 -0.00089555884272405 0.000425468415837537 -0.000438517093514191
"338" -0.000989314734718233 -0.000269172547140968 -0.000414593342481888 -0.000270493645437378 -0.000440368968054482 -0.000520317328912747 -0.000612512193197835 -9.38613105950729e-05 -0.000319067048278191 -0.000258445387000721 -0.000380102749974386 -0.000226335875740906 -0.000297685095211907 -0.000839698725010403 0.00043929573110357 -0.000381690446760935
"339" -0.000996739461701845 -0.000277301964770832 -0.000424464695339054 -0.000281880806077375 -0.000447988993430531 -0.000534935152329028 -0.000619260442810031 -0.000100416291268845 -0.000321661541314958 -0.000269155064802496 -0.000385423173113493 -0.000232654987653809 -0.000309904278101582 -0.00077937805773848 0.00045299704770147 -0.000324070773931792
"340" -0.0010035606488811 -0.000285156392843991 -0.000433896594573437 -0.000292793654948093 -0.000454660378360269 -0.000548696622581996 -0.000625434502533057 -0.000106796278959788 -0.000323589697179302 -0.000278295457047169 -0.000389609405999253 -0.000237644257531899 -0.000321036139463449 -0.000715129432253305 0.000466648164655225 -0.000266131026067701
"341" -0.00100972640327077 -0.000292687771822773 -0.000442828175109421 -0.000303151341898908 -0.000460325102828857 -0.000561520859488248 -0.000630951851088537 -0.000112925973659355 -0.000324830516403508 -0.000285800202631979 -0.00039261342082361 -0.000241260561247024 -0.00033100943998867 -0.00064751201289333 0.000480307058460741 -0.000208389824781162
"342" -0.00101518669849854 -0.000299848188001629 -0.000451207213313398 -0.00031287685558566 -0.000464929295745234 -0.000573328639025337 -0.000635738236158711 -0.000118736140209713 -0.000325359345192045 -0.000291616112896341 -0.000394399915845725 -0.000243466743640754 -0.000339758480430546 -0.000577116658043372 0.00049402592912345 -0.00015138151249963
"343" -0.00101989149325817 -0.000306597764346824 -0.000458995827838162 -0.000321904776792811 -0.000468431069326888 -0.000584051133303901 -0.000639724773066364 -0.000124166245843989 -0.000325156187044655 -0.000295704720120104 -0.000394944868880498 -0.000244234028180836 -0.000347233389920985 -0.00050455509655898 0.000507843277308077 -9.56698771498598e-05
"344" -0.00102380196893659 -0.000312896785579371 -0.000466148611553637 -0.000330172991145634 -0.000470791109632558 -0.000593623969328952 -0.000642840322533942 -0.000129150248284169 -0.000324199809271655 -0.000298044030967322 -0.000394224451174488 -0.000243547000917554 -0.000353388363734191 -0.000430449406880536 0.000521780034290796 -4.18371878881864e-05
