"V1" "V2" "V4" "V5" "V7" "V8" "V10" "V11" "V13" "V14" "V15" "V17" "V18" "V20" "V21" "V23"
"1" -8.26195596870605e-06 -0.000117849835590405 -8.10680838147023e-05 -3.80532863308778e-05 -0.000386174038122374 -9.00865689645421e-05 -0.000158921465606223 -0.000384638629349689 -0.000574305949729308 -0.000288248180114768 -0.000399466022951464 -0.000194517697645545 -0.000273137350287913 -0.000822294892312048 -0.000610482821450801 -0.000351477467955392
"2" 1.79349452901017e-05 -9.96112737225664e-05 -4.49186656626439e-05 -1.18043702705648e-05 -0.000374217632522121 -6.10111045518005e-05 -0.000138924564778263 -0.000379451909481669 -0.000555510887240631 -0.000269731800605374 -0.000386342006390849 -0.000186010297117849 -0.000256047353951808 -0.000798779863051566 -0.000585186729804957 -0.000328769375734767
"3" 4.25187842474965e-05 -8.2325670653463e-05 -1.24138209415146e-05 1.11681728933076e-05 -0.000365122858313254 -3.42728867497459e-05 -0.00012080231287071 -0.000375991574515413 -0.000538852022534481 -0.000252948754404899 -0.000374537736805182 -0.00017954516620928 -0.000241805732098856 -0.000777316457094476 -0.000561891161067619 -0.000307792094460795
"4" 6.53958014323525e-05 -6.60529847152172e-05 1.63219882005377e-05 3.07657432240334e-05 -0.000358793720302598 -1.00105019483015e-05 -0.000104554698603289 -0.00037418305913203 -0.000524407391357629 -0.000237990202010691 -0.000364085175221594 -0.000175110329454982 -0.000230404914371054 -0.000757959546041553 -0.000540678571901983 -0.000288650394853937
"5" 8.65119114556559e-05 -5.08490544646379e-05 4.11896522544887e-05 4.69358623567303e-05 -0.000355097092617259 1.16657826126638e-05 -9.01440958187624e-05 -0.000373923174750801 -0.000512224863559839 -0.000224929131772063 -0.00035501122717485 -0.000172674844085472 -0.000221801791660568 -0.000740738527619312 -0.000521622436706231 -0.000271436345386775
"6" 0.000105832371475009 -3.67587082086365e-05 6.2133980983046e-05 5.96719323743694e-05 -0.00035387322664828 3.06838101158258e-05 -7.75082239000854e-05 -0.000375091417514754 -0.000502333573195027 -0.000213814398821963 -0.000347323573094715 -0.000172178018137736 -0.000215922219097833 -0.000725669025715322 -0.000504762272684225 -0.000256221787420202
"7" 0.000123339898876289 -2.38224769244888e-05 7.91289698391922e-05 6.90038869527465e-05 -0.000354938687965329 4.69985810904764e-05 -6.65641642777234e-05 -0.0003775400324865 -0.000494732740593172 -0.000204682993285124 -0.000341019317302979 -0.000173541945727834 -0.00021267121087803 -0.000712735195399979 -0.000490131740479645 -0.000243058388738437
"8" 0.000139053897290159 -1.20699911640828e-05 9.21908011329236e-05 7.50138462247029e-05 -0.00035807958874019 6.06022077599122e-05 -5.71941020381454e-05 -0.000381111620189985 -0.000489400930171111 -0.000197547874658829 -0.000336084503683946 -0.000176662364011005 -0.000211920216159814 -0.000701907928031041 -0.00047773537302383 -0.000231981939629292
"9" 0.000153007196374998 -1.52944689635217e-06 0.000101362478853214 7.78103817654945e-05 -0.000363075848480245 7.15077753010195e-05 -4.92696517162684e-05 -0.000385632623471366 -0.000486295209752488 -0.000192403150484728 -0.000332494414020738 -0.000181419752882812 -0.000213529062025724 -0.000693137369619954 -0.000467568111362343 -0.000223010201070612
"10" 0.000165247792307095 7.7839904819124e-06 0.000106726065431759 7.75461151975828e-05 -0.000369683814428863 7.97678080113251e-05 -4.26397330510785e-05 -0.000390916763129245 -0.000485350189805578 -0.000189233774827792 -0.0003302084124871 -0.000187676443776932 -0.000217327327271614 -0.000686356445120435 -0.000459605293997238 -0.000216137770623129
"11" 0.000175844933832119 1.58569160559736e-05 0.00010839086295228 7.44049383547584e-05 -0.000377647412911082 8.54546270762006e-05 -3.71371677996396e-05 -0.000396770666169591 -0.000486476063801992 -0.000187991460850076 -0.000329178541053711 -0.000195277568484933 -0.000223132787522476 -0.000681478060320914 -0.000453800177801345 -0.000211348202740665
"12" 0.000184885628203354 2.26869392561193e-05 0.000106495393308337 6.85966368131885e-05 -0.000386708006495442 8.86686468633034e-05 -3.25911092563275e-05 -0.000403001062238458 -0.000489571988431045 -0.000188622857082618 -0.000329349482256342 -0.000204060899419524 -0.00023075197831534 -0.000678403808372394 -0.00045010667068493 -0.000208601912368978
"13" 0.000192465932102289 2.82751299608226e-05 0.000101205120984748 6.03605748734137e-05 -0.000396604038976959 8.95322816614139e-05 -2.8818281136408e-05 -0.000409409474382872 -0.000494513710458729 -0.000191057667911145 -0.000330656729356797 -0.000213851144657279 -0.000239976888942854 -0.000677022919375209 -0.000448446348490873 -0.000207849465708654
"14" 0.000198690358989031 3.26332055225597e-05 9.27090386381692e-05 4.99535719397483e-05 -0.000407064838421496 8.81919325962454e-05 -2.56314216021321e-05 -0.000415799871703735 -0.000501163624146489 -0.00019520729139738 -0.000333027221803581 -0.000224461536714795 -0.000250593552876718 -0.000677211277280025 -0.000448738398351522 -0.000209021215969948
"15" 0.000203673834674664 3.57740839328052e-05 8.1219132178131e-05 3.76508794276819e-05 -0.000417834872955595 8.48028292750797e-05 -2.28471390387164e-05 -0.000421982882895248 -0.000509371369157485 -0.000200972042943607 -0.000336382066269514 -0.000235707759400727 -0.000262382729249929 -0.000678836659505465 -0.000450888960189594 -0.000212036129929075
"16" 0.000207537689558595 3.77214518522102e-05 6.69687852267071e-05 2.37442358440421e-05 -0.000428654570927342 7.9545633648943e-05 -2.02772520621959e-05 -0.000427770321488513 -0.000518974596029412 -0.000208233381183265 -0.000340638350576299 -0.000247398685467867 -0.000275124790185483 -0.000681758460840362 -0.000454796756014403 -0.000216797047101521
"17" 0.00021039568703705 3.85012110352343e-05 5.01954701015586e-05 8.52598219948595e-06 -0.000439287160557064 7.26002010301706e-05 -1.77526661503084e-05 -0.000432996364065748 -0.000529806232690659 -0.000216874737009695 -0.000345712111702867 -0.000259346972461651 -0.000288604237612444 -0.000685831485168895 -0.000460346793867251 -0.000223204803192534
"18" 0.000212370654669822 3.81501978850602e-05 3.11655537332901e-05 -7.69751681168227e-06 -0.000449492604641666 6.41667551049519e-05 -1.51024473988835e-05 -0.00043749699422699 -0.000541686216999583 -0.000226761224700648 -0.000351507354139944 -0.000271363315868732 -0.000302607267233559 -0.000690910752163386 -0.00046742044441616 -0.000231137707916235
"19" 0.000213580652311678 3.67080523737515e-05 1.0144876035702e-05 -2.46290970698938e-05 -0.000459061722483728 5.4445406437789e-05 -1.21696671501154e-05 -0.000441129995990713 -0.000554434157795993 -0.000237748530232216 -0.000357935870406223 -0.000283265674481629 -0.000316922696857905 -0.000696841999413627 -0.000475888566513761 -0.000240472083176403
"20" 0.000214139545724995 3.42185472708305e-05 -1.25898631497671e-05 -4.19646724813966e-05 -0.000467791323904214 4.36387114833999e-05 -8.81348238849892e-06 -0.00044376268883066 -0.000567866554050028 -0.000249693321771613 -0.000364907110592972 -0.000294881075854217 -0.000331353262363597 -0.000703476082989628 -0.000485628443008523 -0.000251079212433763
"21" 0.000214151235775032 3.07351462612596e-05 -3.67590448184262e-05 -5.94209893072795e-05 -0.000475507161044936 3.19500103660218e-05 -4.91301774362271e-06 -0.000445287153989665 -0.000581800507663038 -0.000262443982103747 -0.00037232615013619 -0.000306045486444898 -0.000345713656457888 -0.000710664554848442 -0.00049650007450035 -0.000262820085447745
"22" 0.000213715080318984 2.63137841809196e-05 -6.20777062369767e-05 -7.67088053591391e-05 -0.000482051057036335 1.95803987376555e-05 -3.5913657669533e-07 -0.000445614452473411 -0.000596054929505662 -0.000275847726453925 -0.000380103072275871 -0.000316600006185594 -0.000359827156656821 -0.000718258556801181 -0.000508374547961924 -0.000275552192223534
"23" 0.00021292103285264 2.10162601792345e-05 -8.82686260949629e-05 -9.35620550160474e-05 -0.000487291705610297 6.72875037823803e-06 4.93707091699827e-06 -0.000444674084115803 -0.000610450756708238 -0.000289743163224941 -0.000388149599514891 -0.000326408212254662 -0.000373531451524477 -0.000726123443272205 -0.000521109159871901 -0.000289134018514285
"24" 0.000211843540015548 1.4910921254245e-05 -0.00011504852902262 -0.000109729996179576 -0.000491118632192579 -6.41784541472005e-06 1.10370450011223e-05 -0.000442415469633008 -0.000624812131616956 -0.000303976836773206 -0.00039638162491565 -0.000335337409730295 -0.000386683032507888 -0.000734116691112232 -0.000534575167113488 -0.000303414703036786
"25" 0.00021055300465496 8.06660899901922e-06 -0.000142149937757305 -0.000124978956256916 -0.00049344973075988 -1.96811958627781e-05 1.79860958908663e-05 -0.000438818337499409 -0.000638979434826779 -0.000318397702229047 -0.000404715207583504 -0.000343278264927865 -0.000399154049766098 -0.000742116117903149 -0.000548636135467865 -0.000318252941962921
"26" 0.000209099925094419 5.5687277015458e-07 -0.000169306355056176 -0.00013909608314829 -0.000494227222990407 -3.2891598621619e-05 2.58101988705426e-05 -0.000433878655274006 -0.000652790116260949 -0.000332847688538929 -0.000413072066326892 -0.000350135024053098 -0.000410828297813317 -0.000749992901389176 -0.000563156734450293 -0.000333498721513098
"27" 0.000207522697056206 -7.53509624540195e-06 -0.000196263713133669 -0.000151887495496564 -0.000493417236806399 -4.58909439985467e-05 3.45058646993752e-05 -0.000427609806219014 -0.000666098205449959 -0.00034717907485355 -0.000421382808397621 -0.000355827177955142 -0.000421613132166086 -0.000757641095247063 -0.000578014321336733 -0.000349008617946418
"28" 0.000205849145052806 -1.61287668522336e-05 -0.000222780406540581 -0.000163189346828932 -0.000491019910788614 -5.85409386148286e-05 4.40469271929763e-05 -0.000420059151939865 -0.000678765407242907 -0.00036124873147799 -0.000429574845166148 -0.00036029229962777 -0.000431430546496782 -0.000764953276186076 -0.000593078793257984 -0.000364643873497047
"29" 0.000204094618854245 -2.5140734182142e-05 -0.000248624460716521 -0.000172856338124204 -0.000487048259318989 -7.07115569178393e-05 5.43975539335154e-05 -0.000411284109696251 -0.000690664897478563 -0.000374920479875027 -0.000437588091170197 -0.000363487087601465 -0.000440222402948183 -0.00077183466216181 -0.000608230611362381 -0.000380260820675687
"30" 0.000202262622712629 -3.44806502505091e-05 -0.000273582672177621 -0.000180771404530909 -0.000481549760981703 -8.2293932752608e-05 6.54916794235385e-05 -0.000401367573786154 -0.000701684181940755 -0.00038805700964528 -0.000445364860439996 -0.00036538288241361 -0.000447944036237396 -0.000778196932783255 -0.000623351116101589 -0.000395731311357457
"31" 0.000200335779475073 -4.40617229213233e-05 -0.000297459191370071 -0.000186851674847481 -0.000474596575160114 -9.31980954190068e-05 7.72389367381796e-05 -0.000390415519671054 -0.00071172028611504 -0.000400539810500365 -0.000452853376649818 -0.000365971912220149 -0.000454568687602449 -0.000783970401354396 -0.000638331403923075 -0.000410925715610636
"32" 0.000198296728114696 -5.37906235981538e-05 -0.000320069619405676 -0.000191025881561072 -0.000466273719825722 -0.000103343641412121 8.9548719247207e-05 -0.000378540645774726 -0.000720684799649981 -0.000412247421725511 -0.000460010040716724 -0.000365261207906135 -0.000460088902829201 -0.00078908073602972 -0.000653060235614582 -0.000425720378500491
"33" 0.000196105371313817 -6.35757963056318e-05 -0.000341256598263453 -0.000193263552588246 -0.000456697964089901 -0.000112675260957635 0.000102292511140563 -0.000365882226316393 -0.000728501435938731 -0.000423072909777963 -0.00046679267889662 -0.000363273833495073 -0.000464507453528985 -0.000793476106956414 -0.000667442581169269 -0.000439998447457387
"34" 0.000193723494260308 -7.33252652023779e-05 -0.000360873264009052 -0.000193553835491941 -0.000446000576426479 -0.000121153326369109 0.000115344393719282 -0.000352589114984103 -0.000735107494654154 -0.000432919920569325 -0.000473167515874274 -0.000360050125296144 -0.000467843062015428 -0.000797105123417514 -0.0006813780937525 -0.000453649734100373
"35" 0.000191100797705995 -8.29486744595091e-05 -0.000378796172027799 -0.000191914466210923 -0.00043432883093761 -0.000128754571697495 0.000128554849522432 -0.000338825093831736 -0.000740453258886728 -0.000441696098554497 -0.000479107893438898 -0.000355644881034422 -0.000470129378912881 -0.000799928833667349 -0.00069477595306858 -0.000466571355475021
"36" 0.000188172550427369 -9.23534541162538e-05 -0.000394923547076843 -0.000188393538705836 -0.000421851815954984 -0.000135473862060377 0.000141772811651136 -0.000324761217442552 -0.000744500721134749 -0.000449320562459038 -0.000484588109567202 -0.000350123271292336 -0.000471406128944278 -0.000801910854944378 -0.000707556338540726 -0.000478667266557198
"37" 0.000184882607207504 -0.000101451525740653 -0.000409174657573815 -0.000183054337062941 -0.000408744586224143 -0.000141323710818381 0.000154832279168549 -0.000310576417039874 -0.00074722570364467 -0.00045572453497756 -0.000489588638289051 -0.00034356648759638 -0.000471728709427506 -0.000803032814341906 -0.000719630896174646 -0.000489848838355757
"38" 0.000181155574532581 -0.00011015503319085 -0.000421480406450742 -0.000175991133473018 -0.000395195198767788 -0.000146330459553569 0.000167569778967354 -0.00029645689924652 -0.00074861385168078 -0.000460846633096034 -0.000494095031429653 -0.00033606282857438 -0.000471157435986594 -0.000803272582128309 -0.000730932945227324 -0.000500031151544124
"39" 0.000176930413893415 -0.000118383396125209 -0.000431804950388209 -0.000167320050808802 -0.000381400817122886 -0.000150540267518711 0.000179812180418991 -0.000282592602679974 -0.000748660214496073 -0.000464632019818671 -0.000498098517251529 -0.000327713859894232 -0.000469760759634638 -0.000802616964866153 -0.000741386847385909 -0.000509142722617607
"40" 0.00017212941503296 -0.000126052499440597 -0.000440123067291982 -0.000157177046360117 -0.000367558931249586 -0.000154010025564551 0.000191394967983235 -0.000269170904080035 -0.00074737316894214 -0.000467042270951427 -0.000501588443107642 -0.000318622008795521 -0.000467607847130563 -0.00080105628628504 -0.00075092923180601 -0.000517114085963909
"41" 0.000166692172494301 -0.000133090570662981 -0.000446429615496817 -0.000145717351515374 -0.00035387234058323 -0.000156806104848104 0.000202146769063768 -0.000256377574703985 -0.000744769871806603 -0.000468041371895373 -0.000504562073065136 -0.000308902065923756 -0.000464777212037771 -0.000798591724679829 -0.000759500749857553 -0.000523888069936003
"42" 0.000160548751704882 -0.000139424504905182 -0.000450742673928725 -0.000133109160146517 -0.000340540942001651 -0.000159010617231209 0.000211914410146909 -0.000244392522708338 -0.000740873720177463 -0.00046760702996459 -0.000507017582038503 -0.000298666769728034 -0.000461347168134276 -0.000795217754247292 -0.000767040093334019 -0.00052940538828538
"43" 0.00015363922546355 -0.000144991103435532 -0.000453098038496272 -0.000119544697904546 -0.000327762151154337 -0.000160715437105096 0.00022054423317315 -0.000233391811910132 -0.000735716156249444 -0.000465725130830185 -0.000508951252652059 -0.000288034361224654 -0.000457392102057926 -0.000790940970343215 -0.000773499383265754 -0.000533622887873062
"44" 0.000145915822643495 -0.000149731195624792 -0.000453542116731069 -0.000105215982208881 -0.000315722517348322 -0.000162016571817801 0.000227900527404452 -0.00022353642247928 -0.000729332462704976 -0.000462386961042134 -0.00051036651368038 -0.000277121609470052 -0.000452990536585346 -0.000785761386825593 -0.000778819888451382 -0.000536495564929172
"45" 0.000137332766509379 -0.000153592099256163 -0.000452144470488463 -9.03334255876588e-05 -0.000304597538275165 -0.000163014355926237 0.000233858422403914 -0.00021497266705238 -0.00072176771462347 -0.000457590588626334 -0.000511263189439787 -0.000266041388438794 -0.000448211188632617 -0.000779685764031358 -0.000782963255314743 -0.000537994243066862
"46" 0.000127849785957785 -0.000156530411347833 -0.000448987565226929 -7.51129578375106e-05 -0.000294553271164884 -0.000163819877717581 0.000238311992452818 -0.000207840598770122 -0.000713067269584135 -0.00045134593346943 -0.000511641793550616 -0.000254907535488492 -0.000443122676911102 -0.000772714784063351 -0.000785881560504834 -0.000538087678555937
"47" 0.000117454166585058 -0.000158506769374351 -0.000444167329991423 -5.97738097356705e-05 -0.000285733419194169 -0.00016453654205205 0.000241173790562948 -0.000202258240743615 -0.000703280909704028 -0.000443665868102745 -0.000511503122219201 -0.000243819157446794 -0.000437783669702064 -0.000764857184389881 -0.000787532141425954 -0.000536750466789941
"48" 0.000106123956379221 -0.000159494641339133 -0.000437787701375401 -4.45321860824578e-05 -0.000278272951047989 -0.00016527702243602 0.000242372795889231 -0.000198319313433935 -0.000692456744534156 -0.000434572538699507 -0.000510844237437987 -0.000232879197808208 -0.000432250820152278 -0.000756111326414057 -0.000787872718703341 -0.000533967247943578
"49" 9.38683581569382e-05 -0.000159471769186896 -0.000429969084074969 -2.96095129612628e-05 -0.00027227278686082 -0.000166141763774741 0.00024186998912245 -0.000196105844534351 -0.000680649494307385 -0.000424090532702377 -0.000509665441638347 -0.000222171212958738 -0.000426567053626013 -0.000746475133642586 -0.00078687215223329 -0.000529723928703483
"50" 8.07043305349567e-05 -0.000158425019447144 -0.000420837817219886 -1.52149351914178e-05 -0.0002678190077851 -0.000167232349308077 0.000239638756706367 -0.000195672326235598 -0.000667907723928189 -0.000412250938319065 -0.000507962993758825 -0.000211773356076258 -0.000420765610813465 -0.000735951845251363 -0.000784487288081147 -0.000524015276463996
"51" 6.66602122518885e-05 -0.00015635131814612 -0.000410528539410809 -1.557438966582e-06 -0.000264971785994648 -0.00016863995802581 0.000235687591665463 -0.000197051811242429 -0.000654279393512285 -0.000399085602944237 -0.000505725963277916 -0.000201751430374923 -0.000414869706028009 -0.00072453020377496 -0.000780689943288587 -0.000516831604231083
"52" 5.17838590615346e-05 -0.000153257123617645 -0.000399178061410401 1.11723296261596e-05 -0.000263761451148251 -0.000170449083402016 0.000230043208944859 -0.000200256385254853 -0.000639811491205376 -0.000384637638345446 -0.000502946340527067 -0.000192155935410532 -0.000408896466931156 -0.000712203937912125 -0.000775441843573796 -0.00050817852305839
"53" 3.61363002141344e-05 -0.00014915240137783 -0.000386932128008017 2.27945604258436e-05 -0.000264192395757043 -0.000172733422213305 0.000222760605850018 -0.000205267200446205 -0.000624549310487427 -0.000368944784960998 -0.00049961143482432 -0.000183025476672691 -0.000402842485332524 -0.000698962108013079 -0.000768712906467642 -0.000498056535534504
"54" 1.97955244780975e-05 -0.000144059642682308 -0.000373928227681536 3.31412575257189e-05 -0.000266239843191254 -0.000175552243943479 0.000213920697145944 -0.000212046930458975 -0.000608528285590121 -0.000352053272234621 -0.00049570601422989 -0.000174383227502598 -0.000396696784464028 -0.00068478288176828 -0.000760472106228662 -0.000486474238811746
"55" 2.85099636289064e-06 -0.000138006104439362 -0.000360311818186102 4.2070721591773e-05 -0.000269850210750624 -0.000178950257587648 0.000203634513503364 -0.000220532317394122 -0.000591784309864846 -0.000334009011848453 -0.000491209816274426 -0.000166234535531416 -0.000390439032117435 -0.000669651405298467 -0.000750695271895254 -0.000473439558215973
"56" -1.45863134970216e-05 -0.000131028734618423 -0.000346219607885272 4.94547728560427e-05 -0.000274942584574887 -0.000182959698631437 0.000192029120365132 -0.000230636827966543 -0.000574347251667411 -0.000314857650116376 -0.000486100124917558 -0.000158572950806538 -0.0003840344842482 -0.000653543816117714 -0.000739350678531842 -0.000458971940845167
"57" -3.24090582947874e-05 -0.000123172825068469 -0.000331790228633788 5.51902336496598e-05 -0.00028140859865043 -0.000187601277263577 0.000179255766426418 -0.00024225562457425 -0.000556240869949286 -0.00029465427094503 -0.000480354021618295 -0.000151377321025645 -0.000377434937531955 -0.000636430839316198 -0.00072641813091828 -0.00044308743489067
"58" -5.04801946439784e-05 -0.000114485057476129 -0.000317145372483089 5.91971870602345e-05 -0.000289107244934187 -0.000192867898568308 0.00016549496643718 -0.000255255520764045 -0.000537484162565133 -0.000273441413740046 -0.000473939042630079 -0.000144604965455715 -0.000370585550187534 -0.000618288932431981 -0.000711870797872178 -0.000425805256968344
"59" -6.86595950705777e-05 -0.000105022742495048 -0.000302411096767924 6.14179013991488e-05 -0.000297878760677727 -0.000198744553480876 0.000150938466902183 -0.000269491414192777 -0.00051809012648317 -0.000251274810190835 -0.000466826899611079 -0.000138206960720445 -0.000363419708512547 -0.000599082460638237 -0.000695693567880842 -0.000407148908847002
"60" -8.68009725040769e-05 -9.48461748624152e-05 -0.000287693030973977 6.18242443729038e-05 -0.00030753306599009 -0.0002051963195266 0.000135797553991725 -0.000284797404520934 -0.000498062964397519 -0.000228201109986706 -0.000458983721830734 -0.000132113270326383 -0.000355860748035657 -0.000578781264949322 -0.000677861930713039 -0.000387144074979496
"61" -0.000104739132118392 -8.40181243703461e-05 -0.000273088255997476 6.04124837089785e-05 -0.000317858771310154 -0.000212165617993245 0.000120304096287034 -0.000300986702881763 -0.000477407467598041 -0.000204272654030353 -0.000450370677946094 -0.000126244406175718 -0.000347826373715755 -0.000557351961590236 -0.000658367325812531 -0.000365822228696398
"62" -0.000122318473248498 -7.26093412640193e-05 -0.000258683021029262 5.72005992306123e-05 -0.00032862668795353 -0.000219588440699849 0.000104694925225281 -0.000317870737795227 -0.000456117746267953 -0.000179541814181847 -0.000440954665213509 -0.000120510840991803 -0.000339222005786001 -0.000534759055867464 -0.000637197418982694 -0.00034321424211406
"63" -0.000139368742733717 -6.06894628966926e-05 -0.000244548848589047 5.22365625891612e-05 -0.000339584073674204 -0.000227376386332471 8.92248959827441e-05 -0.000335239130795183 -0.000434187061415668 -0.000154055136134878 -0.000430693193230527 -0.000114807767609221 -0.000329952383588691 -0.000510970566678222 -0.000614343560113815 -0.000319357396180684
"64" -0.000155717014168186 -4.83316143092109e-05 -0.000230744080078591 4.55919566060985e-05 -0.000350471837712012 -0.00023542988531206 7.414727092525e-05 -0.00035287849478418 -0.000411604436531424 -0.000127861655784178 -0.00041954920288355 -0.000109026410471024 -0.000319920247588161 -0.000485954256059742 -0.000589804852822408 -0.00029428905462988
"65" -0.000171194419444339 -3.5609787484933e-05 -0.000217304612989753 3.73572060619797e-05 -0.000361010296460908 -0.00024363219123093 5.97271595677325e-05 -0.000370568788654253 -0.000388347083130381 -0.000101015032686798 -0.000407483491591035 -0.000103047053313134 -0.000309018819029264 -0.00045968091951786 -0.000563584018323819 -0.000268047396569478
"66" -0.000185629779762139 -2.259819744871e-05 -0.000204261422173387 2.76518438231001e-05 -0.000370916099371203 -0.000251857605797933 4.62240597277692e-05 -0.000388085239011104 -0.000364402355158713 -7.35594222429622e-05 -0.000394458419374326 -9.6748138340338e-05 -0.000297147524839963 -0.00043212549524503 -0.000535690732930525 -0.000240683728646301
"67" -0.000198861835450175 -9.37099435875708e-06 -0.000191618541658904 1.66098464887343e-05 -0.000379895013405119 -0.000259965963834394 3.3903597340832e-05 -0.000405203315357187 -0.000339747575847173 -4.55453930729567e-05 -0.000380438612392715 -9.00025224560835e-05 -0.000284201180196741 -0.000403265728213814 -0.000506135540541317 -0.000212241429846335
"68" -0.0002107281963989 3.99703043604488e-06 -0.00017937402797166 4.38688282578307e-06 -0.000387654955898984 -0.000267807842977999 2.30147784811815e-05 -0.000421697005641742 -0.000314356437243619 -1.70210770012998e-05 -0.000365387744517236 -8.26812572066574e-05 -0.000270080106933544 -0.000373084219979176 -0.000474934614951015 -0.000182775226969329
"69" -0.000221074334750131 1.74393093078336e-05 -0.000167502233672824 -8.8477843021975e-06 -0.00039389952460403 -0.000275230229611949 1.38086313497796e-05 -0.000437344956915903 -0.000288209929051514 1.19676896813015e-05 -0.000349272815766474 -7.46563942793699e-05 -0.000254686134846174 -0.000341568810016604 -0.000442123399408346 -0.000152341741583141
"70" -0.000229757770621707 3.08841409177975e-05 -0.00015596439693315 -2.2907642982492e-05 -0.000398341652678263 -0.000282071181403659 6.51953235323433e-06 -0.000451936655086759 -0.000261279476676326 4.13730099561665e-05 -0.000332069176867917 -6.58018662894853e-05 -0.000237927476130496 -0.0003087180207811 -0.000407727947149099 -0.000120997215757673
"71" -0.000236641922522353 4.42694204852531e-05 -0.000144707885816456 -3.7594561158203e-05 -0.000400690426184497 -0.000288161973970322 1.37201112750083e-06 -0.000465262466899975 -0.000233548817009967 7.1144758873984e-05 -0.000313750126809275 -5.59934710113172e-05 -0.000219717578723201 -0.00027453381572575 -0.000371791381916475 -8.88067275123662e-05
"72" -0.000241608908359986 5.75311463484848e-05 -0.000133665638592085 -5.27042102736249e-05 -0.000400674979303192 -0.00029333763955414 -1.42742160009582e-06 -0.000477129976685179 -0.000204993151324489 0.00010123707074214 -0.000294297716295697 -4.51169668769085e-05 -0.000199986169927037 -0.000239028238105926 -0.000334364405814711 -5.58394105144274e-05
"73" -0.000244547455768281 7.06131281845348e-05 -0.000122760971087223 -6.80256005503249e-05 -0.000398034395269268 -0.000297436209700706 -1.69291814735878e-06 -0.000487358300295886 -0.00017559716002527 0.000131602478030377 -0.000273698231496902 -3.30612861806467e-05 -0.000178659421421269 -0.000202217726655855 -0.000295496840649635 -2.21655820997282e-05
"74" -0.000245371903736216 8.34610883292635e-05 -0.000111902939225352 -8.33375970863519e-05 -0.000392518434486222 -0.000300291491683387 7.40851900553027e-07 -0.000495772998867281 -0.000145349386225961 0.00016219071350337 -0.000251943024606829 -1.97301848380809e-05 -0.000155685129713953 -0.000164132722628221 -0.000255259584233265 1.21395766469265e-05
"75" -0.000243997617617139 9.60263117538153e-05 -0.000100988930599113 -9.84270181133235e-05 -0.000383900927543905 -0.000301747972669082 6.0198338028707e-06 -0.000502227497990065 -0.000114236964904349 0.000192954285133576 -0.000229030496170655 -5.02767116698158e-06 -0.000131020748584087 -0.000124811219285728 -0.000213723576417561 4.69948091746351e-05
"76" -0.000240368328706723 0.00010826631860708 -8.9915525855378e-05 -0.000113071007033084 -0.000371970039978022 -0.000301653938285759 1.42604452616924e-05 -0.000506582593414625 -8.22586816866494e-05 0.000223844929075524 -0.000204966723386026 1.11196836801148e-05 -0.000104635622061376 -8.43021690480735e-05 -0.000170966500886137 8.23148398411971e-05
"77" -0.000234444911397357 0.000120141690566911 -7.85621580182786e-05 -0.000127059558454474 -0.000356540315710077 -0.000299869937531474 2.55541869716002e-05 -0.000508724787526567 -4.94139025108525e-05 0.000254808030155362 -0.000179766100579408 2.87787579056606e-05 -7.65093838253396e-05 -4.26624803897124e-05 -0.000127081604089077 0.000118013267286774
"78" -0.000226200824613486 0.000131614516673689 -6.68155547520127e-05 -0.000140181413255612 -0.000337456999943826 -0.000296266673545423 3.9961068122442e-05 -0.000508553648345226 -1.57136548934002e-05 0.000285793699509328 -0.000153448375708413 4.80005834850687e-05 -4.66429013255398e-05 3.89052974890442e-08 -8.21609950861377e-05 0.00015399293679632
"79" -0.000215636361615419 0.000142659293765382 -5.45500717522363e-05 -0.000152236707620387 -0.000314576049181265 -0.000290725720332867 5.75230105944085e-05 -0.000505992396959992 1.88309709617629e-05 0.000316754080850359 -0.000126040929487042 6.88208353425536e-05 -1.50470392057035e-05 4.37279454943624e-05 -3.6314112697941e-05 0.000190165474556956
"80" -0.000202766309927082 0.000153246337491267 -4.16482038552633e-05 -0.000163034001570057 -0.000287799799694513 -0.000283151241762398 7.82371439620299e-05 -0.000500989338119604 5.4197541892722e-05 0.000347635602231698 -9.75837059447192e-05 9.12627446600983e-05 1.82461166450547e-05 8.83140273853479e-05 1.03485934907452e-05 0.00022642300496048
"81" -0.000187623752457991 0.000163356764093139 -2.79893707579881e-05 -0.000172391262350419 -0.000257045948968871 -0.000273451712199718 0.000102081112074023 -0.000493506301752619 9.0359297632611e-05 0.000378383385446186 -6.81143352981996e-05 0.000115333148699309 5.31954948419341e-05 0.00013370999297289 5.7705004607741e-05 0.000262667010784526
"82" -0.000170269690071229 0.000172972658986915 -1.34568750926574e-05 -0.000180144802597799 -0.000222276511489561 -0.000261566340510048 0.000128998391369284 -0.000483531383321647 0.000127279647325084 0.000408947035970296 -3.76922133616502e-05 0.000141019690559898 8.97419876952224e-05 0.000179803740389324 0.000105633733445719 0.000298791370807768
"83" -0.000150774670747784 0.000182079519327276 2.05930280037277e-06 -0.000186142374589738 -0.000183469649809394 -0.000247444165838069 0.000158902105204194 -0.000471071904562997 0.000164920682434782 0.000439274109047402 -6.37301666758364e-06 0.000168300285639971 0.000127809187395543 0.000226494717177127 0.000154003950111893 0.000334685172656318
"84" -0.00012923323869619 0.000190666374485435 1.86613219246107e-05 -0.000190248896334973 -0.000140649290905658 -0.000231057711538162 0.000191672711836294 -0.000456159120999146 0.000203233869305701 0.000469311611484107 2.57737227313085e-05 0.000197130746608188 0.00016730839203292 0.000273658382008928 0.00020267540735312 0.000370242491274957
"85" -0.000105760714804736 0.000198724831563328 3.6442847184097e-05 -0.000192343238985185 -9.38644049808965e-05 -0.000212401040172584 0.000227168065145408 -0.000438843925116354 0.000242163544375526 0.000499010472059353 5.86752693502797e-05 0.000227457332296962 0.00020813589231476 0.000321180445272412 0.000251509913052024 0.000405350703359547
"86" -8.04871834012318e-05 0.000206249930619711 5.54779568839642e-05 -0.00019232964271603 -4.32025335473443e-05 -0.000191492389406706 0.000265210698016707 -0.000419199530581174 0.00028164935187829 0.000528317777915637 9.22491317633692e-05 0.000259209736885646 0.000250174605160766 0.000368929232297558 0.000300359310756868 0.000439899154398778
"87" -5.35546567477054e-05 0.000213234544403909 7.58354405022631e-05 -0.000190126342158374 1.12216130910726e-05 -0.000168371016644277 0.000305596293734051 -0.000397315015967555 0.000321629906000528 0.000557184649444728 0.000126410341605455 0.000292302396194496 0.00029329207444863 0.000416779041295791 0.000349084392168008 0.000473775705347895
"88" -2.51323799716296e-05 0.00021967741483248 9.75625407546143e-05 -0.00018567430856434 6.92567417516338e-05 -0.000143096103318827 0.00034810005629062 -0.000373303370116074 0.000362036564193599 0.000585567392837992 0.000161064620278734 0.00032663944562651 0.00033734748503252 0.000464599997359371 0.000397531552495552 0.000506869143937452
"89" 4.60838916675707e-06 0.00022557253208317 0.00012069437499649 -0.000178934030094387 0.000130717260824011 -0.000115755142109807 0.000392466779708204 -0.000347290773924224 0.000402794566419152 0.000613418515822985 0.000196112978613283 0.000362109897910929 0.00038218906898777 0.000512258487942625 0.000445556117988727 0.000539071037079878
"90" 3.54733088746989e-05 0.00023092060325298 0.000145241749879551 -0.000169887096908359 0.000195397657480862 -8.64549414361892e-05 0.000438425175979808 -0.000319426233141709 0.000443829329325663 0.000640697458772787 0.000231459275826726 0.00039859576372269 0.000427656308596528 0.000559627661912184 0.000493012899167915 0.000570279951619401
"91" 6.72617728022011e-05 0.000235717899407089 0.000171196833840253 -0.000158534680708233 0.000263051198710009 -5.53227310605785e-05 0.00048568011781448 -0.000289864535658123 0.000485064887254341 0.000667368204579466 0.000266994867505331 0.000435969785698749 0.000473576275776541 0.000606578351107387 0.000539756226389741 0.00060038936175173
"92" 9.97627755165545e-05 0.000239958655514067 0.00019853131726132 -0.00014490343806415 0.000333404548885666 -2.2520642609257e-05 0.000533919225331082 -0.000258785655070168 0.000526422193374335 0.00069339069222412 0.000302614539983194 0.000474092588103041 0.000519776054613121 0.000652991903286305 0.000585644897018428 0.000629304716571675
"93" 0.000132758347209119 0.000243639145389264 0.000227192341674766 -0.000129036966616589 0.000406165007566977 1.17859267512078e-05 0.000582817627130297 -0.000226371844582005 0.00056782451520749 0.0007187408555556 0.000338210607443576 0.000512822115885111 0.0005660744062146 0.000698745773993622 0.000630546504949602 0.000656932423410901
"94" 0.000166020751337475 0.000246751003077794 0.000257106005465254 -0.000111001629848192 0.000481007757500573 4.739520270521e-05 0.000632034379694861 -0.000192823707518193 0.000609191077911661 0.000743389890641219 0.000373673174203088 0.000552010474865145 0.00061228538849668 0.000743730081478337 0.000674327298661511 0.000683185913059109
"95" 0.000199321360809793 0.00024928812720097 0.000288178829249829 -9.08843368586783e-05 0.000557591494670101 8.40977761945921e-05 0.000681231953170652 -0.000158342257820026 0.000650452029214225 0.000767317051717002 0.000408897582995388 0.000591507787722066 0.000658230084495582 0.000787840752563457 0.000716867465247241 0.000707987493941476
"96" 0.000232429163586517 0.000251239793010896 0.000320288506435729 -6.87891432695265e-05 0.000635549510707761 0.000121661711466869 0.0007300562990496 -0.000123141532601176 0.000691528791058802 0.000790508996527398 0.000443776291268098 0.000631160544908843 0.000703724762126028 0.000830981625175058 0.000758050403774501 0.000731270304777013
"97" 0.000265111043844051 0.000252594567948314 0.000353292171976298 -4.48421538938608e-05 0.000714506954236584 0.000159837887700203 0.000778157067641362 -8.74385704015991e-05 0.000732354778747765 0.00081295406920561 0.000478206427947266 0.000670816672598877 0.000748582524005241 0.000873071030853318 0.000797772070730533 0.000752969513349681
"98" 0.000297137365818958 0.000253338410762484 0.000387026767219598 -1.91837972051012e-05 0.000794062604473956 0.000198366802531981 0.000825184240602867 -5.14517448643603e-05 0.000772861542737843 0.000834646455927083 0.000512086175928312 0.000710325509985092 0.000792632965521432 0.000914027397186392 0.0008359332801705 0.000773032568504199
"99" 0.000328284474785789 0.000253455153567651 0.000421310554228773 8.02213353604612e-06 0.000873819611167207 0.000236978644878359 0.000870792586770141 -1.5398894309677e-05 0.000812988154083433 0.000855589409591357 0.000545319633894378 0.0007495390252604 0.000835700472814173 0.000953793582213506 0.000872455034763614 0.00079141856679217
"100" 0.000358330309301683 0.000252930811459603 0.000455936577680031 3.66037435319253e-05 0.000953361900275141 0.00027539190187068 0.000914648858521099 2.05003905299945e-05 0.000852679963752591 0.000875789213475539 0.00057781622224215 0.000788316598385941 0.000877623934166691 0.000992314251777837 0.000907261136278708 0.000808098023663321
"101" 0.000387070094181343 0.000251745296657034 0.00049068766995733 6.63695474457606e-05 0.00103227611128329 0.000313320969042195 0.000956435696298161 5.60328913581194e-05 0.000891883698106993 0.000895257926980582 0.000609491216809904 0.000826518190774944 0.000918245339677394 0.00102955059213691 0.000940291068154858 0.0008230492303677
"102" 0.00041429772047963 0.00024988045751921 0.000525328138592263 9.71208879753849e-05 0.00111014891079926 0.000350478255478551 0.000995843217687898 9.09859145400036e-05 0.000930555472214026 0.000914014173873229 0.000640266343333227 0.000864018235365817 0.000957423432396198 0.00106547359125653 0.000971495557560614 0.000836268424189366
"103" 0.000439829515082991 0.000247317044409632 0.000559609316939906 0.000128642563529021 0.00118657012902461 0.000386575152355264 0.00103258695135214 0.000125165789930547 0.000968654769018427 0.000932079624476563 0.000670067130171718 0.000900691489819306 0.000995026344324718 0.00110006217889897 0.00100083870340319 0.000847753319267693
"104" 0.000463489838508176 0.000244036660068573 0.000593274875566441 0.000160718419405908 0.00126113942000506 0.000421328899959833 0.00106640380265684 0.000158375773013999 0.00100614954594025 0.0009494856015742 0.000698830916723148 0.000936429794385139 0.00103093112539066 0.00113331802875652 0.00102829941634645 0.000857526972830324
"105" 0.000485124593674123 0.000240025647363373 0.000626064829894312 0.000193116046814469 0.00133346621185494 0.000454465333351174 0.00109706096587296 0.000190439139566915 0.00104301027003034 0.000966263375751859 0.000726503510964992 0.000971131347415218 0.00106503489626746 0.00116524127012004 0.00105386756942662 0.000865613822990306
"106" 0.000504593254966373 0.00023526191036614 0.000657707139498103 0.000225604747664531 0.00140317830929731 0.000485716163260635 0.00112434597839469 0.000221186036479261 0.0010792147813966 0.000982447587255537 0.000753034149299867 0.00100470755519093 0.00109724382365446 0.00119585171371961 0.00107754810579708 0.000872055181364815
"107" 0.000521776208185387 0.000229736393276603 0.000687941160134387 0.000257949520814411 0.00146992077039066 0.00051483095938095 0.00114808594094193 0.000250468588652638 0.0011147463854996 0.000998080819915235 0.00077838508475795 0.0010370777329516 0.00112748706059653 0.00122517565219512 0.00109935412546017 0.000876902993347011
"108" 0.000536573515593871 0.000223439007536416 0.000716503833063197 0.000289915836191599 0.00153336595112208 0.00054157744442327 0.00116813106440088 0.000278147346049828 0.00114959177814795 0.00101320335567949 0.000802525475523673 0.00106817763061867 0.00115570346510554 0.00125324742583034 0.00111931604831327 0.000880223945662527
"109" 0.000548905519485729 0.000216363903854475 0.000743144118074063 0.000321273507086158 0.00159320568297988 0.000565741951189005 0.00118437965269499 0.000304103908135216 0.00118374224573057 0.00102786122187029 0.000825433025938137 0.00109795370786767 0.00118185100545322 0.0012801105349867 0.0011374737129602 0.000882089293456224
"110" 0.00055872107766124 0.000208509286474713 0.000767619150300123 0.000351789284356716 0.00164917026703302 0.000587137489297474 0.00119675221344894 0.000328238439579122 0.00121719347495137 0.00104210379331754 0.000847094702896205 0.00112636243765453 0.00120590245418515 0.00130581500272413 0.00115387957593039 0.000882589297889582
"111" 0.000565980501359641 0.000199884785167398 0.000789711026733974 0.000381249041764515 0.00170101965880924 0.000605605333678984 0.00120521682528779 0.000350466602143583 0.00124994476582982 0.00105597400695363 0.000867506965417169 0.00115337286019846 0.00122784961631528 0.0013304119443374 0.00116859230908911 0.000881817573933918
"112" 0.000570676909690301 0.000190500453765254 0.000809208938063386 0.000409439084578328 0.00174854645377476 0.000621011451563995 0.00120977066212862 0.00037072808267516 0.00128199088263169 0.00106952045424571 0.000886671080162234 0.00117896914771161 0.00124769679348093 0.00135396413413686 0.0011816844364013 0.000879879741898347
"113" 0.00057282242570892 0.000180377229861084 0.000825935893572435 0.000436159254847972 0.00179158119745154 0.000633260416025852 0.00121045868240314 0.000388976588656673 0.00131333743773007 0.0010827911952287 0.000904598717096713 0.00120314238481731 0.00126546936840224 0.00137652785101582 0.00119323763192169 0.000876887212706494
"114" 0.000572454661104714 0.00016954412363287 0.00083973274864904 0.000461225542697709 0.0018299927342989 0.000642285721775655 0.00120735176056677 0.000405186476657458 0.00134398047223091 0.00109582682661652 0.000921309273203832 0.00122589443289314 0.00128120108712799 0.00139816834471251 0.00120333236262874 0.000872966293911644
"115" 0.000569629846481227 0.000158041110007411 0.000850480669115158 0.000484471066391743 0.00186369556173414 0.000648058191781873 0.00120056040167834 0.000419357910875707 0.00137392078167722 0.00110867267617399 0.000936828254876971 0.00124723709266355 0.00129494603744883 0.00141894630042716 0.00121206865633707 0.000868242641485109
"116" 0.000564428789437176 0.000145914305915292 0.000858085713456866 0.000505740742215581 0.00189262980035376 0.000650587278637897 0.00119023585448581 0.00043150058995859 0.00140315468060512 0.0011213651900254 0.0009511851386684 0.00126719025157408 0.0013067669564051 0.00143891835918422 0.00121954188335569 0.000862845907487307
"117" 0.000556956510802206 0.000133223797720622 0.000862486590412065 0.000524904321566277 0.00191679565383801 0.000649916605472874 0.00117655270984296 0.000441649503434089 0.0014316768515705 0.00113394072646623 0.000964417612589595 0.00128578185717538 0.00131673997925082 0.00145814305596924 0.00122585435082863 0.000856916884301364
"118" 0.000547333138383417 0.000120038810898353 0.000863665630398659 0.000541855454047782 0.00193621599030916 0.000646129323192456 0.00115972509573059 0.000449853556735146 0.00145947970278376 0.00114642874774904 0.000976567736770027 0.00130304784582358 0.00132495641488143 0.00147667060643865 0.00123111117355189 0.000850597346197132
"119" 0.000535701902285145 0.000106438750217995 0.00086163340496652 0.000556502807456046 0.0019509625458769 0.000639344928072474 0.00113999054918369 0.000456179700410875 0.00148654554882977 0.00115885254530097 0.000987680426985722 0.00131902302577606 0.00133151045264184 0.00149454382949521 0.00123542191188126 0.000844027831862063
"120" 0.000522221816108395 9.25162260141515e-05 0.000856446736950851 0.000568784923008379 0.00196113952413672 0.000629716421818034 0.00111761444179757 0.000460711925553193 0.00151285728724801 0.00117123263065638 0.000997806851304749 0.00133375256148186 0.00133650622453695 0.00151180210490731 0.00123889217410206 0.000837355054562387
"121" 0.000507067237076023 7.83703307238902e-05 0.000848196550408182 0.000578664447724502 0.00196689037168261 0.000617434833974361 0.00109288567397821 0.000463540629478288 0.0015383867684567 0.00118357822073067 0.00100699452458133 0.00134728229015117 0.00134005613573027 0.00152847538785215 0.00124162857504283 0.000830719858342826
"122" 0.000490429990735153 6.41168209202089e-05 0.000837006500405878 0.000586121130212698 0.00196839071638854 0.000602720111272146 0.00106610964610411 0.000464780378409627 0.00156310338662391 0.0011958946334707 0.00101529888499228 0.00135965505301525 0.00134228134534856 0.00154458393087464 0.00124373697826706 0.000824264773844926
"123" 0.000472510235250902 4.98747266701912e-05 0.000823043143473141 0.000591174032639389 0.00196584752813879 0.000585827368575745 0.00103761636962742 0.000464550400500105 0.00158696710010063 0.00120818062480479 0.00102277323021427 0.0013709204290145 0.00134329660108794 0.0015601359991439 0.00124531994954563 0.00081813100207274
"124" 0.000453520980681862 3.5777460404294e-05 0.000806503064227928 0.00059385405987231 0.00195949090044985 0.000567035639628743 0.00100773967370977 0.000462976510788308 0.00160993169053296 0.00122042425474308 0.00102947301759999 0.00138112227887792 0.0013432260899571 0.00157513468602404 0.0012464749279884 0.000812451797158304
"125" 0.00043368861810658 2.19634049671944e-05 0.000787613185635637 0.000594221399493234 0.00194958343281238 0.000546647422148628 0.000976828438563624 0.000460199146763406 0.00163194326420423 0.00123260613245019 0.00103544948342322 0.00139030233603027 0.00134219393258862 0.0015895660179744 0.00124729564196966 0.00080735665933902
"126" 0.000413241412892465 8.58083840491512e-06 0.000766635479908545 0.000592365720050317 0.00193640521467084 0.00052499311609232 0.000945235616764142 0.000456359276798278 0.00165293785258768 0.00124470247052226 0.00104075278043237 0.00139850169653594 0.00134032130222492 0.00160341482955084 0.00124787180873854 0.000802970961235146
"127" 0.000392413308723172 -4.21559244945929e-06 0.000743853948055516 0.000588392270120605 0.00192025670578955 0.000502414894916207 0.000913322926378834 0.000451608345574575 0.00167284823028956 0.00125667539835519 0.00104543791153764 0.0014057538169617 0.0013377293864461 0.00161664194555784 0.00124828479562965 0.000799408252083999
"128" 0.000371435163696876 -1.62711176240011e-05 0.000719573593933412 0.000582429842903341 0.00190144744614878 0.000479270835610378 0.000881442812600283 0.000446094879871489 0.00169160242311928 0.00126848674733437 0.00104954889194606 0.0014120907774623 0.0013345284298356 0.00162920685707365 0.00124860663694831 0.000796779425956394
"129" 0.000350554002501139 -2.74219366654354e-05 0.000694122799671607 0.000574627050797415 0.00188030441749233 0.000455928545772329 0.000849945484647278 0.000439976150900032 0.00170911492950376 0.00128008347332427 0.00105313174480163 0.00141753945494095 0.0013308327933742 0.00164105790196133 0.00124890781873988 0.00079517817103823
"130" 0.000329994014019903 -3.75069456489893e-05 0.000667837196657419 0.000565154962110184 0.0018571555229627 0.000432760982419987 0.000819173038771766 0.00043339724956629 0.00172529888500176 0.00129140672572939 0.00105622407397923 0.00142211295754045 0.00132674485191975 0.00165213080097011 0.0012492417662293 0.000794696805841674
"131" 0.000309990449106406 -4.63615617707359e-05 0.00064107229057048 0.000554196221258655 0.001832337750868 0.00041014456331457 0.000789462163169348 0.00042651374650056 0.00174006445354245 0.00130239479164162 0.00105886321868945 0.00142582756931974 0.00132236030495536 0.00166235548347298 0.00124966041591368 0.000795406517115847
"132" 0.000290766500471521 -5.38262108264988e-05 0.000614186492178326 0.000541947786301146 0.00180618440706622 0.00038844885683212 0.000761127986606077 0.000419469140461969 0.00175331597394467 0.00131297424910034 0.00106107838375228 0.00142868744995596 0.00131776712720163 0.0016716512858975 0.00125020045648236 0.000797371001503576
"133" 0.000272535342802047 -5.97410493762459e-05 0.000587542746328036 0.00052862520499997 0.00177902707135411 0.000368035310409679 0.00073446963121559 0.00041240315090568 0.00176495174845908 0.00132306609441538 0.00106289433351484 0.00143068907552777 0.0013130411461247 0.00167993140535095 0.00125089144782871 0.000800640210010218
"134" 0.000255496729962804 -6.39540714336898e-05 0.000561502896616529 0.000514442938772664 0.0017511910572958 0.000349252027946749 0.000709762877581601 0.000405453187443914 0.00177487246521539 0.00133258945062425 0.00106433084404715 0.00143182628173495 0.00130824844627037 0.00168710099027088 0.00125175273669247 0.000805247964735109
"135" 0.000239844269549821 -6.63195145578683e-05 0.000536428254095604 0.000499627740464554 0.00172299215279739 0.000332429394221457 0.000687265303168541 0.000398743616347885 0.00178297532987544 0.00134145136828913 0.00106540029994765 0.00143208278355462 0.00130344866125948 0.00169306170325352 0.00125278874576387 0.000811215602053435
"136" 0.000225742162037074 -6.66997797596311e-05 0.000512668815099065 0.000484411281663152 0.00169473453660555 0.000317871089776472 0.000667202660097671 0.000392391952304052 0.00178915466461186 0.00134955672899735 0.0010661036460238 0.00143143596812549 0.00129868722391261 0.00169771204592604 0.00125399365123274 0.000818541654050668
"137" 0.000213346250343772 -6.49694703737082e-05 0.000490571304421165 0.000469018770096403 0.00166670966578038 0.000305852768827343 0.00064977024962723 0.000386501855890778 0.00179330895205372 0.00135680637527689 0.00106643894768601 0.00142985968448545 0.00129399773335595 0.00170094177899679 0.00125535274277927 0.000827215569281433
"138" 0.000202785580464328 -6.10105952207742e-05 0.000470468614688205 0.000453686086029952 0.00163919415527701 0.000296625190871348 0.000635137487771987 0.000381169137815969 0.00179534020283361 0.00136310307373555 0.00106639797768783 0.00142732239127445 0.00128940396660714 0.00170264982577455 0.00125683446514373 0.000837207385129073
"139" 0.000194170570167918 -5.47215174372079e-05 0.000452673824004421 0.000438634767355754 0.00161244860156213 0.000290395530809064 0.000623438832428136 0.000376473038622223 0.00179515084793459 0.00136833770340397 0.00106595747809533 0.00142378792414979 0.00128491748344851 0.00170272399661979 0.00125839968505721 0.000848470361666856
"140" 0.000187583799542852 -4.60212719239337e-05 0.000437481278563494 0.00042408032208749 0.00158670442978371 0.000287331580318981 0.000614769168784466 0.000372484773883894 0.00179264887771677 0.00137240607312863 0.0010650937253309 0.00141921755238635 0.00128053571368428 0.00170106638295701 0.0012599982755993 0.000860938360047713
"141" 0.000183089008270097 -3.48430876625154e-05 0.000425157073138656 0.000410232235857445 0.00156217971041673 0.000287566626294262 0.000609195887116713 0.000369258732103842 0.00178775682889521 0.00137520368425812 0.0010637758536944 0.00141356882564487 0.00127625235204112 0.00169757485335147 0.00126156774836896 0.000874531974780183
"142" 0.000180725952867809 -2.11378028079302e-05 0.000415945674352223 0.000397290970693126 0.00153906954265878 0.000291192152291354 0.000606752223164864 0.000366838622373948 0.00178040441638265 0.00137663277904174 0.00106196444727816 0.00140680070129442 0.00127204413270718 0.00169216451634591 0.00126304056554342 0.000889156814754401
"143" 0.000180503418694732 -4.88079926649079e-06 0.000410051411455805 0.000385442884070053 0.0015175423303899 0.000298259300990841 0.000607430023875939 0.000365255232650949 0.00177053371028622 0.00137659547965221 0.00105962253896883 0.00139887225782819 0.00126788374178862 0.00168475369383411 0.00126434099918109 0.000904698603981569
"144" 0.000182412316873226 1.39221580929468e-05 0.000407640506979021 0.000374853732883816 0.00149773950642561 0.000308774520415448 0.000611190058603164 0.000364527090603102 0.00175810636945034 0.00137500193911193 0.00105670278508578 0.00138974662486365 0.00126372766162752 0.00167527779878842 0.00126538679600452 0.000921031980895851
"145" 0.000186422125006845 3.52469482877934e-05 0.000408844566727508 0.000365678948473843 0.0014797817672061 0.000322706310067407 0.000617964714265162 0.000364662752504473 0.00174310366808953 0.00137177450485726 0.00105316035366931 0.00137938571965805 0.00125953322544913 0.00166368803942234 0.00126609236112787 0.000938017956201885
"146" 0.000192471846302041 5.90394650132235e-05 0.000413739856051501 0.00035805484865279 0.00146375603419583 0.000339984951771588 0.000627648983092662 0.000365651139790155 0.00172552559934165 0.00136684040288896 0.00104895247007601 0.00136775980394395 0.0012552405226381 0.0016499515131725 0.00126636734092834 0.000955503462732319
"147" 0.000200491042664683 8.52147841799159e-05 0.000422364319045413 0.000352100539887628 0.00144972703175724 0.00036049625308327 0.000640109204732187 0.000367484411353185 0.00170539044242607 0.00136014365151193 0.00104403272231561 0.00135484576696616 0.00125079375515264 0.00163405629026813 0.00126612620182351 0.000973328458557315
"148" 0.000210376093560068 0.000113660954445211 0.000434704343939047 0.00034791225939772 0.00143773087308333 0.000384093145087684 0.000655181728445187 0.000370133061468102 0.00168274472706207 0.00135163553191555 0.00103835757614576 0.00134062314883961 0.00124612043809604 0.00161600617878043 0.00126527535280951 0.000991317757508715
"149" 0.000222010170230139 0.000144233192516906 0.000450695088051479 0.000345562127100009 0.00142777745898839 0.000410589722545877 0.000672678716920671 0.000373565676482246 0.00165765690242127 0.00134128830088607 0.00103189229148032 0.00132508474688468 0.00124115365707286 0.0015958355425406 0.00126373230441165 0.00100929433898746
"150" 0.000235259175443795 0.000176755465638912 0.000470221274912162 0.000345107419936683 0.00141984582234003 0.000439762108176903 0.000692377619598831 0.00037773605422271 0.00163021941966642 0.0013290851708532 0.00102459769108749 0.00130822836655528 0.00123582155367892 0.00157359240047738 0.00126140860840265 0.00102707009980916
"151" 0.000249964546801745 0.000211022077672793 0.000493121179203843 0.000346575463359528 0.00141389403247053 0.000471353894368615 0.000714041782846719 0.000382595880289008 0.00160054553685843 0.00131502327754216 0.0010164441258251 0.00129006824532408 0.00123004648891067 0.0015493486398586 0.00125822454078876 0.00104445267612057
"152" 0.000265962979315307 0.000246797804750791 0.00051917914898656 0.000349979423923136 0.00140985390213212 0.000505078728239789 0.000737412610765928 0.000388085073167536 0.00156877243983084 0.00129911815871503 0.00100740806351891 0.00127062351599138 0.00122375485975948 0.00152319628836257 0.0012541041797572 0.00106125032034475
"153" 0.00028306593034249 0.000283815655410851 0.000548134550711725 0.000355298070129659 0.00140762262816146 0.000540616445512879 0.000762202923106809 0.000394141621560421 0.00153505682226415 0.00128139677514363 0.000997466356177247 0.00124992308676889 0.00121686847090706 0.00149524492608605 0.00124897491266498 0.00107726337236281
"154" 0.00030108178697441 0.000321780020353179 0.000579679745991448 0.000362493464204394 0.00140708596286402 0.000577627011350587 0.000788124660852358 0.000400691720758391 0.00149957698912876 0.00126190736154012 0.000986607698463591 0.00122801707880282 0.00120932073232066 0.00146563233140562 0.00124277462586671 0.00109230010451545
"155" 0.000319801340004021 0.000360368544135049 0.000613463264052612 0.000371501417365078 0.0014080944132982 0.000615742730684266 0.000814862961349134 0.000407663210190375 0.00146252843829064 0.00124070616042559 0.000974823089888133 0.00120495906757018 0.00120103591469401 0.00143450370999267 0.00123544169394787 0.00110616487567216
"156" 0.000339017502148369 0.00039923339644734 0.000649102530522149 0.000382237897123626 0.00141048228278361 0.000654577003634914 0.000842097773139734 0.000414975565857997 0.00142411984065294 0.0012178672000188 0.000962113940287375 0.00118081735214237 0.00119195096879517 0.00140202151286966 0.00122692836823468 0.00111867071212978
"157" 0.000358506594004888 0.00043800243367983 0.000686169157473336 0.000394593827758435 0.00141405611140516 0.000693728614785715 0.000869503880279678 0.000422544192047466 0.00138457221662491 0.00119347541364349 0.000948484692576597 0.00115567203501872 0.00118200181870914 0.00136836350013565 0.0012171902688008 0.00112962970647625
"158" 0.000378055198517353 0.000476283451863113 0.000724212570549655 0.000408438334936396 0.00141860828723745 0.000732789456630944 0.000896753151900554 0.000430285596498925 0.00134411977822822 0.00116762747019582 0.000933948200063856 0.00112961289594178 0.00117113240712481 0.00133371265512127 0.00120619086905137 0.00113886790360009
"159" 0.000397439343981657 0.000513667142607625 0.000762756551667707 0.00042362623519474 0.00142390463415207 0.000771341408508272 0.000923515801179207 0.000438117808991305 0.0013030023913079 0.00114043322669907 0.000918524586348905 0.00110274535813878 0.00115929258997542 0.00129826861502555 0.00119390357370251 0.00114622016024733
"160" 0.000416449451661378 0.000549732610085688 0.00080130181815926 0.000439984698224688 0.00142969977793117 0.000808970007542533 0.00094946585790021 0.00044594742616286 0.00126146453069122 0.00111201083377309 0.000902240978689483 0.00107518170872959 0.00114644124919562 0.00126223263912646 0.00118030949949235 0.00115153037461751
"161" 0.000434866772123555 0.000584046338251621 0.000839333518452227 0.00045732728050575 0.0014357284364227 0.000845256920038086 0.000974282425395694 0.000453689847999847 0.00121975084236537 0.00108248459470264 0.000885128023482167 0.00104704175464148 0.00113254200924688 0.00122580499545753 0.00116539853709712 0.00115465639718678
"162" 0.000452484998506269 0.000616177186798286 0.000876328592442275 0.000475449859640352 0.00144172177103501 0.000879799575522334 0.000997657909065417 0.000461259927398795 0.00117811477323927 0.00105199135301281 0.000867227084688426 0.00101845289156624 0.00111756556503565 0.00118919439029372 0.00114917002072909 0.00115547186261086
"163" 0.000469108422218439 0.000645693260131508 0.000911757400105718 0.000494140448215228 0.00144740047772236 0.000912202757729749 0.00101929535205815 0.00046857760335183 0.00113679785102315 0.00102066942892845 0.000848585379942619 0.00098955227724231 0.00110149667740514 0.00115261234640353 0.00113163359743578 0.00115386886853126
"164" 0.000484542381459551 0.000672176873243442 0.000945091858978016 0.000513168515786183 0.00145248718076033 0.000942089169633715 0.00103891613871064 0.000475559810456969 0.00109605326659969 0.00098867047980203 0.000829255556334652 0.000960480634975021 0.00108432826702236 0.00111626117655867 0.00111281332943938 0.00114976105498976
"165" 0.000498602899845809 0.000695222534829618 0.000975799074557327 0.000532295776223312 0.00145670930179163 0.000969099904478397 0.00105625657824361 0.000482131588046117 0.00105611938162671 0.000956148285570974 0.000809298750186622 0.000931376838955335 0.0010660607767779 0.00108035867837464 0.0010927422687204 0.0011430779698203
"166" 0.000511105354084652 0.000714457218033976 0.00100336174946759 0.00055127809314434 0.00145981307273617 0.000992895128895637 0.00107107439127405 0.000488218694522994 0.00101724077371685 0.00092326562214129 0.000788788338691625 0.000902385365272419 0.00104670883811417 0.00104511121897881 0.00107147104421305 0.00113377864019891
"167" 0.000521878919582664 0.000729534398677325 0.00102726548362458 0.000569870048485929 0.00146155880946001 0.00101316754722375 0.00108315175548825 0.000493764924068528 0.000979655795600092 0.000890194181191144 0.000767799565920135 0.000873646335888596 0.0010262984950703 0.00101073067000997 0.00104906597725234 0.00112184736521139
"168" 0.000530756595306557 0.000740149385348195 0.00104701120339772 0.000587815224805496 0.00146173679337918 0.0010296258679872 0.00109229540016904 0.000498700491250041 0.000943599936599372 0.000857106088225472 0.000746419455316513 0.000845298419785585 0.00100486676006007 0.00097743020290855 0.00102560680733761 0.00110728900153844
"169" 0.000537567174473662 0.000746043572055621 0.00106212185396496 0.000604868436399665 0.00146016486760327 0.00104201796376839 0.0010983341998267 0.000502982111867709 0.000909305030454987 0.000824186172477588 0.000724742114706327 0.000817473372724823 0.000982468052814906 0.000945419318922411 0.00100119256370063 0.00109014741432596
"170" 0.000542157972600453 0.000747008638889215 0.00107214264013106 0.000620780665033122 0.00145669145202774 0.00105012017484104 0.00110113526225785 0.000506558638933292 0.000876999299553289 0.000791618495309283 0.00070287428324512 0.000790296421585803 0.000959162065824359 0.00091491162284284 0.00097593914201246 0.00107048589746554
"171" 0.000544380727699613 0.000742889699099312 0.00107665466768537 0.000635309650773939 0.00145120405432894 0.00105374663845922 0.00110057969578727 0.000509393562158296 0.000846897100522639 0.000759590226514081 0.000680918492094822 0.000763886333102204 0.000935020970169683 0.000886107450089916 0.000949976049278579 0.00104839442887954
"172" 0.000544094895165105 0.000733589080041165 0.00107528805712996 0.000648223796948124 0.0014436197052894 0.00105275117766746 0.0010965894577869 0.000511457402331981 0.000819203541812213 0.000728294421485901 0.000658991426318937 0.000738349127990517 0.000910131504102132 0.000859209719893454 0.000923441071819907 0.00102399356121765
"173" 0.000541183011106456 0.000719061458901105 0.00106771532082584 0.000659299584173732 0.00143387709012452 0.0010470269942098 0.00108911678635029 0.000512723576590666 0.000794105759238085 0.000697909419552574 0.000637205673892801 0.000713783158082903 0.000884581827384497 0.000834397588562097 0.000896486109138436 0.000997423899510388
"174" 0.000535541316251783 0.000699323299720643 0.00105368163405175 0.00066832494271858 0.00142195121229937 0.00103651819628087 0.00107813768895747 0.000513178689363164 0.000771769988830774 0.000668611600383971 0.000615676822031098 0.000690276640976565 0.000858471057428089 0.000811840867755289 0.000869266289538236 0.000968844071865442
"175" 0.000527090820058816 0.000674437918675856 0.00103299377544261 0.000675098805379068 0.00140782400597117 0.00102120829939007 0.00106366869054244 0.000512804067721466 0.000752340707581295 0.000640571446114346 0.000594518507623007 0.00066790613399839 0.000831905965761265 0.000791678580779233 0.000841936949017054 0.000938438041431339
"176" 0.000515774787718973 0.000644528203645709 0.001005539573561 0.000679443066264606 0.00139150285953924 0.00100113893977933 0.00104575593852365 0.000511597316601177 0.000735927673836735 0.000613938835306229 0.000573837154614788 0.000646734340001573 0.000804994845126922 0.000774032913224892 0.000814655398039686 0.000906393345013989
"177" 0.000501568805763841 0.000609762778360995 0.000971284957117893 0.000681189220181899 0.00137300333407948 0.000976391315991162 0.00102446753898055 0.000509555426341358 0.00072261264562657 0.000588846909161281 0.000553737442909811 0.000626816430727745 0.000777843635343459 0.000758989839843091 0.000787574115931382 0.000872919419014657
"178" 0.000484472082493545 0.000570357207226657 0.000930289897077334 0.000680188653430843 0.00135235298579197 0.000947099607266108 0.000999911233626833 0.000506675116711524 0.000712441760494769 0.000565415388589159 0.000534312911845475 0.000608189103472512 0.000750567218086795 0.000746608079744774 0.0007608373604681 0.000838231674743514
"179" 0.000464519086907146 0.000526574672936122 0.000882688023843335 0.000676316625409685 0.00132958348490136 0.000913439110412806 0.000972213479290052 0.000502966526197373 0.000705419530415328 0.000543740574116228 0.000515648673815578 0.000590879936653917 0.000723275095263641 0.000736901456227214 0.000734578055214683 0.000802550037042791
"180" 0.000441773186966603 0.000478719263087585 0.000828712939650356 0.000669464877099524 0.00130473689981734 0.000875632278395765 0.000941533606436712 0.000498432367081233 0.000701523840655279 0.000523893999828107 0.000497819059319613 0.000574901831702325 0.000696073296874132 0.000729861320182807 0.000708922466433469 0.000766099220585849
"181" 0.000416312638471593 0.000427135387511147 0.000768666164778448 0.000659551055343763 0.00127786216764002 0.000833934394766292 0.000908045468282555 0.000493084444332425 0.00070068017163457 0.000505933191072081 0.000480887907063403 0.000560254012311034 0.000669073598409371 0.000725438330560941 0.000683983438820407 0.000729110967580508
"182" 0.000388257700277824 0.000372202798733864 0.000702942010489389 0.000646515829367874 0.00124901215906154 0.000788635668052154 0.000871945353595261 0.000486927358935004 0.000702779675288227 0.000489877258758727 0.000464904886436853 0.000546920355723374 0.000642374855110544 0.000723538918123146 0.000659857696587283 0.000691807868104001
"183" 0.00035773715394077 0.000314335059382862 0.000632004371513616 0.000630320582434567 0.00121825039423577 0.00074005498526855 0.000833449974313257 0.000479975251267149 0.000707681700199259 0.000475731354451009 0.000449903902166679 0.000534870956020474 0.000616081442022515 0.000724043812404506 0.000636629686459337 0.000654417731966008
"184" 0.000324901589802974 0.000253974633838613 0.00055638993126203 0.000610952671291525 0.00118564675699716 0.000688519753901506 0.000792775462314514 0.00047223139568704 0.000715194234525421 0.000463473562663006 0.000435909993459947 0.000524062626366013 0.000590282290824849 0.000726792965947717 0.000614366721120822 0.000617161844366643
"185" 0.000289910818519173 0.000191591415101143 0.000476701437775483 0.000588422558716573 0.00115128679963645 0.000634374655541695 0.000750154767228474 0.000463701435427665 0.000725089629249585 0.000453054595680335 0.000422923415082599 0.000514435242835763 0.000565072304241451 0.000731589185154474 0.000593119686226524 0.000580253987350097
"186" 0.000252933476414109 0.000127679337257768 0.000393618538145851 0.00056276294870339 0.0011152616524215 0.000577956298171326 0.000705817171288764 0.000454387092543996 0.000737092301611993 0.000444391655984214 0.000410932367617502 0.000505915300745667 0.000540534888172237 0.000738197185365824 0.00057291487885406 0.000543897467587913
"187" 0.00021413319070227 6.27579799712515e-05 0.000307890999611594 0.000534024149561533 0.00107768121018289 0.000519574651965161 0.000659985109755883 0.000444274971782544 0.00075088170927805 0.000437373930330785 0.000399891525974462 0.000498414609258231 0.000516751442260381 0.000746337933623744 0.000553750888337187 0.000508281199090735
"188" 0.000173645653469156 -2.62877989992075e-06 0.000220356892550434 0.000502277162720461 0.0010386764597586 0.000459484548009163 0.000612858850466298 0.00043333960657003 0.000766067081767325 0.000431840798224934 0.000389727709334373 0.000491831020223972 0.000493795545401861 0.000755681777771044 0.000535597354627647 0.000473576530811742
"189" 0.000131554213691845 -6.78935156511955e-05 0.000132004967239227 0.0004675884820493 0.000998416368697024 0.000397823769204482 0.000564591884032023 0.000421522007357788 0.000782168320340803 0.000427580213752791 0.000380300745685389 0.000486041091592143 0.000471742906653707 0.000765819135570048 0.000518357408082803 0.00043992180257786
"190" 8.78060498047649e-05 -0.000132379161833503 4.40909097470719e-05 0.00043001044759383 0.00095713292455576 0.000334461663789223 0.000515227483919413 0.000408696384439035 0.000798521366394273 0.000424249711682216 0.000371365550644426 0.000480901714753333 0.000450670132566665 0.000776198386184085 0.000501831011586486 0.000407407287075922
"191" 4.19644801539778e-05 -0.00019522060229077 -4.1406073979392e-05 0.000389497942959849 0.000915221810866953 0.000268554778275449 0.000464527829996538 0.000394547147708311 0.000814022909054955 0.000421240918923526 0.000362385044449618 0.000476226098479656 0.00043067814899545 0.000785917131542607 0.000485535749695245 0.000375989953153783
"192" -7.91879931156145e-06 -0.000254731910238772 -0.000119693804678901 0.000345554587968377 0.000873713482336691 0.00019643776839609 0.000411127297777276 0.000378030622790688 0.000825885993639025 0.000416878098478025 0.000351710844621512 0.00047167946171368 0.000411977796084352 0.000792730749774425 0.000467943374188881 0.000345167752370473
"193" -0.000102885301308502 -0.000287913484698887 -0.000113543377595861 0.000285593753200539 0.000849699447031526 4.22602410742168e-05 0.000324927022796931 0.000339260253199987 0.00078819933320962 0.000382561395431321 0.000309376872139806 0.000463358734030123 0.000397889323639748 0.000760121565977739 0.000420710107481319 0.000302891796206384
"194" -8.94476162489624e-05 -0.00037798404876586 -0.000306396373263818 0.000257329697904429 0.000780344726757165 8.93730147483565e-05 0.000318780590201577 0.000352121668411351 0.000869605282311819 0.000423630930064769 0.000346320813551768 0.000465100859381887 0.000376224568463332 0.000822111418769419 0.000448866179065032 0.000294480751884981
"195" -0.000121140683513864 -0.000440565457750742 -0.000412490045019656 0.000213343050628939 0.000728977023489994 5.41519636164151e-05 0.000279899235320864 0.000342502773965269 0.000900111185733188 0.000434004437074849 0.000351073171083622 0.000462732447874741 0.000359244881137526 0.000843557994175469 0.000446914224203441 0.000274671657869998
"196" -0.000155778137172383 -0.000498172620133551 -0.000508998677305099 0.000166894118966811 0.000678500848841152 1.43972629160111e-05 0.000239320605969224 0.000330645084026524 0.000925619710403053 0.000442382232392878 0.000353945685738025 0.000459935828078125 0.000343609684417575 0.00086092608963667 0.000443561925517389 0.000255917950146639
"197" -0.00019102323549535 -0.000551604670300003 -0.00059927786948958 0.000118897675070569 0.000628183691497321 -2.5686003111901e-05 0.000198789642721976 0.00031758578562149 0.000948094781955998 0.000450017592036246 0.000356385878458841 0.000456761226779822 0.000329142089566544 0.000875756954629001 0.000440184328161111 0.000238905485620405
"198" -0.000225986658904188 -0.000600898135624298 -0.000684031026239315 6.98392770362427e-05 0.000577900925359247 -6.45907910483895e-05 0.000158972763694674 0.00030366361488002 0.000967920139104478 0.000457173463822299 0.000358784773810893 0.000453130056032221 0.000315777224874396 0.00088833836014006 0.000437162965970098 0.000223872960389861
"199" -0.000260184379905954 -0.000645928770880948 -0.000763329956809597 2.00847897462897e-05 0.000527672418725327 -0.000101545248051669 0.000120242124443909 0.000289043359740334 0.000985079346476044 0.000463846419921329 0.00036126286718626 0.000448931429339411 0.00030346445564912 0.000898645279314084 0.000434607849504591 0.000210931194267438
"200" -0.000293266080256123 -0.000686532609435455 -0.000837022801990355 -3.00352022293348e-05 0.000477575758429179 -0.000136057029363974 8.28487193442579e-05 0.000273818676219554 0.000999421566475648 0.000469948983059779 0.000363832442807159 0.000444054042735581 0.000292159077899193 0.000906543775688576 0.000432533115107553 0.000200124035037771
"201" -0.000324983096887943 -0.000722553484493878 -0.000904902062929705 -8.02123741997745e-05 0.000427716034644132 -0.000167798141666171 4.69689715282456e-05 0.000258053153934148 0.00101075229096283 0.000475341546484731 0.000366461037310229 0.000438385496775932 0.000281811256068607 0.000911873287755306 0.000430899054342654 0.000191460314346263
"202" -0.00035512334312773 -0.000753856715908172 -0.000966745755086539 -0.000130145981607643 0.00037821380297281 -0.000196538679761884 1.27430099708927e-05 0.000241798387037984 0.00101886133223097 0.000479874638801797 0.00036908301321141 0.000431818353957923 0.000272367428242873 0.000914458560897987 0.00042963549848724 0.000184919197072931
"203" -0.000383534467741205 -0.000780343578613105 -0.00102235243806596 -0.000179556662246111 0.000329178681529535 -0.000222133935969228 -1.97369395372753e-05 0.000225090508469942 0.00102354601052857 0.000483387566897282 0.000371621775119971 0.000424260815841986 0.000263765274594368 0.000914137263316807 0.000428651455006629 0.000180448306430866
"204" -0.000410073320914163 -0.000801952985450611 -0.00107155636465128 -0.000228169405281631 0.000280740160174041 -0.000244495003937008 -5.04055497971682e-05 0.000207969464809667 0.00102462669090708 0.00048572194193146 0.00037398673833235 0.000415626267164328 0.000255942576717094 0.000910760273252326 0.000427845336544624 0.000177977735498765
"205" -0.000434648778707433 -0.000818662764577905 -0.00111424030033998 -0.000275726949624431 0.000233009227700416 -0.000263596364667455 -7.92265299115242e-05 0.000190467339108556 0.0010219478157821 0.000486720945908407 0.000376084536490778 0.000405843562446371 0.000248822484652666 0.000904209583462583 0.000427104956687931 0.00017740787989078
"206" -0.000457188944170935 -0.000830496003067326 -0.00115032328600137 -0.0003219823350908 0.000186103980288565 -0.000279459807090548 -0.000106189952521353 0.00017261104616061 0.00101538507988034 0.000486244416663824 0.00037781887467568 0.000394857432653683 0.00024232544987897 0.000894388680862133 0.000426309575869657 0.000178623027414496
"207" -0.000477650807384547 -0.000837521662573381 -0.00117979040171478 -0.000366710258932997 0.000140125299393518 -0.000292161476001143 -0.000131312014996073 0.000154434789170741 0.00100484799398221 0.000484155038415881 0.000379091387007842 0.00038262376868463 0.000236366406159523 0.000881232400130142 0.000425337531881608 0.000181486610500034
"208" -0.000496025929660951 -0.000839848991679869 -0.0012026771012203 -0.000409704458941518 9.51727824688803e-05 -0.000301825620436729 -0.000154633343080079 0.000135962673734387 0.000990283295810588 0.000480334388450103 0.000379799497240172 0.000369112645707342 0.000230855950309243 0.000864702272249942 0.000424057474977246 0.000185839126395079
"209" -0.000512320506068734 -0.000837627612362376 -0.00121906060509077 -0.000450768559157944 5.13405992912535e-05 -0.000308617076878003 -0.000176218727516992 0.000117226180108464 0.000971675779720735 0.000474673762278661 0.000379850813025757 0.000354316455812875 0.000225701050950131 0.000844799043975014 0.000422338074419387 0.000191508743429308
"210" -0.000526583855678018 -0.000831057542422022 -0.00122908335552887 -0.000489742725514767 8.70796217436249e-06 -0.000312755697321297 -0.000196160115611707 9.82529421866217e-05 0.0009490430277345 0.000467083436480639 0.000379144522632562 0.000338235559701069 0.000220800923991087 0.000821538397282421 0.000420048658244775 0.000198305589825922
"211" -0.000538884699336614 -0.000820369532598001 -0.00123293005320632 -0.000526480483566557 -3.26460498619258e-05 -0.000314494104969434 -0.000214560385697542 7.9067315261829e-05 0.000922443605750973 0.000457483733740534 0.000377587574106065 0.000320888672408898 0.000216057305699724 0.000794981012526473 0.000417051606347366 0.0002060240765241
"212" -0.000549320787899264 -0.000805837919558063 -0.00123082698089103 -0.00056086312260654 -7.26615744548914e-05 -0.000314138499938502 -0.00023155286462738 5.96945220693088e-05 0.000891961160197515 0.000445817742812831 0.00037508460239754 0.000302311364327776 0.000211368234567555 0.000765204939916506 0.000413209068166328 0.000214442560448002
"213" -0.000558025587836319 -0.000787767730555072 -0.00122304064156336 -0.000592798410990141 -0.00011127854559821 -0.000312041582140987 -0.000247292421970391 4.01546867480367e-05 0.000857708183608059 0.000432031866483696 0.000371541511255489 0.000282545646988366 0.000206630054178352 0.000732307822950511 0.000408385668789173 0.000223328328166266
"214" -0.000565167262975647 -0.00076649219241677 -0.00120985642224583 -0.000622226022478836 -0.000148445334810723 -0.000308610176947936 -0.000261958814417965 2.04629205884493e-05 0.000819816894308318 0.000416088734756288 0.000366858859912189 0.000261653825536443 0.000201740020339993 0.000696405138820504 0.000402434709057448 0.000232435835545209
"215" -0.000570958134082996 -0.000742365365883933 -0.00119156941857454 -0.000649116925805556 -0.000184115199186411 -0.000304317101822666 -0.000275761400355836 6.19307465311384e-07 0.000778423817976247 0.0003979531574256 0.000360930366231132 0.000239701815690556 0.000196601544538068 0.000657617050046009 0.000395199471635905 0.00024150723634893
"216" -0.000575666786404393 -0.000715743993522226 -0.00116843049429003 -0.000673470895610163 -0.000218233910016792 -0.000299735837240265 -0.000288948461559175 -1.93865936128108e-05 0.000733646772588088 0.000377574529289427 0.000353622483768078 0.000216768339375904 0.000191116550523007 0.000616043652176444 0.000386504337372471 0.000250270181918333
"217" -0.000579668917584975 -0.000686963823009883 -0.00114057145796272 -0.000695350848657517 -0.000250717172172652 -0.000295616580685465 -0.000301840681965795 -3.96181440711721e-05 0.000685530365732231 0.000354865689408349 0.000344749414021392 0.000192931144357867 0.000185202276408228 0.000571738648053775 0.00037611804030529 0.000258418731582565
"218" -0.000583560913056095 -0.000656275359618509 -0.00110778607389487 -0.000714901546615588 -0.000281416828079511 -0.000293089452972248 -0.000314914722544374 -6.02284850955748e-05 0.000633920114330783 0.000329615424385721 0.000333985603181518 0.000168261340160294 0.000178795047404778 0.000524582215608194 0.00036367965678278 0.000265596263819437
"219" -0.000588547166503094 -0.000623605756454306 -0.00106876909076927 -0.000732476380514879 -0.000309939973233269 -0.000294421241847035 -0.000329094831098988 -8.16635591448617e-05 0.000578003770076122 0.000301208647032234 0.000320574094786892 0.000142775460076017 0.000171882866871038 0.00047393641666533 0.000348420672838709 0.000271269068376201
"220" -0.000599111879913555 -0.000587121739984499 -0.00101619527403796 -0.000749464580470366 -0.000334571296999417 -0.000307887602437175 -0.000347699706338445 -0.000105941012767114 0.000513393605598352 0.000266803711322694 0.000301406282848706 0.000116205925205919 0.00016471721081998 0.000416325253054938 0.000327351372579525 0.000273945403481816
"221" -0.000601805312990475 -0.000554782883551332 -0.000976019959879988 -0.000761713069552908 -0.000360971798579504 -0.000308646686448072 -0.000360872466627578 -0.000126434068054622 0.000455491205599906 0.000235924162641763 0.000286373583403804 8.99208155587269e-05 0.000156128887652661 0.000363993595798618 0.000309786568387844 0.00027743790729537
"222" -0.000583111098777349 -0.000534584662406807 -0.00097432733382011 -0.000765066931199115 -0.000394833516184856 -0.000271702492212398 -0.000358684250722655 -0.000136476897088296 0.000419778074681141 0.000218152365045059 0.000285429235789073 6.53022002271837e-05 0.000144952885451576 0.000329257711221272 0.000305103201842581 0.000285590068425872
"223" -0.000573413751328108 -0.000510558067539413 -0.000955819679845245 -0.00076899680026578 -0.000423827749840678 -0.000253133546324111 -0.000363478700443904 -0.000150566479262927 0.000373322214679715 0.000192850891180034 0.000276733922009328 3.97224834466459e-05 0.000133526394653469 0.000285943524516887 0.000292587946223672 0.000289312347767054
"224" -0.000566277182858193 -0.000486812196682684 -0.000933456980838186 -0.000771575101432454 -0.000450753965254402 -0.000240987386317038 -0.000370519760066399 -0.000165454931329766 0.000323790699925996 0.000164752672793326 0.000265124299908344 1.39163176782211e-05 0.000121263675215091 0.000240151131892409 0.000276783245440924 0.000290389075526376
"225" -0.000560652410715759 -0.000464507744253367 -0.000910223283525304 -0.000772558176960429 -0.000476212107646545 -0.000233232961318745 -0.000379020060641471 -0.000180483029570326 0.000272919321250026 0.000134884405834008 0.000251549952068914 -1.18734644334167e-05 0.000108016574450915 0.000193260620860093 0.000258559965152988 0.000289039875520093
"226" -0.000556264752311331 -0.000444342245612198 -0.000887583840834029 -0.000771957723591166 -0.000500473058194988 -0.000229284773479457 -0.000388761515166114 -0.00019538303916166 0.000221543312448699 0.000103732985311398 0.000236390011292966 -3.74823583402024e-05 9.37144383212615e-05 0.000145940410581892 0.000238247898169618 0.00028527066576566
"227" -0.000553099577975242 -0.00042684457605517 -0.000866529698839791 -0.000769877596951065 -0.000523708545782912 -0.000228989045731953 -0.000399703138470275 -0.000210002803964788 0.000170215628224578 7.16139231905027e-05 0.000219847683822423 -6.27699639778402e-05 7.83083614397604e-05 9.86305960458395e-05 0.000216016988658259 0.000279030668872273
"228" -0.000551221790585679 -0.000412450013979266 -0.00084781580269473 -0.00076645835559635 -0.000546050708913567 -0.000232346926531893 -0.000411858984387983 -0.000224240949061266 0.000119351914065464 3.87770094564442e-05 0.0002020564576645 -8.76139171500087e-05 6.17791899815011e-05 5.1667761851958e-05 0.000191983765020615 0.000270268059675049
"229" -0.000550746952546045 -0.000401521327453566 -0.000832048623133101 -0.00076186362416863 -0.000567610077691922 -0.00023942332532503 -0.000425265686198859 -0.000238028723922199 6.92972821983324e-05 5.4314692815153e-06 0.000183114994724069 -0.000111899936060155 4.41188297756154e-05 5.31602067589102e-06 0.000166231997369335 0.000258938441829891
"230" -0.000551810572026664 -0.000394354641269526 -0.000819720267204533 -0.000756279022285511 -0.000588475497092542 -0.000250320051542291 -0.000439972572318633 -0.000251312849064633 2.03218350351837e-05 -2.82387378328271e-05 0.000163099874112371 -0.000135529535622778 2.53342993077359e-05 -4.02042354837873e-05 0.000138828981094618 0.000245010362611458
"231" -0.000554566929633861 -0.000391174340208856 -0.000811204579172469 -0.000749891654176614 -0.000608725819250618 -0.000265153721981462 -0.000456033845593646 -0.000264063945416255 -2.735488159327e-05 -6.20788415242726e-05 0.000142066704382662 -0.000158410127845564 5.44625165773482e-06 -8.47212812314735e-05 0.000109835452037005 0.000228470373248091
"232" -0.000559190653302595 -0.000392127747280586 -0.000806733214797054 -0.000742905516000188 -0.000628418679341622 -0.000284072717258556 -0.000473513490748481 -0.000276266097216108 -7.35859133655103e-05 -9.59609484760238e-05 0.000120045845889961 -0.000180466012622797 -1.55126012453652e-05 -0.000128123321691976 7.92948484323274e-05 0.000209318216972205
"233" -0.000565903031369032 -0.000397269994849489 -0.000806359565662198 -0.000735546380657008 -0.00064757690890704 -0.000307308552297632 -0.00049250442938547 -0.000287943311159988 -0.000118319422444927 -0.000129810287004826 9.70263313453474e-05 -0.000201634326515879 -3.74838610176846e-05 -0.000170371264450045 4.72059258380558e-05 0.000187564070477079
"234" -0.000575034629890683 -0.000406527844117304 -0.000809821358090165 -0.000728072572743391 -0.000666173867507242 -0.000335282433380207 -0.000513179826429209 -0.000299185191139582 -0.000161674297478625 -0.000163648539636632 7.29006684222404e-05 -0.000221876354614292 -6.03945170685207e-05 -0.000211560505253462 1.34993281954191e-05 0.000163201186380325
"235" -0.000587215932726867 -0.000419585731595352 -0.000816172057735649 -0.000720835252772247 -0.000684034010419183 -0.000368983008027916 -0.000535923857248488 -0.000310239012044603 -0.000204155529066239 -0.000197729091043724 4.7330006133829e-05 -0.000241193657395322 -8.41367249073819e-05 -0.000252101181592416 -2.2119428883598e-05 0.000136155608379409
"236" -0.000604262682656045 -0.000435415852290629 -0.000822179791069902 -0.000714550684610327 -0.000700484368747349 -0.000411566065034556 -0.000561990999049007 -0.000321934716476887 -0.000247618481755388 -0.000233141140343051 1.91095095111031e-05 -0.000259704534264844 -0.000108491583663267 -0.000293467734077242 -6.07579591234226e-05 0.000106019966968488
"237" -0.000642291211972481 -0.000445103749405495 -0.000797960911665387 -0.00071436970471669 -0.000708965431024913 -0.0004926174730666 -0.000603152451598385 -0.000342014965216767 -0.000309749180687207 -0.000280846786933725 -2.33481518651758e-05 -0.000278850227128661 -0.00013209404773683 -0.000349724813035489 -0.000113339826558834 6.81874741534471e-05
"238" -0.000630670609811812 -0.000487035193326895 -0.000874358785747215 -0.000698549921626125 -0.000738539722975415 -0.000481523998587501 -0.000607420200683629 -0.000336423146539643 -0.000312600405790356 -0.000292101931550379 -2.88048995110467e-05 -0.00029216773925284 -0.000160472054155162 -0.000358920593504324 -0.00013131979707362 4.36485393428691e-05
"239" -0.000634871555720312 -0.000525214261148672 -0.000929757200894796 -0.000687528083294191 -0.000762329229652682 -0.000499022997002504 -0.000622837024753562 -0.000336725025433917 -0.000328399464661499 -0.000311912176434894 -4.46316458760737e-05 -0.000305624447149894 -0.000188306166432504 -0.000378468653604402 -0.000159485851086945 1.32597445320864e-05
"240" -0.000644921439956941 -0.000564774730266122 -0.000982305678409262 -0.000678344889257712 -0.000784439438241621 -0.000526534492833806 -0.000641996801712913 -0.000338132230121896 -0.000346203420557469 -0.000333352559236863 -6.35570773219208e-05 -0.00031831976005949 -0.000216280177149025 -0.000399678475636872 -0.000190903945374192 -1.98496606147785e-05
"241" -0.000658083988730099 -0.0006068437608557 -0.0010366416533468 -0.000670285336699784 -0.000805990031974531 -0.000558854279866262 -0.000662819349995462 -0.000339360506478403 -0.000363100974237917 -0.00035450695205143 -8.3578309694116e-05 -0.000330019019199041 -0.000244488953449815 -0.000420232076519422 -0.000223616299329102 -5.46864644119672e-05
"242" -0.000673478837417412 -0.000651478674765609 -0.00109384606055511 -0.00066319193119838 -0.000827314325569251 -0.000594227131251404 -0.000684597350161354 -0.000340041151266288 -0.00037827327002992 -0.000374771440125113 -0.000104045172784892 -0.000340676891709921 -0.000272875255439989 -0.000439489914005814 -0.000256948738455345 -9.0794598474395e-05
"243" -0.000690645993831146 -0.000698457712575225 -0.00115413397063056 -0.000657029681411826 -0.00084856327737374 -0.000631690315661014 -0.000706934516781989 -0.000340022848945433 -0.000391415109371355 -0.000393854302962626 -0.000124636505205411 -0.000350289850789106 -0.000301336217870346 -0.000457203027370222 -0.000290537048169992 -0.000127837737659789
"244" -0.000709278220294315 -0.000747445766801505 -0.00121736821073473 -0.000651799177194419 -0.000869810885858572 -0.000670561521399504 -0.000729552292563301 -0.000339232757727104 -0.000402414368877786 -0.000411584871358403 -0.000145142028207808 -0.000358881388454468 -0.000329758774879109 -0.000473289654559876 -0.000324116305249644 -0.000165522395440529
"245" -0.000729109629113211 -0.000798037404214459 -0.00128323836452001 -0.000647501706816025 -0.000891091504455904 -0.000710281221030659 -0.000752212824728559 -0.000337650093298819 -0.000411255146434632 -0.000427861951431237 -0.0001654112677369 -0.000366487588186418 -0.000358019366247826 -0.000487732083616852 -0.000357472163025552 -0.000203563599323858
"246" -0.000749909494153308 -0.000849789688930798 -0.00135131834673425 -0.000644130396795286 -0.000912415675985801 -0.000750352649753019 -0.000774709109768789 -0.000335267968684716 -0.000417988054476617 -0.000442614809983871 -0.000185317431813005 -0.000373156176425449 -0.000385986862546371 -0.000500567574901993 -0.000390428715322958 -0.000241693041974697
"247" -0.000771456124103532 -0.00090223701914941 -0.001421121408772 -0.000641674572870699 -0.000933781730701291 -0.000790317520784419 -0.000796853124919532 -0.000332102968656413 -0.00042269741826433 -0.000455803715119103 -0.000204760360982008 -0.00037893883569404 -0.000413528441105887 -0.000511859433876841 -0.000422818311688304 -0.000279642392492437
"248" -0.000793526436562478 -0.000954894321465241 -0.00149209987290116 -0.000640099480101623 -0.000955161739223211 -0.000829745068685558 -0.000818460738241209 -0.000328182951675474 -0.000425503732879853 -0.000467409709243282 -0.00022364847981861 -0.000383895116315742 -0.000440510314410001 -0.000521691714784879 -0.000454483638918722 -0.000317151051383942
"249" -0.000815903477531035 -0.00100727431707313 -0.00156368170769317 -0.000639364878984187 -0.000976529226683394 -0.000868229550893364 -0.000839363555027904 -0.000323546987645211 -0.000426539373766644 -0.000477433254698017 -0.0002418981797628 -0.000388088855456003 -0.000466797083590921 -0.000530162065264951 -0.000485283579427792 -0.000353964369970153
"250" -0.000838369551824433 -0.00105888422502558 -0.00163527024582771 -0.000639407074456522 -0.000997833940179175 -0.00090538241773603 -0.000859401032978992 -0.000318243557300793 -0.000425964060512897 -0.000485887746677703 -0.000259437293165398 -0.000391584922852923 -0.000492260361385148 -0.000537382841776807 -0.000515087667429217 -0.000389836372368923
"251" -0.000860709925492503 -0.00110924610656368 -0.0017062602710984 -0.000640153284014423 -0.00101902282301059 -0.000940841728401246 -0.000878421770040289 -0.000312327413817058 -0.000423942202936256 -0.000492798979441426 -0.000276196608990815 -0.000394452179313554 -0.000516760232637295 -0.000543466564557933 -0.000543759464121677 -0.000424528732879229
"252" -0.000882709841002247 -0.00115788617715695 -0.0017760398165564 -0.000641515915849139 -0.0010400286011099 -0.000974264105620432 -0.000896286173238853 -0.000305860037094474 -0.000420652772555102 -0.000498209602229906 -0.000292116983387159 -0.000396756744970417 -0.000540175467424068 -0.000548532655360581 -0.000571183829219931 -0.000457810095508436
"253" -0.000904161376002172 -0.00120435841962631 -0.00184401167335944 -0.000643386725940016 -0.00106077225648645 -0.00100532945678402 -0.000912861711964765 -0.000298909189824339 -0.000416277017215316 -0.000502167531292604 -0.000307140845007981 -0.000398563408361477 -0.00056237386646298 -0.00055270000848661 -0.000597243334164268 -0.00048946714180727
"254" -0.0009248585617076 -0.00124823030891758 -0.00190958692803793 -0.000645652808765264 -0.0010811730709582 -0.0010337468693378 -0.000928029392334628 -0.000291544601081158 -0.000410999259524698 -0.000504727059135863 -0.000321215349925536 -0.000399934829257613 -0.000583235481361119 -0.00055608459825194 -0.000621832030487114 -0.000519293747725363
"255" -0.000944603465794708 -0.0012891020661761 -0.00197219801633005 -0.000648187419244798 -0.00110113286548227 -0.00105925023530992 -0.00094168894096182 -0.000283841925085346 -0.000405006421836787 -0.00050595815353023 -0.00033429489391959 -0.000400932006943185 -0.000602644898997164 -0.000558804943931922 -0.000644847146437807 -0.000547100496889601
"256" -0.000963209189161129 -0.00132659817027454 -0.00203130486438807 -0.000650854365862467 -0.00112055256889522 -0.00108160317523532 -0.000953737553511049 -0.000275883140077917 -0.00039847578207587 -0.000505928987497698 -0.000346331885681396 -0.000401609437858427 -0.000620491008190303 -0.000560965080345687 -0.000666194388380579 -0.000572708476789036
"257" -0.000980490711957889 -0.00136038246623368 -0.00208639802032647 -0.000653509547219256 -0.00113931956844555 -0.00110059930783351 -0.000964102814534985 -0.000267744969938325 -0.000391586681964581 -0.000504720462413542 -0.000357289234238001 -0.000402013061309819 -0.000636673220383558 -0.000562659365762926 -0.000685785409739574 -0.000595964962128566
"258" -0.000996282105215077 -0.00139015019219557 -0.00213699992620962 -0.000656003987641848 -0.00115732188112152 -0.00111606321658342 -0.00097271610906597 -0.000259506289009029 -0.000384506131054293 -0.000502405470848514 -0.000367130221744874 -0.00040218815175424 -0.000651088969631741 -0.000563981748858462 -0.000703532772402664 -0.00061672571418118
"259" -0.00101042993709469 -0.00141563793383144 -0.00218267954347963 -0.000658185475176094 -0.00117443530830533 -0.00112785316401371 -0.00097952579809688 -0.000251252131942359 -0.000377391680373024 -0.000499074933167298 -0.000375820906087508 -0.00040217070811648 -0.000663657693630573 -0.000565008277434138 -0.000719367360596152 -0.000634865312141155
"260" -0.00102279078861213 -0.001436619564884 -0.00222303899219326 -0.000659894535647484 -0.00119053463973381 -0.00113585739798669 -0.000984492092949798 -0.000243061303027724 -0.000370389899035696 -0.000494807884343139 -0.000383330805555333 -0.000401983854063469 -0.000674292144699233 -0.000565800265663902 -0.000733216210940903 -0.000650279752500569
"261" -0.00103324114007847 -0.00145290865924483 -0.00225773527614632 -0.000660985740657031 -0.00120549485482739 -0.00114000496095352 -0.000987595842282065 -0.000235011862796346 -0.00036363409278822 -0.000489691782038305 -0.000389637916757456 -0.000401648975756175 -0.000682927697838886 -0.000566409148733841 -0.000745018596262175 -0.00066288448738476
"262" -0.00104167008706042 -0.00146436958034597 -0.00228646363917977 -0.000661304413062692 -0.00121918208737931 -0.00114025319466501 -0.000988831305467903 -0.000227182649034043 -0.000357236219746824 -0.000483815388137608 -0.000394715943290676 -0.000401178208641893 -0.000689503534423199 -0.000566871248482777 -0.000754716780075286 -0.000672612740731817
"263" -0.00104799249700126 -0.00147089799056746 -0.00230897576756222 -0.000660705518834055 -0.00123146855980927 -0.00113659977648863 -0.000988204624840011 -0.000219647113324723 -0.000351297958411371 -0.000477256143966716 -0.000398547270892424 -0.000400571504748392 -0.000693971590565908 -0.000567207995455141 -0.000762260411570519 -0.000679419373638741
"264" -0.00105213071405587 -0.00147244326394971 -0.00232506705088485 -0.00065904964888425 -0.00124222377227613 -0.00112907151558214 -0.000985742415690291 -0.000212475857593114 -0.000345899341169856 -0.00047009761082162 -0.000401114886249405 -0.00039982477418222 -0.000696293198961283 -0.000567421678614282 -0.000767614709616418 -0.000683281530519517
"265" -0.00105403766974605 -0.00146899167732546 -0.00233458788922788 -0.000656214033726911 -0.00125132317087446 -0.00111773510216156 -0.000981485387853047 -0.000205737257537925 -0.000341104171287472 -0.000462424673530523 -0.000402410013741593 -0.000398923392624424 -0.000696446763576914 -0.000567508035550624 -0.000770740163970153 -0.00068419274712597
"266" -0.00105367848563878 -0.00146057450853838 -0.00233743643022352 -0.000652079008445865 -0.00125864651641747 -0.00110269098293932 -0.000975484618416105 -0.000199492822977876 -0.000336957098823349 -0.000454307609514789 -0.000402423728706556 -0.000397845757245884 -0.000694417318796441 -0.000567442254256775 -0.000771616836828076 -0.000682173391385125
"267" -0.00105104307572674 -0.0014472652604684 -0.0023335620997854 -0.000646545898340487 -0.00126407795573037 -0.00108407027550745 -0.000967811297330367 -0.000193799881305633 -0.000333481890176145 -0.000445819959854449 -0.000401155423003303 -0.000396563722412967 -0.000690206530785651 -0.00056718519025681 -0.000770226230651075 -0.00067726265880213
"268" -0.00104613997399889 -0.00142917606364091 -0.0023229623461086 -0.000639522313353555 -0.00126751004653869 -0.0010620366168215 -0.00095855111154346 -0.000188712464437638 -0.00033068408502166 -0.000437030699033202 -0.00039860397948563 -0.000395039806392131 -0.000683829405534376 -0.000566688878076018 -0.000766560504924774 -0.000669516550375652
"269" -0.00103899968765893 -0.00140645742823083 -0.00230568603105554 -0.000630939849066403 -0.0012688447026709 -0.00103678790289476 -0.000947798871349962 -0.000184276317187461 -0.000328551173113833 -0.000428000998188848 -0.000394776588631943 -0.000393236381274574 -0.000675312136591731 -0.000565889161126718 -0.000760623340905207 -0.000659021714297535
"270" -0.00102967539849636 -0.00137930810890949 -0.00228183023575667 -0.00062075204646495 -0.00126799912136026 -0.00100854919084123 -0.000935669539078696 -0.000180530580574472 -0.000327054422218928 -0.000418794314703185 -0.00038968410090023 -0.000391105512672972 -0.000664696450681857 -0.000564713015601593 -0.000752421250458949 -0.000645874513956733
"271" -0.00101823318500084 -0.00134794806504218 -0.0022515358763332 -0.000608918214851817 -0.00126489785287192 -0.000977573368532505 -0.000922283918978382 -0.00017751437131183 -0.000326145349986439 -0.000409458264177722 -0.000383342990130013 -0.000388598866775281 -0.000652037905991818 -0.000563084282961994 -0.000741976679210943 -0.000630198727889428
"272" -0.00100476022324165 -0.00131264026964463 -0.00221499049870236 -0.000595427896499322 -0.00125948036545924 -0.000944133594078824 -0.000907775101192579 -0.000175248797880859 -0.000325760303978518 -0.000400042737267254 -0.000375773722858468 -0.000385664786212205 -0.000637402792978664 -0.000560908994254748 -0.000729320644507447 -0.000612130937376898
"273" -0.000989369436010845 -0.00127368381443165 -0.00217242445959592 -0.000580291118813544 -0.00125170328237884 -0.000908534090959607 -0.00089229100879337 -0.000173762626089811 -0.000325826568190112 -0.000390589117378235 -0.000367004274703028 -0.000382249627442112 -0.000620876165205461 -0.000558095788070255 -0.000714489286474518 -0.000591829376320495
"274" -0.000972180873319576 -0.00123139331664425 -0.0021241055440008 -0.00056353403701902 -0.00124153705572991 -0.000871090057298697 -0.000875981199134554 -0.00017306796877063 -0.000326253647035283 -0.000381139137829306 -0.000357064601556581 -0.000378298375524709 -0.000602555276151045 -0.000554550655128754 -0.000697537181175474 -0.000569467846671677
"275" -0.00095333200458761 -0.00118612102766018 -0.00207034492614043 -0.00054520325043287 -0.00122897011050519 -0.000832132913545024 -0.000859005364539739 -0.000173172669823789 -0.000326941634584627 -0.000371718011486314 -0.000345990765116539 -0.000373759412657871 -0.000582540263996692 -0.000550167629362875 -0.000678516154795461 -0.000545234118297478
"276" -0.000932977122244679 -0.00113823219666278 -0.00201148462810916 -0.000525369276879936 -0.00121400665101107 -0.000792008788248572 -0.000841529162105904 -0.000174074557505761 -0.000327782661994835 -0.000362355328972856 -0.000333828413759691 -0.000368578133477282 -0.000560955972702321 -0.000544853238546195 -0.000657498976825073 -0.000519331887267655
"277" -0.000911281446249722 -0.00108812203710064 -0.00194789973282842 -0.000504115724563358 -0.00119667300991498 -0.000751065626523112 -0.000823716417662412 -0.000175768647261065 -0.00032866226953859 -0.000353068068136868 -0.000320621006141051 -0.000362708809161112 -0.000537933820339202 -0.000538510299645215 -0.000634559349942278 -0.000491975790329563
"278" -0.000888415630474167 -0.0010361900758844 -0.00188000266169799 -0.000481551152525154 -0.00117700865076344 -0.000709663334300461 -0.000805740858441248 -0.000178238419832839 -0.000329459416693117 -0.000343878868709936 -0.000306424812069114 -0.000356102463091438 -0.000513609375787249 -0.000531043640915361 -0.000609789273810325 -0.000463389210663648
"279" -0.000864558627790406 -0.000982858675849574 -0.00180822276784103 -0.000457797724347436 -0.00115507443104597 -0.000668152980109594 -0.000787767682227723 -0.000181464244069923 -0.000330050361433732 -0.000334791299572118 -0.000291290935669323 -0.000348718942354309 -0.000488135581211272 -0.000522366278422712 -0.000583273022147438 -0.000433802094185912
"280" -0.000839895771942512 -0.000928542335482865 -0.00173301460293115 -0.000432988804503772 -0.00113094409560444 -0.00062688047970223 -0.000769961397444395 -0.000185416358128962 -0.000330309415843408 -0.000325811584808578 -0.000275285785063238 -0.00034052398784899 -0.00046166861335932 -0.000512396304076469 -0.000555118328403413 -0.000403449237993098
"281" -0.0008146160358869 -0.000873676390847208 -0.00165485276830653 -0.000407275720191108 -0.00110470879063457 -0.000586185919625304 -0.000752480338000926 -0.000190052231597424 -0.000330114927604354 -0.000316940075968159 -0.000258468185980399 -0.000331485351998394 -0.000434370306252513 -0.000501057374080371 -0.000525431024092955 -0.000372576962049216
"282" -0.00078890573690031 -0.000818680771259279 -0.00157423303176294 -0.000380826383968262 -0.00107648086916131 -0.00054639381755759 -0.000735483211247516 -0.000195331912540864 -0.000329341484000261 -0.000308175118588198 -0.000240910309374128 -0.000321581403598765 -0.000406412018333905 -0.000488289854530836 -0.000494327022221592 -0.000341418793721851
"283" -0.000762948897344879 -0.000763975262216942 -0.00149164828515232 -0.000353807906402736 -0.00104637743720451 -0.00050781063305129 -0.000719105624905815 -0.000201202122305698 -0.000327871443470836 -0.000299506069441104 -0.000222680128717404 -0.000310793198246368 -0.000377960775894659 -0.000474036365745376 -0.000461920086015785 -0.000310216094534817
"284" -0.000736932087535031 -0.000709962048740755 -0.00140760625412959 -0.00032639998540765 -0.00101453255919589 -0.00047072532029631 -0.000703484415015137 -0.000207600169264069 -0.000325595730349024 -0.000290917979643871 -0.000203854466686536 -0.000299114319508695 -0.000349189873841184 -0.000458255263971018 -0.0004283371058703 -0.000279203184219928
"285" -0.000711030937499291 -0.000657035289760556 -0.00132260774504415 -0.000298790350280284 -0.000981089772035847 -0.000435404209168345 -0.00068874305480523 -0.000214463911064471 -0.00032241085581952 -0.000282402484659428 -0.000184508575993156 -0.000286542485407829 -0.000320273924632588 -0.000440922254738111 -0.000393705575168043 -0.000248604296660335
"286" -0.000685414222509115 -0.000605561235540312 -0.00123715323748174 -0.000271170109727406 -0.000946204776462935 -0.000402090922619076 -0.000674992402663622 -0.000221720452612767 -0.000318225041652339 -0.000273933673654745 -0.000164726867440699 -0.000273086542528835 -0.000291382597999726 -0.000422021779685134 -0.000358160857863154 -0.000218641165266537
"287" -0.000660247439725507 -0.000555883770529698 -0.00115172153765043 -0.000243725743206713 -0.000910030680291222 -0.000370998084311152 -0.000662323753303091 -0.000229295395897107 -0.000312959881912484 -0.000265502019533766 -0.000144588873508039 -0.000258760860141749 -0.000262682593607379 -0.000401552708794135 -0.000321834215660503 -0.000189515529283911
"288" -0.000635685974395096 -0.000508315218077861 -0.00106678533698923 -0.000216652473429743 -0.000872736305676088 -0.000342323262307195 -0.000650821074605988 -0.000237107120399468 -0.000306550312695792 -0.000257082031149564 -0.000124183326234505 -0.000243588088025554 -0.000234334460535162 -0.000379535949953296 -0.00028486406696472 -0.000161428317312407
"289" -0.000611874019719012 -0.000463132643384619 -0.000982777245961355 -0.00019013389623995 -0.000834482919885727 -0.000316226038233666 -0.000640550972317433 -0.000245074036356116 -0.000298949722699504 -0.000248661739884875 -0.000103598414817044 -0.000227604173586361 -0.00020649064951564 -0.000356006407856198 -0.000247392042652966 -0.000134551875883661
"290" -0.000588946021631171 -0.000420577862063129 -0.000900117450802082 -0.000164356698743319 -0.000795437076246519 -0.000292843176748844 -0.000631566343591555 -0.000253109818514172 -0.000290121228263262 -0.000240217006617615 -8.29268138121615e-05 -0.000210844738683681 -0.000179301216408465 -0.00033101426514165 -0.000209563457091866 -0.00010905340215747
"291" -0.000567021725099753 -0.000380855399407383 -0.00081918560913955 -0.000139495129287762 -0.000755768853275493 -0.000272278676995782 -0.000623901751529356 -0.000261125323118795 -0.000280054774379569 -0.000231733805583507 -6.22588346360896e-05 -0.000193362937586057 -0.000152898793379321 -0.000304626981027839 -0.000171513722998527 -8.50732337709357e-05
"292" -0.000546208199859835 -0.000344120873577128 -0.000740334358327598 -0.000115719896975665 -0.000715641350492884 -0.000254610708918411 -0.000617575012604779 -0.000269033849237268 -0.000268748288357252 -0.000223200314880803 -4.16915066710068e-05 -0.000175209702600589 -0.000127409531200667 -0.000276928461924631 -0.000133394503559406 -6.27356428524489e-05
"293" -0.000526593225083527 -0.000310496860172814 -0.000663875277862539 -9.31853279124619e-05 -0.000675217053871779 -0.000239874004677894 -0.000612586961332615 -0.000276747294267857 -0.000256219393786264 -0.000214597327640644 -2.13153054072965e-05 -0.000156448574597481 -0.000102945324393626 -0.000248017402477858 -9.53346960724212e-05 -4.21460947761649e-05
"294" -0.000508248511102463 -0.000280060095262452 -0.000590089769322626 -7.20389100147136e-05 -0.000634661844714943 -0.000228077491601048 -0.000608924166500557 -0.000284170560477974 -0.000242497317778366 -0.000205912024249874 -1.21960520413546e-06 -0.000137150019188403 -7.96080714373242e-05 -0.000218003982489951 -5.74783637711546e-05 -2.33827359690165e-05
"295" -0.000491223940186991 -0.000252844926815815 -0.000519217950875981 -5.24074589505515e-05 -0.000594134201979325 -0.000219187941887505 -0.000606550586074281 -0.000291218241884138 -0.000227626771003345 -0.000197134658046966 1.85094735693633e-05 -0.000117386479568257 -5.74841969110726e-05 -0.000187008859663578 -1.99552929158526e-05 -6.50585056838742e-06
"296" -0.000475546024053333 -0.00022884306294731 -0.000451463964382297 -3.4406068076021e-05 -0.000553788264298237 -0.000213140622532503 -0.000605413998036676 -0.000297798708054828 -0.000211663684173607 -0.000188251295061129 3.77865814162929e-05 -9.72377462412031e-05 -3.66484126263493e-05 -0.000155164742142937 1.71063760203179e-05 8.448605652501e-06
"297" -0.000461229279279964 -0.000208015777569289 -0.000387002688724598 -1.81368832784949e-05 -0.000513782080997881 -0.000209836864143084 -0.000605448263148409 -0.000303827141041405 -0.000194674576421339 -0.000179249523787669 5.65346538011588e-05 -7.67869895435756e-05 -1.71581774242201e-05 -0.000122611993762607 5.35838662282127e-05 2.14683802577411e-05
"298" -0.000448257036942151 -0.000190273871498687 -0.000325952303653625 -3.67038771971989e-06 -0.000474261281944337 -0.00020913817103181 -0.000606565013543824 -0.000309214157825575 -0.000176736037959049 -0.000170119878165198 7.46843675906687e-05 -5.61230292474433e-05 9.4155118736293e-07 -8.95026727621064e-05 8.93655836901185e-05 3.25633168497601e-05
"299" -0.000436597505390908 -0.000175502601349055 -0.000268412019051398 8.92770593812207e-06 -0.000435375116019694 -0.000210879865741809 -0.000608667470016388 -0.000313880944100707 -0.000157934524771163 -0.000160853823794544 9.21691850673121e-05 -3.53329520765346e-05 1.76193475477682e-05 -5.59873803460961e-05 0.000124343306104859 4.17613783730951e-05
"300" -0.000426195516650624 -0.000163550522870995 -0.000214437386407469 1.9615406662296e-05 -0.000397262592023305 -0.000214872808109772 -0.000611645971848302 -0.000317747447035703 -0.000138366313322321 -0.000151441126790129 0.000108929106433715 -1.45085809115492e-05 3.2860141711095e-05 -2.22272209629713e-05 0.000158414387540709 4.9116757968336e-05
"301" -0.000416984217652715 -0.000154236632420062 -0.000164042559637816 2.83744077604687e-05 -0.000360063151091858 -0.000220895279192129 -0.000615375924965316 -0.000320743723762441 -0.00011813018511809 -0.000141880726603207 0.000124915082887085 6.25463163110538e-06 4.66639426148088e-05 1.16110258536964e-05 0.000191489270356874 5.46978404003724e-05
"302" -0.000408868511807412 -0.000147352625808764 -0.000117205897956329 3.52016544403864e-05 -0.000323898153956586 -0.000228706285820834 -0.000619724114376145 -0.000322801308270529 -9.73361589131773e-05 -0.000132168449801025 0.000140078169006925 2.68669398038051e-05 5.90431599252951e-05 4.53684859701202e-05 0.000223477310110856 5.85932236366686e-05
"303" -0.000401750753071573 -0.00014266723046713 -7.38782505728708e-05 4.01117480142699e-05 -0.000288902178303042 -0.000238057041816684 -0.000624553726849363 -0.000323861779732774 -7.60992972809582e-05 -0.000122302231092728 0.00015438344029899 4.72312553813132e-05 7.00205335667412e-05 7.88685176080373e-05 0.000254302732893838 6.09064163506467e-05
"304" -0.000395510717563984 -0.000139930943711615 -3.39685530787265e-05 4.314368917832e-05 -0.000255181731143768 -0.000248668478414649 -0.00062971925575609 -0.000323876902342437 -5.45344904718619e-05 -0.000112285853020069 0.000167800551377001 6.72627456490892e-05 7.96370508390238e-05 0.000111948129184113 0.000283891764601146 6.17605804841601e-05
"305" -0.00039002142055329 -0.000138873379487804 2.64706090908937e-06 4.43577417279583e-05 -0.000222843252645921 -0.00026026571575602 -0.000635069689547203 -0.000322796913698002 -3.27647972245333e-05 -0.000102120810084848 0.000180304652724379 8.68681707064392e-05 8.79447148051911e-05 0.000144441419208727 0.000312179961121421 6.12803888654041e-05
"306" -0.000385146981387192 -0.000139219468269954 3.61097121946648e-05 4.38189921745922e-05 -0.00019198990062405 -0.000272566316032417 -0.000640462953644527 -0.000320597373571395 -1.09154330296272e-05 -9.18211937762736e-05 0.00019187782948033 0.000105963751637645 9.50022993308675e-05 0.000176178664193707 0.000339112094015045 5.96100189782404e-05
"307" -0.000380745479947088 -0.000140679747681131 6.65982019413075e-05 4.16224797586384e-05 -0.000162704242120841 -0.000285282813846628 -0.000645743143296056 -0.000317246792534178 1.08900563608409e-05 -8.13957760114141e-05 0.000202511694435791 0.000124469092829219 0.000100887044750709 0.000207006797397745 0.000364635609336824 5.69016022845446e-05
"308" -0.00037666550548112 -0.000142961086586827 9.43115254044802e-05 3.78743265983562e-05 -0.000135056924350921 -0.000298125932547778 -0.000650766952719084 -0.000312734276957388 3.25314381252228e-05 -7.08579624861708e-05 0.000212205089032175 0.000142307258496986 0.000105679190708583 0.00023677190911439 0.000388710673606411 5.3311351595887e-05
"309" -0.000372753203294116 -0.000145772365714278 0.00011947084516551 3.27003681231764e-05 -0.000109114318520706 -0.000310815976736729 -0.000655387168559402 -0.000307051119182118 5.3885988661519e-05 -6.02236979853893e-05 0.000220959648047601 0.000159409785837922 0.000109473100875785 0.000265326544786192 0.000411298198134802 4.90028324293542e-05
"310" -0.000368867867454654 -0.000148825822590335 0.000142304487314697 2.62288336503702e-05 -8.4929216260027e-05 -0.000323088175462227 -0.000659472310466648 -0.000300210843747738 7.48301414830085e-05 -4.95126655694755e-05 0.000228786227924137 0.00017570988853302 0.000112364447047461 0.000292529343694532 0.000432369067748406 4.41370439628102e-05
"311" -0.000364853620461435 -0.000151838473466244 0.000163065767013544 1.86116113401139e-05 -6.25346919320876e-05 -0.000334675378358552 -0.000662886567661354 -0.000292222387222461 9.52560198084901e-05 -3.87463671169019e-05 0.000235701848487511 0.000191156346712749 0.000114460278228074 0.000318260475555798 0.000451903280230469 3.88830683182593e-05
"312" -0.000360570081690011 -0.000154538241249046 0.000182012740847413 1.00047438994226e-05 -4.19534574121105e-05 -0.000345335046072166 -0.0006655089285343 -0.000283113404088499 0.000115051503194489 -2.79494577858067e-05 0.000241730258962006 0.000205696662110411 0.000115872561693251 0.000342397361638312 0.000469884426329496 3.34028914284695e-05
"313" -0.000355875373188194 -0.000156664516207526 0.000199403616729708 5.77282114460189e-07 -2.3195290261684e-05 -0.00035483263765574 -0.000667221161479251 -0.000272919205096015 0.000134117291913224 -1.71438189753316e-05 0.000246899626493009 0.000219294274372991 0.000116714138803994 0.000364840831056464 0.000486302371797258 2.78610943572153e-05
"314" -0.000350639716445865 -0.000157974588462285 0.000215507210854997 -9.50105140253703e-06 -6.25429597617966e-06 -0.000362959352615588 -0.000667923079205198 -0.000261684665062847 0.000152356680424958 -6.36091200772525e-06 0.000251243816976069 0.000231915829601334 0.000117103789473622 0.000385498008938463 0.00050115464271305 2.24139231529163e-05
"315" -0.000344740843317792 -0.000158245988554294 0.000230585227515691 -2.00516785327725e-05 8.89029584362103e-06 -0.000369521974071669 -0.000667517476446676 -0.000249463570726621 0.000169683803412067 4.37756339240484e-06 0.00025479913663188 0.000243541153268762 0.000117156821604393 0.000404292140400494 0.000514446596126568 1.72138860854007e-05
"316" -0.000338069281017922 -0.00015727530577102 0.000244896301196948 -3.08931728073962e-05 2.22742340378311e-05 -0.000374349803777677 -0.0006659235697103 -0.000236316502447337 0.00018602719903408 1.50355645536397e-05 0.000257613707106666 0.000254157717756908 0.000116994908730597 0.000421166294870793 0.000526188285384398 1.24072342895086e-05
"317" -0.000330523374771209 -0.000154881735634682 0.000258691664238255 -4.18471238487664e-05 3.39438329697991e-05 -0.000377298644950732 -0.00066307391674266 -0.000222314102191818 0.000201319138214269 2.55895387709489e-05 0.000259733447464127 0.000263764286401548 0.000116734584862749 0.000436074368942274 0.000536396848537966 8.12586366987212e-06
"318" -0.000322022541254509 -0.000150906611807885 0.000272213214222649 -5.27298804985889e-05 4.3965998480311e-05 -0.000378243024769519 -0.000658907244775741 -0.000207531130001107 0.000215501985368514 3.60094033983641e-05 0.000261208080221021 0.000272364542040456 0.000116490298229997 0.000448986717485248 0.00054509549262016 4.50021517475567e-06
"319" -0.00031249932635892 -0.000145226606975016 0.000285678469061868 -6.33735235951914e-05 5.24106201175996e-05 -0.000377090102553841 -0.000653382834494648 -0.000192053520720794 0.000228532995725107 4.62597654518272e-05 0.000262089128392672 0.000279976369457112 0.000116372841218678 0.000459889061180325 0.000552308789207766 1.63772508501475e-06
"320" -0.00030189476775057 -0.000137732929568982 0.000299303087976325 -7.36049164886125e-05 5.93694195986816e-05 -0.000373767135975539 -0.000646466562123229 -0.000175967702442062 0.000240384359686684 5.63176071773901e-05 0.000262437935088378 0.000286625012942678 0.000116489304911447 0.000468783603930906 0.000558072082153014 -3.5435031881451e-07
"321" -0.000290173592246801 -0.000128357086535548 0.000313271677732562 -8.32620615612502e-05 6.49336760529319e-05 -0.000368231324603419 -0.000638147925683635 -0.000159369268267335 0.000251024727402302 6.61470050788599e-05 0.000262306765274995 0.000292338980701098 0.00011693597045002 0.000475694398196686 0.000562423270227462 -1.39059299025227e-06
"322" -0.000277320231619586 -0.000117046839762084 0.000327755393852099 -9.21958375354485e-05 6.92135054835652e-05 -0.000360463955876794 -0.000628419525913025 -0.000142354231212708 0.000260449535799217 7.5719472840123e-05 0.000261756370252773 0.000297161760049379 0.000117808845750181 0.000480650678770275 0.000565404442517514 -1.39514116242457e-06
"323" -0.000263328198438624 -0.00010378605326871 0.000342897900008448 -0.000100268151639229 7.2322864349505e-05 -0.000350477097178057 -0.000617297910988456 -0.00012502968164071 0.00026865963718938 8.500953388113e-05 0.000260844815845153 0.000301139304902779 0.000119189598593372 0.000483702632025792 0.000567062355735738 -3.06247069380385e-07
"324" -0.000248214597943139 -8.85838821649734e-05 0.000358826607014159 -0.000107355246121194 7.43832135240303e-05 -0.000338308953046625 -0.000604806021516875 -0.000107495037917614 0.000275662336652629 9.39852953489592e-05 0.000259629509522119 0.000304324673447157 0.000121150311013968 0.000484912279771912 0.00056744544528009 1.91435729261009e-06
"325" -0.000232014609685624 -7.14776144440276e-05 0.000375634184327601 -0.000113341116483271 7.55188814905395e-05 -0.000324019710351516 -0.000590984991006975 -8.98575973587896e-05 0.000281479002042203 0.00010261425703554 0.000258164855093853 0.000306775017000584 0.000123754855238791 0.000484350197083758 0.000566611325621646 5.30138450927797e-06
"326" -0.000214783141251256 -5.25268949855814e-05 0.000393398814627511 -0.000118137474279135 7.5863117571651e-05 -0.00030770053716594 -0.000575887877533884 -7.22265752372498e-05 0.000286135164349555 0.000110873876436074 0.000256507751016557 0.000308551120185273 0.000127056786782656 0.000482109841272885 0.000564611987385591 9.86082070954028e-06
"327" -0.000196589779848129 -3.18215085028044e-05 0.000412164768291117 -0.000121670144508588 7.55400439046811e-05 -0.000289464251156902 -0.000559588000831272 -5.47118203763282e-05 0.000289671079434168 0.000118735152051925 0.000254706277591052 0.000309720066336393 0.000131091981724534 0.000478283007814327 0.000561505444624521 1.55913424273784e-05
"328" -0.000177522559238762 -9.47528090391582e-06 0.000431953247585192 -0.000123880893048908 7.46848937791557e-05 -0.000269448837483824 -0.00054216315586912 -3.74193034584674e-05 0.000292127418133284 0.00012616755999872 0.000252812446743058 0.000310344582149131 0.000135888729165729 0.000472973377856772 0.000557353414588329 2.24708298957263e-05
"329" -0.00015768804030276 1.43820371282904e-05 0.000452762630576357 -0.000124735742327331 7.34205428399125e-05 -0.000247816296813026 -0.000523708881590246 -2.04568278770259e-05 0.000293557157914153 0.00013314304075893 0.000250866480474558 0.000310494195284071 0.000141457211159897 0.000466296717433952 0.000552215989186862 3.04645933035677e-05
"330" -0.000137203471672395 3.95951404434085e-05 0.000474564104050556 -0.000124217479138025 7.18715535149547e-05 -0.000224747852741263 -0.00050433623808323 -3.92939750072081e-06 0.000294010095964369 0.000139640533810656 0.000248908711052385 0.000310233496034594 0.000147800234354478 0.000458367306423643 0.000546154266702068 3.9515448279904e-05
"331" -0.000116211815840543 6.59895092529991e-05 0.000497308136989562 -0.000122332383051016 7.01561266948101e-05 -0.000200447472894951 -0.000484166015839813 1.20614090251164e-05 0.000293545381740472 0.000145627839235142 0.00024696965948802 0.00030962664013466 0.000154900482037254 0.000449303549675459 0.000539227020455153 4.95580029565209e-05
"332" -9.4857308839595e-05 9.33827138503235e-05 0.0005209242917355 -0.000119106975519381 6.8387573527438e-05 -0.000175127104622187 -0.00046332159395899 2.74164268793836e-05 0.000292225968639436 0.000151078893680204 0.000245081390081018 0.0003087366010219 0.000162729645085032 0.000439234672007771 0.000531494940830982 6.05028155411271e-05
"333" -7.33069165432222e-05 0.000121569578940147 0.000545310704686314 -0.000114587107574616 6.6659278136579e-05 -0.000149029477430152 -0.000441955447190404 4.20398064172157e-05 0.000290108710156066 0.000155968970818141 0.000243260131197652 0.000307619465315509 0.000171242448880175 0.000428276175846282 0.000523018287186347 7.22581336271526e-05
"334" -5.17297562344264e-05 0.000150339691266332 0.000570362869810141 -0.000108840802646134 6.50660602503557e-05 -0.000122396530543739 -0.000420210893609439 5.58395752947943e-05 0.000287257784813355 0.000160274126984897 0.00024152440119533 0.000306328987370661 0.000180383858568415 0.000416556705297011 0.000513853433808421 8.47042934392092e-05
"335" -3.03090301903547e-05 0.000179472308485418 0.000595946709658793 -0.000101954842487192 6.36868625044331e-05 -9.54843675360288e-05 -0.000398251634486107 6.87304786176384e-05 0.000283732746074911 0.000163962999326509 0.000239879832248174 0.000304912059052974 0.000190081539856879 0.000404191727679224 0.000504054657554494 9.77233474204325e-05
"336" -9.23208457665179e-06 0.000208742617356674 0.000621914701312807 -9.40321583875544e-05 6.2588723871052e-05 -6.85629138410933e-05 -0.000376242885376692 8.06332605459908e-05 0.000279593014290579 0.000167015294840626 0.00023832751414525 0.000303407675139611 0.000200251958028987 0.000391299069171799 0.000493675382686195 0.000111177632406012
"337" 1.13077281998923e-05 0.000237922692195662 0.000648111725221159 -8.51933813802278e-05 6.18254052479928e-05 -4.18964412782282e-05 -0.000354355845771501 9.14735848379794e-05 0.000274892264034834 0.000169403643037009 0.000236860443799943 0.000301852619667719 0.00021080195275692 0.000377986655123437 0.00048276438638207 0.00012492281325305
"338" 3.11088535117798e-05 0.000266781405390991 0.000674361591253289 -7.55782865551011e-05 6.14332071481321e-05 -1.57623048658452e-05 -0.000332767571806927 0.000101186530539268 0.000269682332209021 0.000171104336425908 0.00023546583239195 0.000300269258761503 0.00022162251196221 0.000364355755517198 0.000471370906176024 0.000138803044714769
"339" 4.99844407894824e-05 0.000295093839112162 0.000700490086720117 -6.53388325089146e-05 6.14381742722631e-05 9.57232779626893e-06 -0.000311655302095062 0.000109710440847875 0.00026400936136639 0.000172095507117345 0.00023412356713184 0.000298676872574248 0.000232596442638786 0.000350502384209642 0.00045953365514359 0.000152658001180985
"340" 6.77376585202351e-05 0.000322638855456178 0.000726307959756496 -5.4638009918248e-05 6.18492124829201e-05 3.38417605283723e-05 -0.000291200116391164 0.000116994629986653 0.000257915392602334 0.000172350512863135 0.000232807241824787 0.000297084287431145 0.000243597791644575 0.000336514354217918 0.000447294868251173 0.00016632720884461
"341" 8.4173273103259e-05 0.000349201411594203 0.000751627184446722 -4.36495578344882e-05 6.26602166041772e-05 5.67812947500813e-05 -0.000271577905935146 0.000122994122698763 0.000251435678488356 0.000171854397168909 0.00023148250568971 0.000295493110209784 0.000254493055932906 0.000322463710638721 0.000434689250475238 0.000179634343792351
"342" 9.91185442741626e-05 0.000374576563155693 0.000776251601044965 -3.25536920878195e-05 6.38499179275685e-05 7.81451054936149e-05 -0.000252965991209019 0.000127673778144548 0.000244597661655311 0.000170581555778447 0.000230110059555082 0.000293896331991342 0.00026514416235789 0.000308419911351762 0.000421745002229901 0.000192416416579129
"343" 0.000112394238005673 0.000398571717556982 0.000799990661105284 -2.15362197664891e-05 6.53860835355551e-05 9.76998416807103e-05 -0.000235533450032382 0.000131010112646903 0.000237421776803636 0.000168515440557438 0.000228646643728579 0.000292276065094039 0.000275403682952311 0.000294435114492111 0.000408495491304455 0.000204501139810364
"344" 0.000123842354117633 0.000421004261111645 0.000822650864157922 -1.07923919641903e-05 6.72161566378168e-05 0.000115219419263185 -0.000219447252986251 0.000132982491872653 0.000229928973832677 0.000165638567001251 0.000227041472965632 0.000290612406759201 0.000285126468859378 0.000280553595553784 0.000394958680940136 0.000215723418689677
"345" 0.000133312049136167 0.00044171074556963 0.000844047078435652 -5.08460043513947e-07 6.92813107422682e-05 0.000130505160558443 -0.000204858331498382 0.000133580407404574 0.000222124693831618 0.000161938713535503 0.000225245036512079 0.000288875443364781 0.00029416527690772 0.000266813951694668 0.00038115754198636 0.00022592293395662
"346" 0.000140680940392598 0.00046054161751074 0.000863994282665577 9.12654741086786e-06 7.15017006292411e-05 0.000143375606521162 -0.000191914432515431 0.000132807631046856 0.000214012147307089 0.000157399027940001 0.000223198986708999 0.000287023639372037 0.000302369930558332 0.000253232523004831 0.000367106874284432 0.000234939543010611
