"V1" "V2" "V4" "V5" "V7" "V8" "V10" "V11" "V13" "V14" "V15" "V17" "V18" "V20" "V21" "V23"
"1" -2.21501842150062e-06 -4.67386439405507e-07 -1.1763992977708e-06 -5.14058152433154e-06 -5.36800127020072e-06 -8.40962079357757e-06 -5.39409673767948e-06 -7.62999718367438e-06 -3.80910452568908e-05 3.18262344711506e-05 8.66842623125329e-06 -1.2519883990667e-06 -9.91017515518719e-06 1.35859161791372e-05 -1.68467230824178e-05 7.31306169720063e-06
"2" -1.88268894498889e-05 -3.4648109623095e-05 -2.35827977527138e-05 -4.17922262543215e-05 -7.43822256772823e-06 -8.34270149050847e-07 1.23665919312064e-05 3.25489239747864e-06 0.000570809293405988 -0.000525924439333822 -3.49988699209041e-05 -2.1059677526824e-05 -7.29413262161397e-07 7.08320982907354e-05 -2.4051710369762e-05 5.44477601016351e-05
"3" -3.54201149609551e-05 -6.85062793320528e-05 -4.59257395787522e-05 -7.81680377191239e-05 -9.62073402368609e-06 6.60901554512774e-06 2.99250049609894e-05 1.39660167847593e-05 0.00119689223975836 -0.00108616450944836 -7.81545758833528e-05 -4.07978026361091e-05 8.3166569733413e-06 0.000127326116229325 -3.21199823803154e-05 0.000100354731055461
"4" -5.1960194945059e-05 -0.000101778744877067 -6.81718999995108e-05 -0.000114047512749408 -1.20016392921658e-05 1.38381115693514e-05 4.71185641840938e-05 2.43743719923417e-05 0.00183940605907957 -0.00164639065903629 -0.000120412062780183 -6.03989011961962e-05 1.71264395211486e-05 0.000182670958649292 -4.10243091839273e-05 0.000145013855985519
"5" -6.84324183402063e-05 -0.000134212782516438 -9.02914801989272e-05 -0.000149223862398725 -1.46821814921794e-05 2.07637139507579e-05 6.37739572845493e-05 3.43406300763238e-05 0.00249744226326633 -0.0022039612317988 -0.000161408169703267 -7.9794817618118e-05 2.56066441374998e-05 0.000236469544419682 -5.07257921442048e-05 0.000188417531032856
"6" -8.48015744456969e-05 -0.000165556218080978 -0.000112251773297731 -0.000183478923148053 -1.77481748023179e-05 2.73172147292669e-05 7.97422395705582e-05 4.37467485428202e-05 0.00316997062907535 -0.00275617870236074 -0.000200779553017406 -9.89158925123165e-05 3.36716868188062e-05 0.00028833061423524 -6.11655897348143e-05 0.000230555298390283
"7" -0.000101049373007988 -0.00019557371007656 -0.000134021700076576 -0.000216626364739124 -2.12877000363295e-05 3.34161837920804e-05 9.48652451913596e-05 5.24703545106792e-05 0.00385578033809351 -0.0033002319641281 -0.000238189487860435 -0.000117699895664474 4.12292876154411e-05 0.000337873217629027 -7.22851118770879e-05 0.000271428805657258
"8" -0.000117148784012574 -0.000224045587723133 -0.000155565325968675 -0.000248466172642259 -2.53743038024444e-05 3.89969684890317e-05 0.000109000560975145 6.04006364074631e-05 0.00455348993120485 -0.00383325486703427 -0.000273322144850377 -0.00013607968095753 4.82013561890388e-05 0.000384740259642116 -8.40100474622223e-05 0.000311044632394842
"9" -0.000133072586733787 -0.00025076842057634 -0.000176846316774971 -0.000278837751951381 -3.00813284673809e-05 4.39960362304596e-05 0.000122015443879013 6.74348430780346e-05 0.00526154032651598 -0.00435231988862287 -0.000305885487030349 -0.000153997048915606 5.45126343956061e-05 0.000428587500227579 -9.62754186263117e-05 0.00034940843659377
"10" -0.000148798984939408 -0.000275551237806701 -0.000197831809380455 -0.000307563503149702 -3.54678484462645e-05 4.83675207323669e-05 0.000133790243964375 7.34818559135936e-05 0.0059781698574019 -0.00485448414770061 -0.000335619800072482 -0.000171389282919926 6.00988256965864e-05 0.000469100777686657 -0.000109007210430339 0.000386527310293877
"11" -0.00016430166429866 -0.000298230278458012 -0.00021848062464465 -0.00033450708963878 -4.15797178235244e-05 5.20652052550076e-05 0.000144214137417509 7.84615561560827e-05 0.00670141245687531 -0.00533678882627332 -0.000362289823082273 -0.000188206257319975 6.48944931628183e-05 0.000506002209204115 -0.000122143232316601 0.000422415230847319
"12" -0.000179552088158114 -0.00031865648921955 -0.000238754145618261 -0.000359525403623862 -4.84580817390998e-05 5.5059384855587e-05 0.000153192069227962 8.23075907273402e-05 0.00742909581352763 -0.00579632688298881 -0.000385693492035782 -0.000204389525863198 6.88517538999931e-05 0.000539045193090859 -0.000135626144355253 0.000457079495336596
"13" -0.00019453152779513 -0.000336710591451847 -0.00025861013237795 -0.000382510256465094 -5.61311685450947e-05 5.73237839755466e-05 0.000160642199700537 8.49625388552173e-05 0.00815880546016366 -0.00623024776696499 -0.000405668238490746 -0.000219896941704763 7.19261394901179e-05 0.000568029038230426 -0.000149411464557919 0.000490537882784808
"14" -0.000209213840436355 -0.000352291507216244 -0.000278007218549204 -0.000403359361643263 -6.46138421409736e-05 5.88489204764704e-05 0.000166498720777909 8.63875434172241e-05 0.00888792145952497 -0.00663586109761434 -0.000422085182719137 -0.00023468056119375 7.40883289971704e-05 0.000592791564928766 -0.000163464070722153 0.000522798173067774
"15" -0.000223572410974929 -0.000365328799547356 -0.00029690184321718 -0.000421993972129218 -7.39085221154035e-05 5.96347880870145e-05 0.000170715841225124 8.65567435810238e-05 0.00961361675539616 -0.00701064168725468 -0.000434847587050992 -0.000248699238441667 7.53072511123935e-05 0.000613217988297551 -0.000177768391370305 0.000553869201467705
"16" -0.00023758336368115 -0.000375767585849517 -0.000315248509705819 -0.000438351648386401 -8.40067016988731e-05 5.96904610627023e-05 0.000173253842031101 8.5456545258531e-05 0.0103328296499513 -0.00735230617326538 -0.000443902554367066 -0.000261917485923505 7.55728788673405e-05 0.000629244477996453 -0.000192312495756023 0.000583760759109351
"17" -0.000251230227749931 -0.000383590527795586 -0.000333004211506763 -0.000452382192784455 -9.48843056312225e-05 5.90332557585247e-05 0.000174099516593917 8.30899298414186e-05 0.0110423248014041 -0.00765887882686133 -0.000449229539039521 -0.000274305355223481 7.48784578053035e-05 0.000640853190189071 -0.00020711356526449 0.000612478335715605
"18" -0.000264479945155446 -0.000388800551480871 -0.000350116703907538 -0.000464074606127468 -0.000106508004605904 5.76958929733123e-05 0.000173248634943214 7.94711466451773e-05 0.0117386917718734 -0.00792873057817675 -0.000450849255386698 -0.000285835710768661 7.32274235051368e-05 0.000648076758584609 -0.000222199387357527 0.00064002667408709
"19" -0.000277322263000327 -0.000391420921221836 -0.000366548132193438 -0.000473412182588479 -0.000118830185468793 5.57179915673872e-05 0.000170717342425535 7.46310079044784e-05 0.0124183737019301 -0.00816065001166102 -0.000448816062838405 -0.000296488282815634 7.06341758801967e-05 0.000650991429181111 -0.00023761478265571 0.000666402928585956
"20" -0.000289726129937653 -0.000391516949238682 -0.00038224542043469 -0.000480420151231452 -0.000131795472875629 5.31453437175916e-05 0.000166535601039298 6.86118982449609e-05 0.0130776953469439 -0.0083538562412243 -0.000443225171810679 -0.000306248758052981 6.7119193856282e-05 0.000649728219327377 -0.00025342234739164 0.000691612175316301
"21" -0.000301679380637664 -0.000389156936238033 -0.000397164905418138 -0.00048512297235839 -0.00014533207389725 5.00424248263945e-05 0.000160755275668409 6.1473055147507e-05 0.0137129262895276 -0.00850807408636122 -0.000434197959417339 -0.000315103245167247 6.27131984999497e-05 0.000644449936271462 -0.000269696730704673 0.000715641313775887
"22" -0.000313158224820586 -0.000384443443060587 -0.000411264399687183 -0.000487570854839062 -0.000159360027616845 4.64760579302495e-05 0.000153437764699988 5.32830352334647e-05 0.0143203179299819 -0.00862350151054071 -0.000421893222604774 -0.000323048292438924 5.74578845880242e-05 0.0006353675062603 -0.000286523126386247 0.000738483065948569
"23" -0.000324147184310493 -0.000377503737022537 -0.000424496382212036 -0.000487840843840357 -0.000173791056623852 4.25137295791655e-05 0.000144655368928329 4.41195226844705e-05 0.0148961326382936 -0.00870081885385899 -0.000406499800396838 -0.000330085435295632 5.13957516238212e-05 0.000622726077860517 -0.00030400405227863 0.000760130692357758
"24" -0.000334631949608772 -0.000368479988043876 -0.000436818534011924 -0.000486012520100251 -0.000188526855211953 3.82406434534668e-05 0.000134501677990256 3.40779379704699e-05 0.0154367470904206 -0.00874119217297721 -0.000388234512865834 -0.000336222166512638 4.45802753181839e-05 0.000606802861542652 -0.000322247118272849 0.000780571462837621
"25" -0.000344591024102554 -0.000357534322207425 -0.000448195205078527 -0.000482184338619536 -0.000203464035786867 3.37402399690794e-05 0.000123076661126534 2.32490520999652e-05 0.0159386740455329 -0.00874621257136236 -0.000367332562753998 -0.00034146693977185 3.70702189516685e-05 0.000587899418961275 -0.000341362418757434 0.000799789999688978
"26" -0.000354018840199398 -0.00034484764479268 -0.000458588886444519 -0.000476480485271258 -0.000218495657840598 2.90972365952368e-05 0.000110490283509631 1.17460467181951e-05 0.0163986622813363 -0.00871786953246568 -0.000344063131834006 -0.000345839584019207 2.89266972825801e-05 0.00056634772645633 -0.000361470949860854 0.000817772094079658
"27" -0.000362899521266593 -0.00033062385481824 -0.000467965191428968 -0.000469033871207799 -0.000233502671835651 2.44023632653574e-05 9.68719572631568e-05 -3.20181194195491e-07 0.0168137461321441 -0.00865848199777526 -0.00031870645668412 -0.000349365617288995 2.02213665651954e-05 0.000542491115671966 -0.000382693492189759 0.000834499647207153
"28" -0.000371223697496244 -0.000315060122932301 -0.000476296362794665 -0.00045997966280899 -0.000248371842295052 1.97522918003183e-05 8.23467285401906e-05 -1.28305041453314e-05 0.017181294905486 -0.0085706535380122 -0.000291557564102696 -0.00035207106927064 1.10217259874152e-05 0.000516679167210515 -0.000405135805364191 0.000849958359262685
"29" -0.000378981455862666 -0.000298380395443418 -0.000483556089506067 -0.000449481825559103 -0.000262981741126985 1.52377968355928e-05 6.70550518260051e-05 -2.56626318104683e-05 0.0174990783767541 -0.00845717293352537 -0.00026293093670695 -0.000353989528440244 1.40379023852221e-06 0.00048927955014674 -0.000428912885946273 0.000864132849934756
"30" -0.000386169207375199 -0.000280815687641853 -0.000489722793387722 -0.000437699831383695 -0.000277208307361157 1.09508693271846e-05 5.114022692528e-05 -3.86915253269466e-05 0.0177653088655064 -0.00832098479839783 -0.000233144333498923 -0.000355160829510895 -8.55906145913497e-06 0.000460656732139328 -0.000454120203061936 0.000877009584039771
"31" -0.000392786204026888 -0.000262592536682816 -0.000494780420273743 -0.000424807830405844 -0.000290936305210287 6.97892982141947e-06 3.47520495190763e-05 -5.17933991005936e-05 0.0179786801892906 -0.0081651048529453 -0.000202526965176077 -0.000355624344577492 -1.87867274734789e-05 0.000431167694066678 -0.000480839445023612 0.000888574279569567
"32" -0.000398824870287864 -0.00024395393445672 -0.000498721647988138 -0.000410987712735993 -0.000304051013087298 3.40718256660955e-06 1.80376711539122e-05 -6.48432743679726e-05 0.0181383846522846 -0.00799255930819026 -0.000171404462918868 -0.000355434242039028 -2.9207127833984e-05 0.000401169960933427 -0.000509146017059244 0.000898820868553822
"33" -0.000404290477604295 -0.000225140873968333 -0.000501541860374149 -0.000396430563157222 -0.0003164393354682 3.12120779436412e-07 1.14380795029322e-06 -7.77216365475869e-05 0.018244134611212 -0.00780634460784686 -0.000140109776964517 -0.000354640117487359 -3.97441847861724e-05 0.000371003773509859 -0.000539087771275892 0.000907745554397729
"34" -0.00040918150212819 -0.000206385058444851 -0.000503239864414005 -0.000381320351490362 -0.000327993048779968 -2.22206679084652e-06 -1.57707478810975e-05 -9.03015585910129e-05 0.018296157382925 -0.00760939335945686 -0.000108966729268253 -0.000353292400403234 -5.03240635376997e-05 0.000341001456566844 -0.000570690148813094 0.000915343015898947
"35" -0.000413509482669302 -0.00018791804272254 -0.00050382735596024 -0.000365850531619234 -0.000338611611477477 -4.13511073134087e-06 -3.25655493379542e-05 -0.000102478865527904 0.0182951744562311 -0.00740449718385416 -7.82921223702879e-05 -0.000351454152276316 -6.08736662793427e-05 0.000311461774413365 -0.000603958266422152 0.000921621796345979
"36" -0.000417279256863029 -0.000169970278718906 -0.000503321087381084 -0.00035021186857744 -0.000348199376796563 -5.36152891972574e-06 -4.90922568717454e-05 -0.000114135308946004 0.0182423953638433 -0.0071943376570688 -4.8396912985469e-05 -0.000349184367824323 -7.13231518449838e-05 0.000282674120871796 -0.000638869140881062 0.000926585801553395
"37" -0.000420499976665788 -0.000152751659480439 -0.00050173519750711 -0.000334590614533993 -0.00035666831446262 -5.84779324499801e-06 -6.52090574667362e-05 -0.000125171376816167 0.018139451846148 -0.00698141574392404 -1.95750726613755e-05 -0.000346542232818267 -8.16072232055092e-05 0.000254907105260666 -0.000675369019688576 0.000930254263620391
"38" -0.000423181251111221 -0.000136475009334396 -0.000499105380609525 -0.000319175611172554 -0.000363949785047748 -5.55680740269703e-06 -8.07908940357766e-05 -0.000135494915759759 0.0179883444036646 -0.00676804778363872 7.89164932052751e-06 -0.000343594409988967 -9.16627856333674e-05 0.000228390805146027 -0.00071338520631368 0.000932647851050158
"39" -0.000425347126507544 -0.000121331240369864 -0.000495462573158491 -0.000304153809892819 -0.00036998105997587 -4.45431135985285e-06 -9.57096404019312e-05 -0.000145024226026976 0.0177914281755163 -0.00655636860040872 3.37408418164134e-05 -0.000340402987510571 -0.000101438154407596 0.000203337953168649 -0.000752808768178054 0.000933802964176076
"40" -0.000427004958206507 -0.000107496042239664 -0.000490851744854082 -0.000289685621131172 -0.000374699720321038 -2.51105873200652e-06 -0.000109845124161484 -0.000153676678078983 0.017551359701574 -0.00634832992394822 5.77326252036231e-05 -0.00033703229227642 -0.000110874011641712 0.000179928009973954 -0.000793505168461673 0.000933751576046384
"41" -0.000428178319409834 -9.51321550289523e-05 -0.000485321098637852 -0.000275949349151977 -0.000378073154710303 2.7965725935839e-07 -0.000123094251148746 -0.000161390438794957 0.0172710040707222 -0.00614567902380586 7.96434641333305e-05 -0.000333544576343814 -0.000119921008394929 0.000158311919855737 -0.000835311606380018 0.000932543826703587
"42" -0.000428887985720054 -8.43804399720449e-05 -0.000478922108819965 -0.000263093753286741 -0.000380063618789387 3.92679624671659e-06 -0.000135357591970659 -0.000168107923505636 0.0169534095692331 -0.00594996842277431 9.92809407338092e-05 -0.000330002173681212 -0.000128541664434791 0.000138613127643457 -0.000878034673641409 0.000930235911265151
"43" -0.00042915567110855 -7.53608860689989e-05 -0.000471716866157415 -0.000251261002741141 -0.000380658299638207 8.41886835084055e-06 -0.000146554068758521 -0.000173788364968136 0.0166017388444403 -0.00576256255910829 0.000116471525424074 -0.000326463412717979 -0.000136693846965523 0.000120923840881367 -0.000921467278456021 0.000926886583233655
"44" -0.000429007477145323 -6.8179121813421e-05 -0.00046377371572848 -0.000240584408336251 -0.000379855187286193 1.37360824404748e-05 -0.000156606513633526 -0.000178397930768257 0.0162192233856135 -0.00558462752807715 0.000131070857867139 -0.000322983939585322 -0.000144347624553558 0.000105306614106528 -0.000965373939965403 0.000922572440194681
"45" -0.000428465406276865 -6.29119540863175e-05 -0.000455161659190914 -0.000231180111173225 -0.000377660191643905 1.98547740376676e-05 -0.00016545962824949 -0.000181916415996777 0.0158091347736708 -0.00541716360834844 0.000142962340214387 -0.000319618616535812 -0.000151470537075824 9.17950672460375e-05 -0.00100950075101585 0.000917368175102393
"46" -0.000427559585040251 -5.96168690382062e-05 -0.000445956953915415 -0.000223149766430133 -0.000374094957817881 2.67352784157681e-05 -0.000173062816191419 -0.000184334481139269 0.0153747295602581 -0.00526097977451629 0.000152059010216338 -0.000316414377028577 -0.000158042764490531 8.03946598179115e-05 -0.00105358256133499 0.000911370601632256
"47" -0.000426318032454798 -5.8328654620761e-05 -0.000436241469530584 -0.000216584581470677 -0.00036919681774947 3.43282562339812e-05 -0.00017938700873317 -0.000185656549903551 0.0149192044800176 -0.00511671284657212 0.000158300778716928 -0.000313419279133499 -0.000164051634847972 7.10864135306181e-05 -0.00109733871868189 0.000904673580946045
"48" -0.000424768368772201 -5.90565757275961e-05 -0.000426096504767162 -0.000211545043950731 -0.000363009580881647 4.25803370999466e-05 -0.000184405898512167 -0.0001858910182663 0.0144457324980355 -0.00498485021885085 0.000161657095449613 -0.000310668442882891 -0.000169474052860523 6.3825765374257e-05 -0.00114048125910591 0.00089737758540236
"49" -0.000422941078000698 -6.17937130370729e-05 -0.000415607496052661 -0.000208088786341964 -0.000355592466078948 5.14288136585722e-05 -0.000188118091730699 -0.000185067573153582 0.0139573528437046 -0.00486570355688115 0.000162122402808533 -0.000308196536025389 -0.000174314154733776 5.85414022511693e-05 -0.00118271768380416 0.000889601310507705
"50" -0.000420863046193303 -6.65020086212319e-05 -0.000404864906277068 -0.00020624595888256 -0.000347015718167366 6.08057391037672e-05 -0.000190520308214645 -0.000183214862676363 0.0134570357995261 -0.00475945380810692 0.000159729274527492 -0.000306032618868251 -0.000178559486135957 5.51394600372531e-05 -0.00122375407657002 0.000881455007129587
"51" -0.00041856334304299 -7.31270801514415e-05 -0.000393954619432428 -0.000206038444732234 -0.000337355657557443 7.06300644058135e-05 -0.000191639795009364 -0.000180377342756262 0.0129476021628299 -0.00466613082631359 0.000154527606939868 -0.000304195516123538 -0.000182216749069433 5.35119473045189e-05 -0.00126330092863427 0.000873060546101986
"52" -0.000416073530613485 -8.15939386895264e-05 -0.000382968577405766 -0.000207460330109127 -0.000326701694516018 8.08233140673924e-05 -0.000191502613811281 -0.000176611579338683 0.0124317722089699 -0.00458563140982627 0.000146597928941063 -0.000302703217997602 -0.000185288993399381 5.35305639008408e-05 -0.00130107394258285 0.000864548263386683
"53" -0.00041342350152656 -9.18050755312896e-05 -0.000371995681883372 -0.000210496936988091 -0.000315153001351508 9.13018594286681e-05 -0.00019015692447705 -0.000171976385213333 0.0119121200479087 -0.00451772541623518 0.000136044555504798 -0.000301560590320866 -0.000187782145047643 5.50492667631844e-05 -0.00133679643974736 0.000856043579849206
"54" -0.000410634716975853 -0.000103645942446301 -0.000361118429895859 -0.000215111491411339 -0.000302814304467481 0.000101977445702231 -0.000187645258671554 -0.000166536406090132 0.0113911030718975 -0.0044620767738698 0.000122997670824339 -0.000300769671526759 -0.000189710861420351 5.7916117181278e-05 -0.00137020705762403 0.000847675460726688
"55" -0.000407733992095228 -0.000116987509283783 -0.000350425163312541 -0.000221251525091823 -0.000289795280822899 0.000112763156146133 -0.00018404061618057 -0.0001603701624935 0.0108710633125112 -0.00441822519049073 0.000107606178035767 -0.000300322337516119 -0.000191083885084363 6.19590557243616e-05 -0.00140105507691474 0.000839572183678281
"56" -0.000404746456532714 -0.000131682697672063 -0.000339997200521609 -0.000228854098795946 -0.000276218347026328 0.000123564162844795 -0.000179415098392187 -0.000153556721551532 0.0103541849336896 -0.00438560820107485 9.00416902876952e-05 -0.00030020861119158 -0.000191922971440305 6.70116337970665e-05 -0.00142911361997118 0.00083186050289397
"57" -0.000401698399681184 -0.00014756903138493 -0.000329912868597327 -0.000237826425532418 -0.000262192405111607 0.000134298436419731 -0.000173846631406858 -0.000146179097989765 0.00984256326835056 -0.00436359232984433 7.04915198840241e-05 -0.000300404550629989 -0.000192241880044088 7.2895227482416e-05 -0.00145416952374254 0.000824662515682131
"58" -0.000398602960935025 -0.000164479966291737 -0.00032024431963983 -0.000248082796698164 -0.000247848789902762 0.000144875584456435 -0.000167423964600904 -0.000138321363530837 0.00933816261458185 -0.00435144636423369 4.91625603924108e-05 -0.000300885565108051 -0.000192063884733522 7.94277715307853e-05 -0.00147603091120056 0.000818094395729325
"59" -0.000395486631618434 -0.000182229042813804 -0.000311056117909261 -0.000259501961768941 -0.000233303336477079 0.000155215277032899 -0.000160241931415224 -0.000130076182547872 0.00884282986090949 -0.00434837893214287 2.62707631730336e-05 -0.000301617123042635 -0.000191402816231281 8.64400478574039e-05 -0.00149453029033318 0.000812266674368919
"60" -0.00039235707539454 -0.000200634492977196 -0.000302416114580997 -0.000271978361466279 -0.000218688729473443 0.000165233664421904 -0.00015240519574539 -0.000121532339827342 0.00835832342841864 -0.00435352423943292 2.04213959629342e-06 -0.000302560376659406 -0.000190285974917567 9.37556701622242e-05 -0.00150952443992058 0.000807279460484766
"61" -0.000389236423985542 -0.000219500552086608 -0.000294373912311176 -0.000285369614925522 -0.000204126444666254 0.000174856687167324 -0.000144014560907476 -0.000112782010145203 0.00788628469654445 -0.00436596467330799 -2.32839289351654e-05 -0.000303668233063687 -0.000188727688886383 0.000101216799290066 -0.0015208925022385 0.000803228595593158
"62" -0.000386126649212195 -0.000238630046209692 -0.000286973822608261 -0.000299539834226033 -0.000189728884524851 0.000184024875294564 -0.000135172257258409 -0.000103907504861858 0.00742826969489054 -0.00438477077571903 -4.94693596557412e-05 -0.000304890871070129 -0.00018675190665779 0.000108660917630154 -0.00152854016639949 0.000800186178555084
"63" -0.000383038269641172 -0.000257823427962205 -0.00028025808461711 -0.000314341025474208 -0.000175612744494743 0.000192672132551086 -0.000125988829219376 -9.4997462503659e-05 0.00698573524874297 -0.00440895575329988 -7.62702911507615e-05 -0.000306171105956089 -0.000184374213761153 0.000115955061188697 -0.00153239892259304 0.000798218218654112
"64" -0.000379978485490015 -0.000276890699027332 -0.000274256387166855 -0.000329626022723051 -0.000161897438008388 0.000200742140797704 -0.000116574948958869 -8.61387999651647e-05 0.00656003192943468 -0.0044375205010651 -0.000103443350958773 -0.00030745446757839 -0.000181622181249133 0.000122970801459914 -0.00153242948018201 0.000797378150948869
"65" -0.000376943143051974 -0.000295635277461563 -0.000268992037989263 -0.000345234390939403 -0.00014867816725011 0.000208196131396335 -0.000107029356496044 -7.74043967547253e-05 0.00615244304402601 -0.00446947292980275 -0.00013074834757716 -0.00030867319528336 -0.000178503668506121 0.00012960197519117 -0.00152861077329403 0.000797696454214886
"66" -0.00037393964550251 -0.000313871151730871 -0.000264475857358543 -0.000361011403214976 -0.00013605614848589 0.000214992393961931 -9.74692120645109e-05 -6.88719653911562e-05 0.00576415483735407 -0.00450381262317709 -0.000157950261125511 -0.000309765609486858 -0.000175038547638769 0.000135757793536074 -0.00152095279530742 0.000799193759093037
"67" -0.000370956373432268 -0.000331415622624356 -0.000260711761909065 -0.00037679294288483 -0.000124117302339046 0.000221111032424505 -8.79831467200278e-05 -6.06048171628614e-05 0.00539628590764608 -0.00453957548282682 -0.000184819394102518 -0.000310656938139038 -0.000171242437193583 0.000141375742548799 -0.00150948672973375 0.000801863512454123
"68" -0.000367991527150728 -0.000348105088352886 -0.000257694970390641 -0.000392429236726291 -0.000112942666890754 0.000226532533105931 -7.86741002505854e-05 -5.2668703812256e-05 0.00504985455019916 -0.00457580884487738 -0.000211142370090472 -0.000311286851721593 -0.000167126896670352 0.0001463984930066 -0.00149428102325675 0.000805688757735835
"69" -0.000365028520013983 -0.000363766575164118 -0.000255412726589341 -0.000407757135718097 -0.000102603035716719 0.000231252455734322 -6.9629963720178e-05 -4.51127013905268e-05 0.00472580921784985 -0.00461160452089109 -0.000236707192290568 -0.000311580482373734 -0.000162702321297246 0.000150812705859639 -0.00147541557825598 0.000810631188486293
"70" -0.000362064248741766 -0.000378262737792385 -0.00025384166762236 -0.000422629014288788 -9.3155286603611e-05 0.000235269230173739 -6.09438640117812e-05 -3.79860712786917e-05 0.00442500778276181 -0.00464610149016733 -0.000261327323817351 -0.000311471075043242 -0.000157982221910979 0.000154613189005603 -0.00145300401617302 0.000816634001563527
"71" -0.000359076718131245 -0.000391452886666126 -0.000252949298724984 -0.000436897996201508 -8.4649447361111e-05 0.00023860105311594 -5.26863017223138e-05 -3.1329195200124e-05 0.00414822925833976 -0.0046784986758638 -0.000284823739749902 -0.000310891020089765 -0.00015296816920075 0.00015782137731991 -0.00142718032802357 0.000823622554780985
"72" -0.000356048557734286 -0.000403217771966054 -0.000252700043663886 -0.000450423630477803 -7.71201939097632e-05 0.000241266812348358 -4.49299216332416e-05 -2.51662968111231e-05 0.00389616905369121 -0.00470807092495965 -0.000307042438025142 -0.000309772940303675 -0.000147669578197717 0.000160477103611272 -0.00139810255617856 0.00083150337207721
"73" -0.000352968124582669 -0.000413452993546313 -0.000253045434421318 -0.000463079041448949 -7.05944338168722e-05 0.00024330060383884 -3.77375594345129e-05 -1.95213308849956e-05 0.00366942259793228 -0.00473414323367975 -0.000327838466072944 -0.000308056685551146 -0.000142093657656128 0.000162646655874619 -0.00136595905844964 0.000840170380077896
"74" -0.00034980598108626 -0.000422068680210881 -0.000253930403858247 -0.000474733965327052 -6.5080701941305e-05 0.000244743531090136 -3.11628661764521e-05 -1.44083233682008e-05 0.00346850744248878 -0.00475614234171788 -0.000347095556131093 -0.000305681972519794 -0.000136237710306652 0.000164407796139613 -0.00133094982461332 0.000849492070967124
"75" -0.000346546743190903 -0.000428995715422045 -0.000255300864711805 -0.000485279039458575 -6.05888368595401e-05 0.00024564142236024 -2.52513768012777e-05 -9.83343927242618e-06 0.00329383427612485 -0.00477355781083846 -0.000364709530254412 -0.000302595910084343 -0.000130106524161525 0.000165868886029871 -0.00129330505350544 0.000859333045562542
"76" -0.00034315947971212 -0.000434181020032729 -0.000257086065550785 -0.000494619830432807 -5.7100277358785e-05 0.000246050182190661 -2.00316704879096e-05 -5.7886767962426e-06 0.00314573706545185 -0.00478598030817129 -0.000380604062669409 -0.000298748621272187 -0.000123706775564586 0.000167134222139692 -0.00125327454207486 0.000869535378305689
"77" -0.000339626697414435 -0.000437591681511336 -0.000259219484535899 -0.000502663472840094 -5.45986202388277e-05 0.000246029483505344 -1.5538967149708e-05 -2.26580876156623e-06 0.00302442186505175 -0.00479308004827174 -0.000394719844016578 -0.000294098380367651 -0.000117035284560674 0.000168336842053304 -0.00121112126139618 0.000879937257544107
"78" -0.000335922753736575 -0.000439206562577634 -0.00026162998899226 -0.000509337097797329 -5.30540681795145e-05 0.000245651127140867 -1.17780732012763e-05 7.54660504384638e-07 0.0029299990482771 -0.0047946096799776 -0.000407020550878937 -0.000288609356878912 -0.000110097842423464 0.000169609918198176 -0.00116712564696911 0.000890364903375159
"79" -0.000332020190902135 -0.000439024994451536 -0.000264237230053551 -0.000514570073985317 -5.24163626840847e-05 0.000244990855761769 -8.75357764419641e-06 3.3021977435889e-06 0.0028624679433261 -0.00479042644797966 -0.000417487141485189 -0.000282253289294265 -0.000102892440292424 0.000171099532547497 -0.00112158766120279 0.000900638004660706
"80" -0.000327891268151219 -0.000437075835066705 -0.000266965756767866 -0.000518325800431027 -5.26470459324193e-05 0.000244113355855047 -6.47064500739002e-06 5.40433415507859e-06 0.00282167433946675 -0.00478043719853807 -0.00042612543267932 -0.000275010192912497 -9.54238750548034e-05 0.000172950788994212 -0.00107481793016422 0.000910576590374223
"81" -0.000323517512586708 -0.000433379463140398 -0.000269738752313997 -0.000520555903275311 -5.36730301811102e-05 0.000243107601316413 -4.90651191208599e-06 7.10314684724045e-06 0.00280737619607578 -0.00476466559067498 -0.000432953441069934 -0.00026686615813524 -8.77012695982904e-05 0.000175314918820861 -0.00102712628758494 0.000919991779544598
"82" -0.000318871466064335 -0.000428000384614754 -0.000272473030738547 -0.000521255131007141 -5.5432602446523e-05 0.000242045443771399 -4.04524297729667e-06 8.43644671816844e-06 0.00281916784374262 -0.00474318546466599 -0.000438016318293682 -0.000257823784371574 -7.97286856263625e-05 0.00017833517695054 -0.000978846591866239 0.000928700785832121
"83" -0.000313933123538773 -0.000421002341458246 -0.000275094639174406 -0.000520415177727658 -5.78566459493963e-05 0.000241010187048673 -3.85553719784452e-06 9.45406280734604e-06 0.00285651158937374 -0.00471614159435753 -0.000441372076409796 -0.000247885688607859 -7.15162051249071e-05 0.000182154157110679 -0.00093030211536683 0.000936521673636608
"84" -0.000308680505131061 -0.000412470576533622 -0.00027752357665558 -0.0005180410611977 -6.08517597810918e-05 0.000240081414920557 -4.29298428249838e-06 1.02096189910723e-05 0.00291872649032485 -0.00468376047190036 -0.000443090598978383 -0.000237069546988694 -6.30734243142146e-05 0.000186903109293606 -0.000881827283350731 0.000943269579575325
"85" -0.00030309508543562 -0.000402494443442497 -0.00027969152476297 -0.000514151753222257 -6.43424047551714e-05 0.000239335969625837 -5.31391938561591e-06 1.07538063579607e-05 0.00300496498796953 -0.00464629803488011 -0.000443260301793131 -0.000225401625160469 -5.44220718648785e-05 0.000192706320798881 -0.0008337444222464 0.000948774527459946
"86" -0.000297161834610324 -0.00039119368508136 -0.000281528292257583 -0.000508800063440069 -6.82377798858872e-05 0.000238843243020244 -6.87023227909484e-06 1.11369008854353e-05 0.00311420101039734 -0.00460405887485779 -0.000441983560453421 -0.000212918651535746 -4.55776694694287e-05 0.00019967147274611 -0.000786373619824685 0.000952876655519591
"87" -0.000290862916640233 -0.000378680755024226 -0.000282966663846301 -0.000502022151304777 -7.24473192594982e-05 0.000238675640845638 -8.90013074893579e-06 1.1419135306549e-05 0.00324526296239944 -0.0045574113032679 -0.000439366068874141 -0.000199664356228293 -3.65654471476949e-05 0.000207895346702892 -0.000740029316335879 0.000955414563899602
"88" -0.000284186259319862 -0.000365092612715807 -0.000283950420518754 -0.000493891406103787 -7.68758708558273e-05 0.000238901093797643 -1.1340451493857e-05 1.16562238344543e-05 0.00339679476750289 -0.00450673569809451 -0.000435528851315061 -0.000185693842429889 -2.740530886011e-05 0.000217453441810162 -0.000695002000141494 0.000956244906133116
"89" -0.000277131726721819 -0.000350560331167862 -0.00028442462550052 -0.000484477080952747 -8.14313010629837e-05 0.000239572795098384 -1.41269320778536e-05 1.18961961677808e-05 0.00356725448211528 -0.00445243071797714 -0.000430593729315609 -0.000171073912607606 -1.81378290704547e-05 0.000228406343679032 -0.000651568154331286 0.000955244001355053
"90" -0.000269682689420155 -0.000335234728582207 -0.000284343964255066 -0.000473865777717693 -8.60221923345172e-05 0.000240741377207099 -1.71889242982556e-05 1.21937411122055e-05 0.0037549300202754 -0.00439491871566764 -0.000424696830347111 -0.00015587451323137 -8.79557741056445e-06 0.000240787304224014 -0.000609994309260214 0.000952286544783119
"91" -0.000261847405423044 -0.000319270760769188 -0.000283676335230513 -0.000462163486426227 -9.05672065096682e-05 0.000242450357522645 -2.04582564965066e-05 1.25952532159767e-05 0.00395789465220455 -0.00433461445699856 -0.000417971060745333 -0.000140181576435922 5.83529362945122e-07 0.000254622586067474 -0.000570513985375554 0.000947278259572117
"92" -0.000253623640716189 -0.00030281131704171 -0.000282381035338095 -0.000449473330697211 -9.49658823435489e-05 0.000244736897350329 -2.38586145241325e-05 1.31490506924675e-05 0.00417406436370436 -0.00427195736885881 -0.000410546434876389 -0.000124078999499303 9.95230721905353e-06 0.000269903873959339 -0.000533331970513978 0.000940127160688829
"93" -0.000245012785471863 -0.000286023644426569 -0.000280439077175652 -0.000435911532464171 -9.9141309960666e-05 0.000247624763582178 -2.7312700008107e-05 1.38968861960955e-05 0.00440117361876394 -0.00420736327304064 -0.000402558416856678 -0.00010766869041097 1.9268105655911e-05 0.000286608968479795 -0.000498626872382217 0.000930761050384315
"94" -0.000236030755464935 -0.000269058758218194 -0.000277842316867332 -0.000421602047781663 -0.00010302132965193 0.00025112904266861 -3.07589498298263e-05 1.48681483990109e-05 0.00463675384071659 -0.0041412259540673 -0.000394137831204096 -9.10508356492787e-05 2.84695570780224e-05 0.000304689898017796 -0.000466546920106433 0.000919131871585061
"95" -0.000226688655908407 -0.000252071893892745 -0.000274581668818216 -0.000406674659934456 -0.000106528503823849 0.000255259553143704 -3.41166205729241e-05 1.61009467469229e-05 0.00487821324939859 -0.00407395084207017 -0.000385408689125441 -7.43303477131325e-05 3.75081332050855e-05 0.000324074842359831 -0.000437199458288646 0.000905193395628435
"96" -0.000217005582032305 -0.000235216232950359 -0.000270660889372428 -0.000391265223241079 -0.000109602563058159 0.000260011730399307 -3.73224821117815e-05 1.76148782043221e-05 0.00512278630040004 -0.004005894299002 -0.000376490263068586 -5.762442899652e-05 4.63211156000264e-05 0.000344677498149551 -0.000410663450891336 0.00088892875122279
"97" -0.000206995258031853 -0.000218635757013503 -0.000266095862355321 -0.000375504814654441 -0.00011217695688655 0.00026537618556156 -4.03109954207469e-05 1.94313015159172e-05 0.005367611728279 -0.00393740153202784 -0.0003674949677007 -4.10413697590173e-05 5.48515185801329e-05 0.00036638060446268 -0.000386972668603418 0.000870335371879434
"98" -0.000196693050578368 -0.000202475559407335 -0.000260911060645507 -0.000359541001531559 -0.000114210317136294 0.000271325382755369 -4.30217340406128e-05 2.15616605471742e-05 0.0056097183318067 -0.00386878825943878 -0.000358525384595844 -2.47047918238761e-05 6.30314351873513e-05 0.000389057498418205 -0.000366133452950973 0.000849422288899255
"99" -0.00018612004869027 -0.00018687234495926 -0.000255131446447482 -0.000343517982667896 -0.000115658360111681 0.000277826795164471 -4.53926818583073e-05 2.40131314806768e-05 0.00584608363893331 -0.00380032677776087 -0.000349671056361459 -8.72812942182268e-06 7.07982240904224e-05 0.000412554862292445 -0.000348107563804622 0.000826225361099141
"100" -0.000175308312991194 -0.000171942616171361 -0.000248799072126956 -0.000327566315875369 -0.000116485847977251 0.000284849568684001 -4.73788509215766e-05 2.67845487001938e-05 0.00607367246539021 -0.0037322911937613 -0.000341016803554254 6.77119623612727e-06 7.80871345384771e-05 0.000436705947156178 -0.000332816705314748 0.000800787515827695
"101" -0.000164291780986025 -0.000157809335422139 -0.000241963828890848 -0.000311833556768287 -0.000116668839166044 0.000292335023254148 -4.89277327026185e-05 2.98670140167017e-05 0.00628946646972713 -0.00366488202865998 -0.000332627163362916 2.1679531989403e-05 8.48323697715174e-05 0.000461332029018796 -0.000320156946876451 0.000773173537712677
"102" -0.000153116248715601 -0.000144575951190462 -0.000234681924114529 -0.000296457095204165 -0.000116193647236995 0.000300228295196889 -5.00086253425453e-05 3.32475039746102e-05 0.00649053018355234 -0.00359829554469411 -0.00032456509323012 3.58795730370029e-05 9.09669150162136e-05 0.00048622517619976 -0.000309984144394509 0.000743463079135781
"103" -0.000141815606686169 -0.000132331612338123 -0.0002270122055326 -0.000281558647979367 -0.000115049493410241 0.000308468499109137 -5.0580773543631e-05 3.69062917383626e-05 0.0066740840047655 -0.00353269779212585 -0.000316868147700915 4.92702900351954e-05 9.64296639286401e-05 0.000511182932961015 -0.000302123178149611 0.000711748256139868
"104" -0.000130434139218994 -0.000121159507323808 -0.000219024411619584 -0.000267278316996826 -0.000113241860099727 0.000316982466738345 -5.06212758417634e-05 4.08206869332143e-05 0.00683752530917453 -0.00346821571565864 -0.000309571054472585 6.1745022811597e-05 0.000101163896375336 0.00053598320000267 -0.000296371586833249 0.000678144611687935
"105" -0.000119018642523083 -0.000111129428491051 -0.000210793374025114 -0.000253731271033111 -0.000110784980167789 0.00032569412521663 -5.01130839984131e-05 4.49536667969604e-05 0.00697849464386342 -0.00340494877713236 -0.00030269483711301 7.32086275686293e-05 0.000105108028327702 0.000560400177705169 -0.000292505721136104 0.000642777176665386
"106" -0.000107615850159068 -0.000102296657151805 -0.000202397043770811 -0.000241029624453226 -0.000107693534930036 0.000334521274930784 -4.90434861363227e-05 4.92732710294096e-05 0.00709496147126325 -0.0033429759709843 -0.000296244454461335 8.35755428073929e-05 0.000108212680972467 0.00058420364973061 -0.000290268968308734 0.000605785617069032
"107" -9.62741946902282e-05 -9.46925273152003e-05 -0.000193917678096387 -0.000229267504541261 -0.000103992285239537 0.000343386030792715 -4.74042341270782e-05 5.37379555601574e-05 0.00718524904992125 -0.00328236304519572 -0.000290212089001186 9.27676336404429e-05 0.000110428942737802 0.000607154125182289 -0.00028938903937527 0.000567321163916499
"108" -8.50448548197268e-05 -8.83561341885786e-05 -0.000185449802167389 -0.000218555460538577 -9.97238602155822e-05 0.000352194246511763 -4.52099675526291e-05 5.83004528458194e-05 0.00724805714911795 -0.00322313134411503 -0.000284583919179095 0.000100711719288327 0.000111710248171405 0.00062902073847318 -0.000289589290841848 0.000527560983794504
"109" -7.39794694210521e-05 -8.32958521996096e-05 -0.000177070396860489 -0.000208970911445602 -9.49225349113257e-05 0.000360866677000275 -4.24598661729401e-05 6.29145522129815e-05 0.00728255593831184 -0.00316530858550405 -0.000279332905737608 0.000107351504023508 0.000112025823739989 0.00064956443564234 -0.000290574123456225 0.000486678981430811
"110" -6.31203936689276e-05 -7.95111084503909e-05 -0.000168875553936087 -0.000200580963342384 -8.96405234571163e-05 0.000369312510920682 -3.91723053281056e-05 6.75347759817506e-05 0.00728837457211793 -0.00310890755689527 -0.000274425352832212 0.000112643330167275 0.000111346225804154 0.000668563960160519 -0.000292042357369485 0.000444870725091158
"111" -5.25264598646635e-05 -7.69880921635265e-05 -0.000160953217979743 -0.000193449053671446 -8.39292429501067e-05 0.000377444930964308 -3.5372109812722e-05 7.21011964718075e-05 0.00726561300979158 -0.00305392204682628 -0.000269813682139851 0.000116547368170193 0.00010964720470956 0.000685792722289086 -0.000293691678701967 0.000402339830007853
"112" -4.22388090622378e-05 -7.57047035109584e-05 -0.000153390937083432 -0.000187627116951778 -7.78506662118783e-05 0.000385184260613056 -3.10914545902122e-05 7.65650616377339e-05 0.00721485101402909 -0.00300034503752344 -0.000265452260067144 0.000119044467441858 0.000106918036207693 0.00070104473001804 -0.00029523230387639 0.00035930115231843
"113" -3.23150576427304e-05 -7.56215146136695e-05 -0.000146281177543872 -0.00018314650158393 -7.1469043934484e-05 0.000392444584761542 -2.63672251986357e-05 8.08699201020898e-05 0.00713712008861807 -0.00294816262856921 -0.000261282934173621 0.0001201241622593 0.00010315369627816 0.000714123334892741 -0.000296368685213797 0.000315978443562801
"114" -2.27967671064986e-05 -7.66918373467787e-05 -0.0001397035971846 -0.000180032645551599 -6.48497950586205e-05 0.000399150062565093 -2.1241601595867e-05 8.49616218584376e-05 0.00703388989766501 -0.00289735751472962 -0.000257251423462412 0.000119790851782547 9.83553588260272e-05 0.000724845304925409 -0.000296826301729519 0.000272603268256924
"115" -1.37283400298849e-05 -7.88553955527881e-05 -0.000133739239393893 -0.000178294041653246 -5.80537336887828e-05 0.000405237707121081 -1.57515072961495e-05 8.87950912382894e-05 0.00690705659724092 -0.00284793625649367 -0.000253291751215603 0.00011805770213086 9.2540306133113e-05 0.000733043579469524 -0.000296341512545895 0.000229401562858586
"116" -5.15124910564683e-06 -8.2048872118407e-05 -0.000128466866301647 -0.000177928803873426 -5.11665277772098e-05 0.000410635025801148 -9.96063433330021e-06 9.23099537133515e-05 0.00675880772186183 -0.00279986832042603 -0.000249345681175789 0.00011495614246997 8.57281494524746e-05 0.000738579805849716 -0.00029466672589063 0.00018662452458648
"117" 2.89362555930094e-06 -8.61902999217085e-05 -0.00012395513296617 -0.000178917693671518 -4.42532666581513e-05 0.0004152906600312 -3.91548991577043e-06 9.546295416671e-05 0.00659167952255804 -0.00275316278331345 -0.000245345707327752 0.000110526583997407 7.79507916343686e-05 0.000741330978502993 -0.000291581009121099 0.000144507878983793
"118" 1.03712207164917e-05 -9.1204114263071e-05 -0.000120268909879382 -0.000181237637426958 -3.73824946828566e-05 0.000419153658580237 2.3274547146962e-06 9.8207112327815e-05 0.00640841458585874 -0.00270781951799577 -0.000241238304908681 0.000104820383637203 6.92469931889677e-05 0.000741200634610224 -0.000286887486534862 0.000103297379596835
"119" 1.7248126719796e-05 -9.69936034546954e-05 -0.00011746542048372 -0.000184839648082053 -3.06329685746808e-05 0.000422181603927412 8.69764791267691e-06 0.000100499079479829 0.00621192687492995 -0.0026638425294349 -0.000236964501365733 9.7905885702811e-05 5.96664030256591e-05 0.000738116069090644 -0.000280417000726026 6.32288990473608e-05
"120" 2.34950811030299e-05 -0.000103466198717718 -0.000115595126941349 -0.000189673004819983 -2.40662610568818e-05 0.000424349998550583 1.51469513893983e-05 0.000102306011899091 0.00600527576159308 -0.00262127267383408 -0.000232472675166768 8.98572658769208e-05 4.92702881275907e-05 0.000732030183806951 -0.000272029130864956 2.45348276309105e-05
"121" 2.90879677728296e-05 -0.000110533414755003 -0.000114700688774677 -0.000195683338619347 -1.77604178420599e-05 0.00042562496797177 2.16032692687851e-05 0.000103590695538286 0.00579153881001014 -0.002580127534949 -0.000227714085202573 8.07586752454e-05 3.81163525256612e-05 0.000722929895494178 -0.000261618073520167 -1.25596191518882e-05
"122" 3.40080897554997e-05 -0.000118087040516808 -0.000114814933244423 -0.000202785083481114 -1.17735793251789e-05 0.00042600344107932 2.80038159231801e-05 0.000104324183015312 0.0055738324193123 -0.00254045348516662 -0.000222652529066984 7.07037390063846e-05 2.62802378210952e-05 0.000710827254483772 -0.000249111483517591 -4.78399507786146e-05
"123" 3.82368760335863e-05 -0.000126032330353578 -0.000115962133770833 -0.000210898230041685 -6.17281143648318e-06 0.000425475883337943 3.42826970418809e-05 0.000104477823118254 0.00535520052525538 -0.00250229572708973 -0.000217251578011347 5.97958431855542e-05 1.38413527977373e-05 0.000695766793761486 -0.000234471515923519 -8.11008353485636e-05
"124" 4.17620077929491e-05 -0.000134262157542262 -0.000118156113379235 -0.000219931656040251 -1.00935518964264e-06 0.000424056090102786 4.03869472817803e-05 0.000104046506691016 0.00513864747615407 -0.00246573768768726 -0.000211490699413861 4.81433091604411e-05 8.86778669118803e-07 0.000677813719345045 -0.000217692746412285 -0.000112163930994442
"125" 4.45793823029664e-05 -0.000142679335228665 -0.000121405231481463 -0.000229777036384117 3.6604523348121e-06 0.000421757221359447 4.62445584296787e-05 0.000103005108848286 0.00492702258987822 -0.00243082996445874 -0.000205353814709131 3.58599748127039e-05 -1.24915894090376e-05 0.000657070704867647 -0.000198812177186412 -0.000140860427709627
"126" 4.66865352590721e-05 -0.000151188919088848 -0.000125706270136563 -0.000240337551312295 7.78770683793375e-06 0.000418602264829656 5.18024021942774e-05 0.000101353994140375 0.00472304583281875 -0.00239766158326581 -0.000198835164689783 2.30631271678216e-05 -2.62045756594566e-05 0.000633671112068472 -0.000177896199758991 -0.000167041727842761
"127" 4.80871671215215e-05 -0.000159698430771543 -0.000131045815654817 -0.000251499741696696 1.1328664346672e-05 0.000414628662665991 5.70002983544976e-05 9.90880051663887e-05 0.00452926570589985 -0.00236631506542977 -0.000191936759246996 9.87499549720263e-06 -4.01482720205512e-05 0.000607762653203604 -0.000155056973717803 -0.000190591558424437
"128" 4.87830244371402e-05 -0.000168109699966797 -0.000137401967188939 -0.000263140308604671 1.42540259318709e-05 0.000409879128034276 6.17873595911002e-05 9.62142321706124e-05 0.00434805206903966 -0.00233689472734144 -0.000184672575811469 -3.58015634910842e-06 -5.4220283709419e-05 0.000579533553399173 -0.000130429150297599 -0.000211412542762798
"129" 4.87953393755063e-05 -0.000176340710789091 -0.000144743575512944 -0.000275132627127303 1.65251594491038e-05 0.000404403262283417 6.61128984229761e-05 9.27386603412483e-05 0.00418156944949709 -0.00230948224092641 -0.000177064861648937 -1.71794747293761e-05 -6.8321359442488e-05 0.000549186118901172 -0.000104189712451968 -0.000229434656950524
"130" 4.81352805381805e-05 -0.000184312545367829 -0.000153034768211583 -0.000287364497423089 1.81250536117642e-05 0.000398262298433366 6.99344281955469e-05 8.86829436435024e-05 0.00403179275269223 -0.00228418417638145 -0.000169149346875721 -3.0799844320314e-05 -8.23467776429766e-05 0.000516950963385047 -7.65477240690703e-05 -0.000244622807759515
"131" 4.68230778414828e-05 -0.000191952139696096 -0.000162224543570012 -0.000299699731624879 1.90283053159992e-05 0.00039151846190648 7.32076693628031e-05 8.4061599975614e-05 0.00390049105537244 -0.00226109895390749 -0.000160964911994702 -4.43225272296204e-05 -9.61915242410552e-05 0.000483067191179968 -4.77397341380574e-05 -0.00025696728614929
"132" 4.48905640631572e-05 -0.0001991915486703 -0.000172264119377529 -0.000312026087228138 1.92290413547719e-05 0.000384241710457596 7.58989649722241e-05 7.89001736079967e-05 0.00378920185258228 -0.00224030764144597 -0.000152567390686628 -5.76298650105293e-05 -0.000109755965684118 0.000447808547491047 -1.80348852454661e-05 -0.00026648677059793
"133" 4.23596426613946e-05 -0.000205975868337244 -0.000183088144412282 -0.000324214322449967 1.87194647328097e-05 0.00037650319727571 7.79756684133916e-05 7.32309191543899e-05 0.00369928712621172 -0.00222190295849599 -0.000144016069366122 -7.06104633245624e-05 -0.000122939397870169 0.000411442319607042 1.22728342403937e-05 -0.000273233684763705
"134" 3.92674252581829e-05 -0.000212249760099413 -0.000194633120091387 -0.000336146114632654 1.74971834961722e-05 0.000368381620390147 7.94127609832057e-05 6.70815857182752e-05 0.0036318823514225 -0.00220595491918724 -0.000135378303177928 -8.31591054794737e-05 -0.000135651608365669 0.000374265915640734 4.28647432575228e-05 -0.000277289055382129
"135" 3.56517224431861e-05 -0.000217971598960431 -0.000206826220508725 -0.000347697418895138 1.55703330230533e-05 0.000359960676659021 8.01906186039959e-05 6.04928925103391e-05 0.00358794860042294 -0.00219253705990391 -0.000126728818325503 -9.51728319321668e-05 -0.000147797526925356 0.000336571763795618 7.34087846406179e-05 -0.000278765148404358
"136" 3.15499920828985e-05 -0.000223106228336261 -0.000219590863216533 -0.000358763473829282 1.29554623319584e-05 0.000351316284483026 8.0297538706044e-05 5.35053659987981e-05 0.00356824138928212 -0.00218169974449763 -0.000118153896700181 -0.000106564073298106 -0.00015929401413155 0.00029865958047735 0.000103558188611361 -0.000277799107943557
"137" 2.69998940515931e-05 -0.000227621571477289 -0.000232843099483259 -0.000369235068313244 9.67077293136769e-06 0.000342537748342953 7.9726177972001e-05 4.61621991616948e-05 0.00357332788690855 -0.00217347605116197 -0.000109737233306152 -0.000117247107747119 -0.000170061329555992 0.000260832207685185 0.00013294556219112 -0.000274556429213955
"138" 2.20550235250604e-05 -0.000231508008169516 -0.000246501074419028 -0.000379011433309734 5.73430516347786e-06 0.000333698702720937 7.84730275821963e-05 3.8505546867175e-05 0.00360356996858437 -0.00216786996425212 -0.000101573333129067 -0.000127151441898684 -0.0001800291311297 0.000223389650730481 0.000161208299317843 -0.000269214603854035
"139" 1.67551570309062e-05 -0.00023475324506089 -0.000260482446638571 -0.000387999493209424 1.17336909628658e-06 0.000324884377166373 7.65460246661979e-05 3.05823841061572e-05 0.00365917042578299 -0.00216487419235727 -9.37558130128312e-05 -0.000136211695195029 -0.000189135391801169 0.000186619563691365 0.000187976196550728 -0.000261991515550475
"140" 1.11508561491341e-05 -0.000237348815224355 -0.000274696638882472 -0.00039611621992208 -3.97796879681087e-06 0.000316169018883438 7.39505064821182e-05 2.24396459107637e-05 0.00374013843564116 -0.0021644532448375 -8.63854994420116e-05 -0.000144377561359241 -0.000197323465043815 0.000150809308123796 0.000212880868901298 -0.00025310675227145
"141" 5.28938569995147e-06 -0.000239309233479101 -0.000289057018782523 -0.000403289051422244 -9.68056406250618e-06 0.000307626049576824 7.0703616702055e-05 1.41268270780797e-05 0.003846305162037 -0.00216654371574332 -7.95581652904681e-05 -0.000151607305056839 -0.000204552642221881 0.000116225989012488 0.000235566242133114 -0.000242801811162701
"142" -7.77480956260383e-07 -0.000240639611468973 -0.000303479435360024 -0.000409445697414976 -1.58985540536909e-05 0.000299327732056622 6.68299630319985e-05 5.69207788554506e-06 0.00397732454740072 -0.00217104229154579 -7.33724214855723e-05 -0.000157868961939303 -0.000210780512005071 8.3129415824626e-05 0.000255690590678295 -0.000231328940813369
"143" -7.0053270313157e-06 -0.000241364080892731 -0.000317875478047701 -0.000414543733965696 -2.25902434256829e-05 0.000291337485969316 6.23552756601877e-05 -2.81864775806853e-06 0.00413266195437779 -0.00217781866081226 -6.79273816627617e-05 -0.000163148118244235 -0.000215988380362158 5.1755404817235e-05 0.000272923670217299 -0.000218951289233312
"144" -1.3337331305943e-05 -0.000241508097446095 -0.000332159164854889 -0.000418527369667516 -2.97115397441925e-05 0.000283712036232129 5.73076289905156e-05 -1.13570854448302e-05 0.00431159958241636 -0.00218669972673472 -6.3314432997914e-05 -0.00016743533429834 -0.000220160692422314 2.23244038845108e-05 0.000286967134592367 -0.000205934908520474
"145" -1.97281262747947e-05 -0.000241100249307865 -0.000346256576246628 -0.000421370658551413 -3.72134744397127e-05 0.00027650266638074 5.17274564064173e-05 -1.98804729221124e-05 0.00451324648509558 -0.00219749072438037 -5.96243745935255e-05 -0.000170738909431553 -0.000223294059728389 -4.97745275696342e-06 0.000297540198258165 -0.0001925511388372
"146" -2.61283687744928e-05 -0.00024018508979934 -0.00036008335686117 -0.000423058116082363 -4.50495177823674e-05 0.000269756703431398 4.56533234760845e-05 -2.83415727344724e-05 0.0047365074545434 -0.00220994366611252 -5.69441158518788e-05 -0.000173073301427127 -0.000225390671918557 -2.99787766010205e-05 0.000304404217155279 -0.000179073832669088
"147" -3.24944761659359e-05 -0.000238796328385471 -0.000373566040892895 -0.000423568024574886 -5.31690293539644e-05 0.000263512001334931 3.91294676658878e-05 -3.67002997507358e-05 0.00498011112235027 -0.0022237898887906 -5.53503819738664e-05 -0.000174464783885011 -0.000226470474161105 -5.25417142120962e-05 0.000307357188782846 -0.000165774278598067
"148" -3.87819729052266e-05 -0.000236982244886183 -0.000386638246989927 -0.000422907422872188 -6.15220358655641e-05 0.000257799458400873 3.22046559487419e-05 -4.49152015403047e-05 0.00524258832503298 -0.00223871047191849 -5.49109414499535e-05 -0.0001749508618247 -0.000226562483288911 -7.25509746716648e-05 0.000306231209169541 -0.000152916320373954
"149" -4.49433727745315e-05 -0.000234790250986642 -0.000399233477224518 -0.000421090624850697 -7.00564708058366e-05 0.000252642340758945 2.49333818789954e-05 -5.29492887160888e-05 0.00552227588768844 -0.00225435890401996 -5.5689402776031e-05 -0.000174579362154935 -0.000225702189224348 -8.99246804307956e-05 0.000300907623329017 -0.000140755644349822
"150" -5.09412951450944e-05 -0.000232272488462433 -0.000411288194543088 -0.000418144661362878 -7.87241055480183e-05 0.000248055662903054 1.73634058204411e-05 -6.07682681612958e-05 0.00581731008968133 -0.00227034168410202 -5.77354691240818e-05 -0.000173407017176953 -0.000223933187008805 -0.000104610439512591 0.00029131203279744 -0.000129542925316967
"151" -5.67367570688425e-05 -0.000229486372483375 -0.000422755429250378 -0.000414106327688676 -8.74777704413201e-05 0.000244038997306487 9.55575025816817e-06 -6.83437021927617e-05 0.00612563595779174 -0.00228623844877838 -6.10904291501261e-05 -0.000171500621122704 -0.00022131874125988 -0.000116586704978488 0.000277417112983999 -0.000119506813927041
"152" -6.23004428753373e-05 -0.00022648239288973 -0.000433580856739761 -0.000409016222029693 -9.62647439112396e-05 0.000240599010707675 1.56173291276947e-06 -7.56460789999798e-05 0.00644499679042717 -0.00230160697149911 -6.57805990979083e-05 -0.000168930636291866 -0.000217917635660419 -0.000125859816343342 0.000259246078419387 -0.000110876294162258
"153" -6.75988814726914e-05 -0.000223310182947407 -0.000443725415718631 -0.000402935276680168 -0.000105035999599225 0.000237726995796205 -6.55101188712632e-06 -8.26427541532213e-05 0.00677296542468716 -0.00231599119774241 -7.18184321255313e-05 -0.000165772930402618 -0.000213804202583609 -0.000132470403313666 0.000236876474837067 -0.000103857501152493
"154" -7.26023885593031e-05 -0.000220031786158569 -0.000453150307473516 -0.000395929762011087 -0.000113748057760808 0.000235404520069642 -1.47284294064873e-05 -8.932122189899e-05 0.007106899552506 -0.00232888343828063 -7.9206164017422e-05 -0.000162114406677529 -0.000209054038990232 -0.000136480129941172 0.000210430928820586 -9.86342799332084e-05
"155" -7.72870789311583e-05 -0.00021669402137287 -0.000461823853636881 -0.000388074606215333 -0.000122350520303923 0.000233612632765742 -2.29094996595467e-05 -9.56533612716215e-05 0.00744401432274732 -0.00233980755674158 -8.79316952519982e-05 -0.000158039549297423 -0.000203751589724682 -0.000137985996197354 0.000180079145228505 -9.53810248884942e-05
"156" -8.16369534440185e-05 -0.000213354664333446 -0.000469729393077017 -0.000379456086373154 -0.000130807996409139 0.000232317532557469 -3.10351113870686e-05 -0.000101628971884591 0.00778134627717371 -0.00234825553669772 -9.79641233500679e-05 -0.000153642995260904 -0.000197990505165591 -0.000137109464776603 0.000146042105770629 -9.42428193201402e-05
"157" -8.56299434801654e-05 -0.000210055681348002 -0.000476839625219264 -0.000370157502485798 -0.000139070102556864 0.000231491566534055 -3.90454327292606e-05 -0.000107230562144057 0.00811582549228741 -0.00235372971703344 -0.000109261955508249 -0.000149011875574011 -0.000191852509537117 -0.000133986549911864 0.000108585863502108 -9.53473423336441e-05
"158" -8.92564994146447e-05 -0.000206848614399856 -0.000483148959690162 -0.000360281397698776 -0.00014710126166004 0.000231090283106983 -4.68846381087487e-05 -0.000112447447778998 0.00844425889800458 -0.00235574338820643 -0.000121763541995206 -0.000144243933164333 -0.000185440661270251 -0.000128787244900288 6.80120022895225e-05 -9.8797524066401e-05
"159" -9.25106575134731e-05 -0.000203778299205009 -0.000488648515796774 -0.000349928378825975 -0.000154862880389717 0.000231072341654515 -5.44916227701158e-05 -0.00011727338698838 0.00876337483506785 -0.00235383564918414 -0.000135399813479416 -0.000139427052711826 -0.00017885142686692 -0.000121694167295578 2.46579915412864e-05 -0.000104668263084924
"160" -9.53860034107478e-05 -0.000200881741908343 -0.000493337666661252 -0.000339203088818058 -0.000162315850491482 0.000231389085470952 -6.18165554167559e-05 -0.000121699652717077 0.00906988056715664 -0.00234757068914423 -0.000150080672127123 -0.00013465227113083 -0.000172178529153967 -0.000112907621121729 -2.10963773085055e-05 -0.000113014866735772
"161" -9.78814150339079e-05 -0.000198198296641127 -0.000497219197967274 -0.000328220105182899 -0.000169431666341789 0.00023199170279066 -6.88047823310609e-05 -0.000125725394460948 0.00936046552356184 -0.00233654074334375 -0.000165706158689299 -0.000130008157272822 -0.000165518974516685 -0.000102638142187782 -6.88534455121455e-05 -0.000123856156961979
"162" -0.000100000600459781 -0.000195758341297277 -0.000500307371559371 -0.000317090430174319 -0.000176173763140743 0.000232826817960571 -7.54061924295672e-05 -0.000129347225504055 0.00963190503733061 -0.00232039374591622 -0.000182157080644961 -0.000125574012447419 -0.000158963610752377 -9.11102281692319e-05 -0.000118193078793571 -0.000137189022654706
"163" -0.000101752223682446 -0.000193589183675507 -0.000502610617419306 -0.000305924536045555 -0.000182510049460295 0.000233841394748686 -8.15762641797459e-05 -0.000132565280388962 0.00988107258313182 -0.00229883543831267 -0.00019931125830455 -0.000121429848613891 -0.00015260592184237 -7.85549337305245e-05 -0.000168676905283807 -0.000152985812430462
"164" -0.000103143492867787 -0.000191718491832475 -0.000504146140626449 -0.000294843725729527 -0.000188414574996668 0.000234982465682626 -8.72648451344529e-05 -0.000135377802684146 0.0101050213218642 -0.00227162139450031 -0.000217027464598994 -0.000117644262386768 -0.000146530135084637 -6.52042739669006e-05 -0.000219856087918276 -0.000171179895932509
"165" -0.000104190945982121 -0.000190158733062833 -0.000504938401093496 -0.000283951070489523 -0.000193858536871858 0.000236199560994813 -9.24359675745047e-05 -0.000137788656784213 0.0103010131214518 -0.00223857650599284 -0.000235158620400638 -0.000114280397242495 -0.000140817299149104 -5.1295527752249e-05 -0.000271277186819424 -0.000191676251311765
"166" -0.000104909702200657 -0.000188926846560533 -0.000505013341760699 -0.000273362691504635 -0.000198822558024542 0.000237433247837407 -9.70555690183268e-05 -0.000139803751204555 0.0104665857955783 -0.00219959252832778 -0.000253551069163068 -0.000111394249356525 -0.000135543112015747 -3.70587504969333e-05 -0.00032249227445211 -0.000214348425577456
"167" -0.000105325966696871 -0.00018803579103117 -0.000504394696012718 -0.000263187984345859 -0.000203277503055555 0.000238637492331575 -0.000101090867932783 -0.000141427515423393 0.0105996316951622 -0.00215463810383169 -0.000272038991912906 -0.000109031543140788 -0.00013077418485784 -2.27190300530796e-05 -0.000373058999355419 -0.000239040389318273
"168" -0.0001054548775125 -0.000187483717447065 -0.000503115216808318 -0.000253526360074141 -0.000207201563943236 0.00023976931251651 -0.000104502132335062 -0.000142656355403948 0.0106984191387167 -0.00210377349311234 -0.000290454297243616 -0.000107228880503126 -0.000126563125659123 -8.50399054003948e-06 -0.000422544165576896 -0.000265564176783333
"169" -0.000105329763440159 -0.000187271569929424 -0.000501207205050698 -0.000244477817519957 -0.000210581050075039 0.000240775700229016 -0.000107277373454594 -0.000143504676279791 0.0107615964049233 -0.00204710538248916 -0.000308629576097691 -0.00010601426763887 -0.000122969477233907 5.38344220820593e-06 -0.000470540758367204 -0.000293695545120689
"170" -0.000104973994189282 -0.000187401213928837 -0.000498700928982905 -0.000236141094834857 -0.000213394948443717 0.000241620170147885 -0.00010939497145551 -0.000143978409699611 0.0107882878341155 -0.00198482783947905 -0.000326391811465756 -0.000105400950290363 -0.000120026041433505 1.8750494306976e-05 -0.00051665717840872 -0.000323174026587185
"171" -0.000104415682566953 -0.000187855056494122 -0.000495632323175127 -0.000228592358769262 -0.000215618576665508 0.000242270514381485 -0.000110832278721548 -0.000144070266424875 0.0107780771311814 -0.00191724498163319 -0.000343570485061496 -0.000105397608092721 -0.000117767647942676 3.14091637669016e-05 -0.000560535365047872 -0.000353724779455066
"172" -0.000103692902664795 -0.000188627508930952 -0.000492034603416922 -0.000221918294610384 -0.000217249379943624 0.000242694318087318 -0.000111580662958621 -0.000143797977839405 0.0107309785899842 -0.00184466705965709 -0.000359994133730919 -0.000105996511290014 -0.000116212219173855 4.32006956125477e-05 -0.000601847320268239 -0.000385023786429895
"173" -0.000102832390594787 -0.000189696238641569 -0.000487949049192024 -0.000216181022229413 -0.000218264701543337 0.000242861984357093 -0.000111638117162059 -0.000143161472921103 0.0106474818327225 -0.00176751473795993 -0.000375504105563459 -0.000107186183457723 -0.000115369159082719 5.39814129424899e-05 -0.000640301166446362 -0.000416726663113327
"174" -0.000101870163949857 -0.000191044510901101 -0.000483402572358782 -0.00021144572780503 -0.000218648979615453 0.000242763125572951 -0.0001109923808308 -0.000142163045319441 0.0105285045304665 -0.00168626988790523 -0.000389938740586259 -0.000108935504648116 -0.000115235085369706 6.36230302444502e-05 -0.000675639133303185 -0.000448471119439818
"175" -0.000100838489677016 -0.000192647403957794 -0.00047843421476026 -0.000207761530790175 -0.000218401740582007 0.00024237672964874 -0.000109652609561203 -0.000140808739645463 0.0103753425511394 -0.00160143938961972 -0.000403148018406489 -0.000111210231424137 -0.00011579840892487 7.20262078282983e-05 -0.000707649169522368 -0.000479856807747461
"176" -9.97742267673119e-05 -0.00019447942439111 -0.000473076246210438 -0.000205164334005519 -0.00021750320414126 0.000241703401765852 -0.000107618824611368 -0.000139101434898383 0.010189675069547 -0.00151361417367855 -0.000414990709909193 -0.000113965152304853 -0.000117034713849479 7.91073026142082e-05 -0.000736160384519658 -0.000510477267470884
"177" -9.87101449119254e-05 -0.000196513227092723 -0.000467359471384744 -0.000203692053088006 -0.000215950963479435 0.000240732433753891 -0.000104913986332235 -0.000137048024781429 0.0099734583269836 -0.00142338377997919 -0.000425342610595952 -0.000117147543053675 -0.000118914641945745 8.48096220246836e-05 -0.000761044214710138 -0.000539897401738315
"178" -9.76797915832315e-05 -0.00019871497485195 -0.000461313919521748 -0.000203359262431998 -0.000213731088266717 0.000239479319804387 -0.00010153565304661 -0.0001346396599956 0.00972894773414311 -0.00133142244067214 -0.000434080966858123 -0.000120690887031554 -0.000121386265212089 8.9095642895856e-05 -0.000782214808767346 -0.000567687868376288
"179" -9.67167342219037e-05 -0.000201054361673953 -0.000454971911674659 -0.000204169908124539 -0.000210847261710104 0.000237952615032785 -9.75140121375474e-05 -0.000131890272339332 0.00945856830432325 -0.00123838360962299 -0.000441106875448525 -0.000124524364529827 -0.000124397333783281 9.19526441638297e-05 -0.000799633444550405 -0.0005933973773087
"180" -9.58508842734804e-05 -0.000203491906636488 -0.000448354436158096 -0.000206119146532583 -0.00020728879929418 0.000236170363296409 -9.28665829443066e-05 -0.000128795924744574 0.00916488740030457 -0.00114496316478077 -0.000446329216694746 -0.000128573637588379 -0.000127886459254107 9.33929583256257e-05 -0.000813296178307997 -0.000616576145391932
"181" -9.51143923210731e-05 -0.000205994141308822 -0.000441489801698343 -0.000209193353788937 -0.000203053665838497 0.000234160435938497 -8.76177329755362e-05 -0.000125357866676433 0.00885057647143299 -0.00105186801409902 -0.000449676469887449 -0.000132751610391941 -0.000131775120420843 9.34421802320931e-05 -0.000823250924381348 -0.000636793957445492
"182" -9.45373676161107e-05 -0.000208530048863516 -0.000434402812861566 -0.000213366728226618 -0.000198148536498571 0.000231942056783635 -8.18049108223692e-05 -0.000121581852826653 0.00851830947172529 -0.000959788115697777 -0.000451089390264788 -0.000136970700248873 -0.00013598974068339 9.21585263577535e-05 -0.000829584508079344 -0.000653609871548674
"183" -9.41436524750298e-05 -0.000211056699008759 -0.000427108466671088 -0.000218596001682605 -0.000192566776461341 0.000229560088988633 -7.54488285838238e-05 -0.000117464423457604 0.00817079280211483 -0.00086943903499605 -0.0004505229006097 -0.000141140468423584 -0.000140437996782989 8.96102034522518e-05 -0.00083241392978036 -0.000666622034554926
"184" -9.39578708315821e-05 -0.000213535616937496 -0.000419626546327902 -0.000224834881105693 -0.000186318164924734 0.000227047703887892 -6.85900079840356e-05 -0.000113010063460249 0.00781064153870599 -0.000781505265791522 -0.000447957668798165 -0.000145167836763732 -0.000145028344137824 8.58906667792561e-05 -0.000831898473802464 -0.000675438201808185
"185" -9.39995996310703e-05 -0.000215935230445557 -0.000411973546081127 -0.000232021422783063 -0.00017940546783177 0.000224450371297291 -6.12667544585689e-05 -0.000108219019705454 0.00744041147921135 -0.000696679541394887 -0.000443381309799494 -0.00014895275493037 -0.000149661775564191 8.11029102065644e-05 -0.00082823338870141 -0.00067970911169672
"186" -9.42857415938848e-05 -0.000218219499969723 -0.000404164668945325 -0.000240083137919588 -0.00017184331368148 0.000221811302246897 -5.35205762752156e-05 -0.00010309746857413 0.00706252626642943 -0.000615607576529469 -0.000436799470365983 -0.000152403602519638 -0.000154234815026603 7.5374112953355e-05 -0.000821635916088268 -0.000679108841676692
"187" -9.48401403573291e-05 -0.000220344651826171 -0.000396207625433643 -0.000248940164610195 -0.000163634811485794 0.000219182422823262 -4.53889039346007e-05 -9.76456830998655e-05 0.0066792692450507 -0.000538936607081979 -0.000428238300505405 -0.000155423821886808 -0.00015864500728927 6.88432013226888e-05 -0.00081235589580514 -0.000673361659367567
"188" -9.56648847390878e-05 -0.000222283277438149 -0.000388113376002105 -0.000258504666722727 -0.000154800712898445 0.000216609676154509 -3.69206044324335e-05 -9.1867590710034e-05 0.00629277179960142 -0.000467271749568745 -0.000417737406238055 -0.000157919976995153 -0.000162782705269525 6.16552489500883e-05 -0.000800661656678767 -0.000662238941277792
"189" -9.67744272264026e-05 -0.000224001228354471 -0.000379892585537913 -0.000268679592994349 -0.000145351434961012 0.000214152037318461 -2.81559891561641e-05 -8.57697421334519e-05 0.00590498353132403 -0.000401182424062031 -0.00040534740664318 -0.000159803575284911 -0.000166539860539407 5.39737468559482e-05 -0.000786842105026006 -0.000645563728231933
"190" -9.8169077068495e-05 -0.000225467480196081 -0.000371547079438293 -0.000279360775029888 -0.000135314682265883 0.000211853650365456 -1.9143636378865e-05 -7.93592076112511e-05 0.00551768294705791 -0.000341207778480174 -0.000391139839262821 -0.000160988996697346 -0.000169811081479043 4.59713835302668e-05 -0.000771200714014004 -0.000623213470382289
"191" -9.98536086711527e-05 -0.000226651147513783 -0.000363082914521485 -0.000290436576956943 -0.000124708344088043 0.000209772834699103 -9.92808258864436e-06 -7.26422506369129e-05 0.00513247274414203 -0.000287843085446278 -0.000375195646051887 -0.000161394123945424 -0.000172490204574473 3.78207887485319e-05 -0.000754047519959729 -0.000595126757033427
"192" -0.00010182319981218 -0.000227522936570498 -0.00035451035626979 -0.000301788424157116 -0.000113557128585248 0.000207957499869804 -5.5787401822934e-07 -6.5630758158876e-05 0.00475077017205729 -0.000241539330753629 -0.000357608878312146 -0.000160951442874535 -0.000174480133429423 2.96976498217199e-05 -0.000735708941254266 -0.000561304575750542
"193" -0.000104074876489246 -0.000228060459812356 -0.000345822700921485 -0.000313299794589111 -0.000101889493557049 0.000206458754114285 8.92361783930023e-06 -5.83294781384891e-05 0.00437381584881965 -0.00020271154322216 -0.000338490424087422 -0.000159589315872238 -0.000175677253368615 2.17919128636906e-05 -0.000716495385591578 -0.000521814545856759
"194" -0.000106591155544239 -0.000228239981479827 -0.000337030580155742 -0.000324844686580982 -8.97422260358196e-05 0.000205323478479265 1.84702978109531e-05 -5.07583108732849e-05 0.00400267138732861 -0.000171700381923815 -0.000317953606805979 -0.000157254212607959 -0.00017599302038369 1.42835303185813e-05 -0.000696728945574865 -0.000476777877683115
"195" -0.000109366015645966 -0.000228040392305743 -0.00032813300737804 -0.000336298827339317 -7.71454129987384e-05 0.000204593668495573 2.80310999492944e-05 -4.29279230649389e-05 0.0036382374059906 -0.00014881611892562 -0.000296128974610675 -0.000153894601671009 -0.00017534065205462 7.35520693940829e-06 -0.000676717236330326 -0.000426386111899054
"196" -0.000112372927807313 -0.000227443721127717 -0.000319133465671437 -0.000347537680470186 -6.41424928270569e-05 0.000204310824681402 3.75679200550847e-05 -3.48522843831158e-05 0.00328126436590436 -0.000134309108794203 -0.000273151049728376 -0.000149473261372835 -0.000173643760802466 1.18798538225548e-06 -0.000656755905213885 -0.000370894538867003
"197" -0.000115598791391589 -0.000226438832067253 -0.000310035934018189 -0.000358435602688497 -5.07697846988711e-05 0.00020450915010247 4.70344441269132e-05 -2.65542302681012e-05 0.00293234779253012 -0.000128366973081552 -0.000249166385820256 -0.000143959949664347 -0.000170833993357281 -4.04273470364864e-06 -0.000637120754523744 -0.000310609470313161
"198" -0.000119016115377542 -0.000225009113445586 -0.000300842609249566 -0.000368864590936615 -3.70731589726433e-05 0.000205217636233102 5.63914349434655e-05 -1.80505291335331e-05 0.00259195640227198 -0.00013112133682167 -0.000224321435818108 -0.000137338056919922 -0.000166849005324779 -8.17145807925346e-06 -0.000618071088800482 -0.000245898921987295
"199" -0.000122595365746366 -0.000223145930261169 -0.000291559227627255 -0.000378702599330088 -2.30980864456525e-05 0.000206461908575374 6.55995226717327e-05 -9.36743662340965e-06 0.0022604313038452 -0.000142638164135749 -0.000198777471844326 -0.000129599305697748 -0.000161638527737927 -1.10389387367164e-05 -0.000599839928413008 -0.000177183212094577
"200" -0.000126308942641715 -0.000220848724492273 -0.000282193956195086 -0.000387842173099555 -8.90142813966444e-06 0.000208257728565641 7.46182667065627e-05 -5.26358330816159e-07 0.00193800695462278 -0.000162925375017642 -0.000172689445291239 -0.000120748468374612 -0.000155165982402922 -1.25010890259318e-05 -0.000582630735233607 -0.000104925917414136
"201" -0.000130114312339027 -0.000218107997876107 -0.000272750389260585 -0.00039615862082104 5.4717196831704e-06 0.000210621973856854 8.34200075105126e-05 8.44915720010986e-06 0.00162482038683051 -0.000191925578356761 -0.000146218373915868 -0.000110800144233626 -0.000147396464455621 -1.24142015833047e-05 -0.000566613095951071 -2.9647512366441e-05
"202" -0.000133983269484666 -0.000214926883612217 -0.000263236931632325 -0.000403553287248958 1.99674963317404e-05 0.000213557898667484 9.1972019457868e-05 1.75324591448708e-05 0.00132092616551512 -0.000229513574322154 -0.000119526250521837 -9.97792695165922e-05 -0.000138321380386699 -1.06629844910956e-05 -0.000551931339625236 4.81044258905036e-05
"203" -0.000137874638640026 -0.000211306339609586 -0.000253667916386364 -0.000409925235485007 3.45254117222855e-05 0.000217064316011244 0.000100239400392786 2.66883361073473e-05 0.00102628185948107 -0.000275479574488619 -9.27762296977778e-05 -8.77276484817141e-05 -0.00012793399923173 -7.13258223506817e-06 -0.000538688772452101 0.00012774178651388
"204" -0.00014174186390774 -0.000207253055466245 -0.000244052937438011 -0.00041518044516145 4.90909428088146e-05 0.0002211315513608 0.000108202170784402 3.58930180545899e-05 0.000740834169832957 -0.00032957562975905 -6.61295728650344e-05 -7.46901910161736e-05 -0.00011623952682268 -1.74299252759958e-06 -0.000526952766501907 0.000208645766085078
"205" -0.000145545964987099 -0.000202774643204479 -0.000234407505441328 -0.000419241546166619 6.36031897149407e-05 0.000225746270924477 0.0001158380825247 4.511131906286e-05 0.000464443492718395 -0.000391449857864458 -3.97406047523651e-05 -6.07272542992755e-05 -0.000103261573077195 5.58139507488532e-06 -0.000516754817075463 0.000290178034144458
"206" -0.000149244140312122 -0.000197881646317913 -0.000224746377220658 -0.000422037503651582 7.80046643525066e-05 0.000230889252829905 0.000123127050998246 5.43149748508483e-05 0.000196982161714904 -0.000460706551453359 -1.37613921356138e-05 -4.59092172334131e-05 -8.90289757670593e-05 1.48952170367534e-05 -0.000508087790951661 0.000371677081012375
"207" -0.000152785403230601 -0.000192593366564833 -0.000215087878551094 -0.000423510790524522 9.22331677317038e-05 0.000236526106541637 0.000130050214792428 6.34662955280461e-05 -6.17237994742935e-05 -0.000536853666669619 1.16579778378703e-05 -3.03157846652288e-05 -7.35907998163072e-05 2.62227052931365e-05 -0.000500915195572707 0.000452476383937278
"208" -0.000156126829526461 -0.000186917332056295 -0.000205450761116612 -0.000423606864697798 0.00010623284031576 0.00024262927531194 0.000136601441215951 7.25381696249243e-05 -0.000311823628632328 -0.000619359344799743 3.63803023591635e-05 -1.40283355147028e-05 -5.69996957240722e-05 3.95757976400772e-05 -0.000495153291031792 0.000531893945764945
"209" -0.000159218961466249 -0.000180878387447488 -0.000195857212505332 -0.000422290071560116 0.000119941901104016 0.00024915310086468 0.000142772142641496 8.14942451178098e-05 -0.000553462425901717 -0.000707600305594646 6.02771827006569e-05 2.85364721882497e-06 -3.9320201101255e-05 5.49407039358642e-05 -0.000490690208452286 0.000609252337045813
"210" -0.000162017096741198 -0.000174498486327644 -0.000186331158383848 -0.00041954045181759 0.000133299255006683 0.000256049941004953 0.00014855109516554 9.02972398103753e-05 -0.000786758633236201 -0.000800891340178253 8.32232468456334e-05 2.02258508102778e-05 -2.06411091247776e-05 7.22831051624604e-05 -0.000487386304799305 0.000683877240434419
"211" -0.000164468993895751 -0.000167792771364855 -0.000176894726338164 -0.000415336241597135 0.000146258969168819 0.000263279605848668 0.000153951420488492 9.89261945666189e-05 -0.00101177427054666 -0.000898506145141943 0.000105112751322309 3.79848673623007e-05 -1.0386595167004e-06 9.15351444290174e-05 -0.000485060912417517 0.000755094827899574
"212" -0.000166534559051325 -0.000160794522574995 -0.000167576220849415 -0.000409689481500724 0.000158757486394983 0.000270775143942036 0.000158964016383012 0.00010733862772649 -0.00122853758541852 -0.00099961727110187 0.000125845614184894 5.6015376740408e-05 1.93819077275702e-05 0.000112618959144939 -0.000483528190794405 0.000822262456639477
"213" -0.000168162173819321 -0.000153528168993179 -0.000158402104606578 -0.000402604810016329 0.000170745823963075 0.000278480957601298 0.000163595517483422 0.000115509439503525 -0.00143698742408709 -0.00110337890385117 0.000145337436881805 7.41999731392443e-05 4.05154201977181e-05 0.000135420359378799 -0.000482564808941949 0.000884747252542539
"214" -0.000169311965338103 -0.000146022226623015 -0.000149394140818739 -0.00039411703729644 0.000182176381961345 0.000286338414082409 0.000167859305460965 0.000123408362304592 -0.00163701449268518 -0.00120887338271056 0.000163515837228082 9.24193894576793e-05 6.22513511534952e-05 0.000159813031794886 -0.000481934615980183 0.000941952104972503
"215" -0.000169938304304643 -0.000138308462543375 -0.000140589609335255 -0.000384266160202429 0.000193005619656832 0.000294277258316797 0.000171771475887278 0.000131009617384941 -0.00182840943099022 -0.00131516027456559 0.000180324404158911 0.000110553384037961 8.4463714803816e-05 0.000185636722696908 -0.000481399670587641 0.000993305131154779
"216" -0.000170003841706759 -0.000130414746177657 -0.000132012468766182 -0.000373095496506688 0.000203188780559259 0.00030223337873753 0.000175341401917679 0.000138287526935045 -0.00201088113173484 -0.00142125235374765 0.000195720236110297 0.000128479022822891 0.000107032595445954 0.0002127167790543 -0.000480702786908799 0.00103828122431895
"217" -0.000169466944042186 -0.000122377602654774 -0.00012369154425878 -0.000360681260327281 0.000212692140470264 0.000310142776190827 0.000178593567034634 0.00014522246518999 -0.00218404684691925 -0.00152614300166021 0.000209677654500819 0.000146074289646878 0.000129820356436343 0.000240856251788309 -0.000479587443394573 0.00107639592105996
"218" -0.000168294829090066 -0.000114228841165845 -0.000115651349041775 -0.000347088910060807 0.000221486553470761 0.000317934771962096 0.000181550122324881 0.00015179103664461 -0.002347430154505 -0.00162880659254467 0.000222184682515787 0.000163222406337358 0.00015270169263288 0.000269841191879382 -0.000477800248225106 0.00110722285632425
"219" -0.00016645516635514 -0.000106009439226846 -0.000107926429473704 -0.000332412192076118 0.000229539907912367 0.000325539624929686 0.000184228332472432 0.000157975862202623 -0.00250047596888038 -0.00172821160014114 0.000233242567613177 0.000179806086071937 0.000175533853097827 0.000299434389932776 -0.000475100928002566 0.00113038740574374
"220" -0.000163920811442773 -9.77471521375159e-05 -0.000100540099432372 -0.000316743381843769 0.000236832104125862 0.000332894423442061 0.000186661135021899 0.000163765086360151 -0.00264253984922049 -0.00182333864481316 0.000242872189570326 0.000195714109215539 0.000198184277739227 0.000329391921270169 -0.000471251893547947 0.00114558187755331
"221" -0.000160661881422473 -8.94813485904209e-05 -9.35172391232114e-05 -0.000300189913342629 0.000243349591050279 0.000339936059101915 0.00018887059911625 0.000169144735620645 -0.00277291201700842 -0.00191318271001124 0.000251107821569636 0.000210840821386904 0.000220515997262363 0.00035945381739932 -0.000466037842536562 0.0011525678960683
"222" -0.000156664803881002 -8.12517174039962e-05 -8.68793191039899e-05 -0.000282871313854908 0.000249084175596067 0.000346601730453573 0.000190893521376234 0.000174110078570173 -0.00289085178526482 -0.001996782227282 0.000257991930604647 0.000225085738377629 0.000242394826131236 0.000389351733846571 -0.000459272348253663 0.00115117593714953
"223" -0.00015190857183411 -7.30913089539487e-05 -8.06538374703351e-05 -0.000264902374643877 0.000254032197569244 0.000352835986883724 0.000192760529049232 0.00017866044183809 -0.002995567952941 -0.0020732159282094 0.000263587940169433 0.00023835665119721 0.000263688440201193 0.000418809440863829 -0.000450776474956388 0.00114131895996453
"224" -0.000146384350005681 -6.5037068581211e-05 -7.48543607809264e-05 -0.000246412428251328 0.000258194183981092 0.000358587150246926 0.000194501414507648 0.00018278790381573 -0.0030862955491824 -0.00214162063080308 0.000267963745590863 0.000250568634321212 0.000284271514164963 0.000447551889736063 -0.000440413904511706 0.00112298714155995
"225" -0.000140086095874172 -5.71323046176556e-05 -6.95082336153968e-05 -0.000227538913262509 0.000261577003224601 0.000363795639421859 0.000196146338479382 0.00018649441539138 -0.00316227909798169 -0.00220119906247451 0.000271205542554059 0.000261644522262987 0.000304019711379421 0.000475302601453677 -0.000428079426070049 0.0010962639964531
"226" -0.000133006737088393 -4.94059169021313e-05 -6.46223060648513e-05 -0.00020841410054634 0.000264198082560334 0.000368428602654347 0.000197728910220294 0.00018979046320548 -0.00322282528493641 -0.0022512592332318 0.000273398019470512 0.00027152084201399 0.000322816458828727 0.000501790107551048 -0.000413689883944868 0.00106130491917338
"227" -0.000125158450039322 -4.19014058262387e-05 -6.0212639817419e-05 -0.000189181846493273 0.000266082003809784 0.000372444430258644 0.000199286736382666 0.000192684048268765 -0.00326733004278961 -0.00229119464838341 0.000274643121894398 0.00028014107769394 0.000340556228942235 0.000526749381623454 -0.000397208141639957 0.00101836789259915
"228" -0.000116546353039412 -3.46488544983423e-05 -5.62895389269193e-05 -0.000169978054644261 0.000267244562263902 0.000375806890532118 0.000200842006026677 0.00019518108524962 -0.00329533346515873 -0.00232048979619449 0.000275043065316658 0.000287457892274595 0.000357130114679575 0.000549930322536214 -0.000378632622055345 0.000967789867883752
"229" -0.000107182459826824 -2.76836268070564e-05 -5.2855732816143e-05 -0.000150945345037627 0.000267726487855658 0.000378493271702858 0.000202430428526333 0.000197300230856233 -0.00330651021659976 -0.0023387678391133 0.000274710010920028 0.000293439469621339 0.000372454719890123 0.000571097671184227 -0.000357991979963266 0.000909997678759816
"230" -9.70930360643542e-05 -2.10458914313309e-05 -4.99222187178318e-05 -0.000132229503526212 0.000267560745383136 0.000380476496821267 0.000204080069261709 0.000199058769823871 -0.00330071702352417 -0.00234575508836667 0.000273752325779771 0.000298057532659168 0.000386442059927155 0.000590027951806529 -0.000335364511266403 0.000845501448003352
"231" -8.63032733812594e-05 -1.47626875137873e-05 -4.74823793387613e-05 -0.000113961179366348 0.000266790734027588 0.000381748162869482 0.000205817927247014 0.000200471675152764 -0.00327801910263802 -0.00234130840034186 0.000272279271867437 0.000301303690077838 0.000399017817316154 0.000606531199454918 -0.000310851595117071 0.000774892212280408
"232" -7.48420880788104e-05 -8.86800545149469e-06 -4.55353707069105e-05 -9.62775852601772e-05 0.000265462038362831 0.000382297727289475 0.000207664380522185 0.000201562761941804 -0.00323868331782279 -0.00232541098595218 0.000270406382655209 0.000303174088081325 0.000410123654371864 0.000620430775405061 -0.000284596502373667 0.000698838154279087
"233" -6.27470083175027e-05 -3.39048918060693e-06 -4.40766896939371e-05 -7.93050718178433e-05 0.000263625318023471 0.000382123773178408 0.000209647491554642 0.000202353823774 -0.00318319790923948 -0.00229816876071966 0.000268239116859601 0.000303678558109809 0.000419708301488744 0.000631583831499799 -0.000256776142550072 0.000618070758940739
"234" -5.00662085297498e-05 1.64600033354141e-06 -4.30949408032721e-05 -6.31692288431287e-05 0.000261331108322528 0.000381231867712474 0.000211782750190769 0.000202867247088619 -0.00311228232606179 -0.00225981501395991 0.000265882478200402 0.000302836528591163 0.000427733229117168 0.000639870917247689 -0.000227599716277367 0.000533386625595578
"235" -3.68442972294965e-05 6.20716436806476e-06 -4.25789059732028e-05 -4.79870421179667e-05 0.000258638446609329 0.000379630479374574 0.000214083510021643 0.000203125708870092 -0.00302686074625437 -0.00221069797968769 0.000263433554821995 0.000300676389337224 0.000434168858703188 0.000645210213626095 -0.000197307249853841 0.000445634584133774
"236" -2.31357690894522e-05 1.02743062719332e-05 -4.25126899820916e-05 -3.38581987898869e-05 0.000255606162659185 0.000377335332658662 0.000216560953602273 0.00020315636716158 -0.0029280551134191 -0.00215127965522061 0.000260985621026189 0.00029724054931779 0.000438997094990175 0.000647542615497057 -0.000166163262655577 0.000355705409520744
"237" -8.99979108145248e-06 1.38250746612767e-05 -4.28749527260844e-05 -2.08914575071422e-05 0.000252290803946869 0.000374372729736066 0.000219226152699 0.000202982992803034 -0.00281714883807223 -0.00208213059668023 0.000258620264849534 0.000292575107798806 0.000442220142916313 0.0006468474264226 -0.000134460203492299 0.000264521120666749
"238" 5.49935727453678e-06 1.68423855031337e-05 -4.36442767382861e-05 -9.1616005899077e-06 0.000248760001872844 0.000370771225851186 0.000222083136572491 0.000202631060577973 -0.00269557961443961 -0.00200391916940006 0.000256415729174517 0.000286740146102335 0.000443844429222715 0.000643135043172248 -0.00010249671595429 0.000173023431627558
"239" 2.02957454475208e-05 1.93111114634347e-05 -4.4798313600754e-05 1.24578727185222e-06 0.000245070304353659 0.000366558406678547 0.000225127969399198 0.000202121423963342 -0.00256490435599712 -0.00191738680432803 0.000254433124588553 0.000279797936054448 0.000443884688804801 0.000636449427839932 -7.06042477940525e-05 8.21663388710887e-05
"240" 3.53174984449803e-05 2.12153974929377e-05 -4.6306965490996e-05 1.02702343306948e-05 0.000241290403005525 0.000361774296069804 0.000228360094012518 0.00020148217147434 -0.00242675105926661 -0.0018233636183962 0.000252727527342137 0.000271822468899959 0.000442373188285291 0.000626861917087678 -3.91116408111856e-05 -7.10680428331501e-06
"241" 5.04899077737185e-05 2.25439006937372e-05 -4.81426522141922e-05 1.78552013289033e-05 0.00023747031530036 0.000356455821687234 0.000231766796543223 0.00020072812328483 -0.00228280557562037 -0.00172272516806602 0.000251345081609624 0.000262891235361189 0.000439351481066594 0.000614477883315456 -8.3651304518102e-06 -9.38598853348995e-05
"242" 6.57334750420793e-05 2.32930306109587e-05 -5.02685304100299e-05 2.39635120200529e-05 0.000233683081660442 0.000350651201835061 0.00023534031421325 0.000199886066002403 -0.00213476055766668 -0.00161641790505674 0.00025031342250696 0.000253089736013928 0.000434869179605137 0.000599432164854422 2.12915575229794e-05 -0.000177192682830695
"243" 8.09645205217172e-05 2.34580811042562e-05 -5.26531943833969e-05 2.85639062174951e-05 0.000229972953165768 0.000344405207687007 0.000239059952894342 0.000198970150942671 -0.0019843160804449 -0.00150540286872916 0.000249656833161261 0.000242505172678879 0.000428986944844953 0.000581882091885629 4.95152766897129e-05 -0.000256239743731725
"244" 9.61098685650533e-05 2.30434518456438e-05 -5.52625110512837e-05 3.1655131611251e-05 0.000226404570675317 0.000337768504666854 0.000242908896753468 0.000197998700458939 -0.00183313021090209 -0.00139068212317137 0.000249388592317901 0.000231231323477767 0.000421777149051542 0.000562017596063673 7.59782993845607e-05 -0.00033018574479941
"245" 0.000111078132597059 2.20448923656151e-05 -5.80594489672506e-05 3.32232230523161e-05 0.000223026828884303 0.000330789392309103 0.000246859907475688 0.000196983235353112 -0.00168280458075172 -0.0012732657238854 0.000249503831169441 0.000219357643025734 0.000413310258928248 0.000540043282412902 0.000100349845826499 -0.000398275760917078
"246" 0.000125782086473027 2.04721633588575e-05 -6.10033749814746e-05 3.32848739916881e-05 0.000219881594268626 0.000323518588022524 0.000250880866337661 0.000195931234318039 -0.00153486872884879 -0.00115416147016313 0.000249988248468146 0.000206984907868801 0.000403675703504281 0.000516190568953165 0.000122324400918902 -0.00045982450430199
"247" 0.00014014242738871 1.83377117305141e-05 -6.40580258777627e-05 3.18702249330308e-05 0.000217019374212034 0.000316008134026866 0.000254948982894122 0.000194857807641657 -0.00139073334236164 -0.00103439360993312 0.000250825786692603 0.000194209082398993 0.000392958208297706 0.00049070213109122 0.000141612389315838 -0.000514223860222304
"248" 0.000154074984080532 1.5652101380574e-05 -6.71873501818404e-05 2.901925645337e-05 0.000214473381077995 0.000308311101873613 0.000259019029010269 0.000193762915651384 -0.00125172115209488 -0.000914942600373438 0.000251978724978547 0.000181127646370067 0.000381260096732955 0.000463838042730221 0.000157953203760266 -0.000560945445689601
"249" 0.000167492396811881 1.24372031847729e-05 -7.03468455401022e-05 2.47797651504555e-05 0.000212281387326756 0.000300477302181649 0.000263067776142673 0.000192656968756304 -0.00111902062284479 -0.000796784286323585 0.000253406933574886 0.000167835623052371 0.000368676678931426 0.000435869684824678 0.000171108186442518 -0.000599548690683846
"250" 0.000180314958182637 8.7159997723464e-06 -7.34970571878636e-05 1.92256890997929e-05 0.000210472473067763 0.000292558923574213 0.000267049706213205 0.000191532930427559 -0.000993701075106362 -0.000680852829165303 0.000255059896558753 0.000154429895827904 0.00035531711858756 0.000407078493317042 0.000180879109077709 -0.00062968536393502
"251" 0.000192464313150865 4.50780481745542e-06 -7.66063790926685e-05 1.2424761273133e-05 0.000209063039140755 0.000284599121481888 0.000270923631085202 0.000190390538797528 -0.000876707300443897 -0.000568037005837512 0.000256875970500337 0.000141001934626755 0.000341282407487121 0.000377746766273976 0.000187087331285007 -0.000651095379424011
"252" 0.000203861195076976 -1.60923259684102e-07 -7.96380391074422e-05 4.46103208180778e-06 0.000208065372124833 0.000276640529960673 0.000274646965292656 0.000189222349821888 -0.000768846939186478 -0.000459177070382556 0.000258793227777641 0.000127638079373732 0.00032668152168681 0.000348165981443568 0.000189604017783651 -0.000663609681752888
"253" 0.000214439794957155 -5.2510091891037e-06 -8.2551843006815e-05 -4.55774368342924e-06 0.000207500293620708 0.000268731646255215 0.000278180771307597 0.000188024746658294 -0.000670773189641878 -0.00035509154904029 0.000260735070366573 0.000114427805371506 0.000311626891926815 0.000318619403174984 0.000188337416932855 -0.000667161772512786
"254" 0.000224121818851959 -1.07351957940113e-05 -8.53204233925495e-05 -1.45377837259804e-05 0.000207363569519389 0.000260908546331428 0.000281482527633037 0.000186785591838944 -0.000583035555107349 -0.000256507631541637 0.000262624500055525 0.000101446184280974 0.0002962198306148 0.000289392814650279 0.00018323230784117 -0.000661760388883315
"255" 0.000232854854797753 -1.65745513728871e-05 -8.79101118206626e-05 -2.5356826884087e-05 0.000207656687773752 0.000253200392353234 0.000284506392867171 0.00018549090685931 -0.00050603383908796 -0.000164097961378299 0.00026437748652782 8.87751512739913e-05 0.000280571756044052 0.000260765248718021 0.000174283628122592 -0.000647509825443479
"256" 0.000240575076300611 -2.27281411865406e-05 -9.02930009159192e-05 -3.68978299113431e-05 0.000208364433646061 0.000245647409833036 0.000287216455801298 0.0001841300047956 -0.000440037860873873 -7.84920810373735e-05 0.000265911852438718 7.64821130535605e-05 0.00026478960246372 0.000233004042577791 0.000161520778196787 -0.000624600010053324
"257" 0.000247231134549515 -2.91585264041919e-05 -9.24450888330513e-05 -4.90393366567589e-05 0.000209470834048521 0.0002382633302576 0.000289568205263753 0.000182681124779919 -0.000385196382620282 -2.14772090950593e-07 0.000267136185329526 6.46312491282413e-05 0.000248969387819604 0.000206367120428204 0.000145020304795362 -0.000593285782314222
"258" 0.000252780408230218 -3.58196336623484e-05 -9.43398278640882e-05 -6.16492620288302e-05 0.000210956097877484 0.000231081857346442 0.000291529540064322 0.000181136282007327 -0.000341521786574816 7.02409259099748e-05 0.000267960196997781 5.32817471501218e-05 0.000233212237125219 0.000181099671737437 0.000124906686098348 -0.000553911266771367
"259" 0.000257184867376479 -4.266742592727e-05 -9.59619225526401e-05 -7.45917524056469e-05 0.000212794214986321 0.000224112465083401 0.00029305842812216 0.000179471771272367 -0.000308919850903816 0.000132478281198665 0.000268296039420665 4.24864451519985e-05 0.000217610609471853 0.000157432386016753 0.000101340732928357 -0.000506874472643595
"260" 0.000260412484587308 -4.96600825772335e-05 -9.72975897007838e-05 -8.77392325717435e-05 0.000214943698957961 0.000217365497061642 0.000294125195663633 0.000177665296541731 -0.000287185308076437 0.000186178857784405 0.00026805103512426 3.22851468400332e-05 0.000202250483443299 0.000135573404594419 7.45298245474029e-05 -0.000452640422619934
"261" 0.00026244344399146 -5.67388192559793e-05 -9.83296915011014e-05 -0.000100943264233589 0.000217376842962999 0.000210857626233841 0.000294703727749498 0.000175708296326474 -0.000275975678627464 0.000231070002333614 0.000267138936179203 2.27247683045513e-05 0.00018722179214203 0.0001157196783684 4.47243840274289e-05 -0.000391735984612871
"262" 0.000263262146124486 -6.38716143279433e-05 -9.90515901410496e-05 -0.000114085389578018 0.000220043037789847 0.000204583780214761 0.000294766671825711 0.000173575238591565 -0.000274886809986382 0.000266985290632409 0.000265477163071472 1.3832294765686e-05 0.000172591717675596 9.8036536184857e-05 1.2197472981511e-05 -0.000324724178928171
"263" 0.000262860972930075 -7.0998670383472e-05 -9.94575407752746e-05 -0.000127024630197545 0.000222896517405307 0.000198545979286907 0.000294287861102969 0.000171249188174828 -0.000283397331578293 0.00029381334616649 0.000262984439489775 5.63205722318131e-06 0.000158437779893175 8.26784274845421e-05 -2.27281858962321e-05 -0.000252222838197048
"264" 0.000261244265964231 -7.80801912758308e-05 -9.95493647095442e-05 -0.000139630203014557 0.000225891037381954 0.000192735789511632 0.00029325823397866 0.000168714702685715 -0.000300895778017388 0.00031152810134074 0.000259583732159235 -1.85417247841926e-06 0.000144818476387022 6.97641219207749e-05 -5.9705284699602e-05 -0.000174886469152324
"265" 0.00025842055287805 -8.50685256659505e-05 -9.93266049529357e-05 -0.00015178506747069 0.000228961080285631 0.000187140585052858 0.0002916596489406 0.000165953784641046 -0.000326711521162016 0.000320176563634872 0.000255208951543188 -8.61630376485889e-06 0.000131790079923849 5.93965162144952e-05 -9.83616936108966e-05 -9.33943537801524e-05
"266" 0.000254410811814922 -9.19149899705477e-05 -9.87980678060209e-05 -0.000163362922608182 0.000232061516648153 0.000181753515125505 0.000289489266486908 0.000162953358137894 -0.000360088565485149 0.00031987624431928 0.000249797849989032 -1.4647720427559e-05 0.000119404485045264 5.16501298606592e-05 -0.000138297818349356 -8.45852837863868e-06
"267" 0.000249242883284868 -9.85819507345029e-05 -9.79679987614945e-05 -0.000174261004914212 0.00023513097102731 0.000176552509869098 0.000286744918803716 0.000159703067461331 -0.000400217269497006 0.00031081694939508 0.000243300189814795 -1.99482531937605e-05 0.000107698696512448 4.65707322591388e-05 -0.000179103222446287 7.9190223875947e-05
"268" 0.000242950304796045 -0.000105026756961681 -9.68576917352054e-05 -0.000184370247593469 0.000238104754271063 0.000171515542336138 0.000283423588638618 0.000156187674042965 -0.000446242757496626 0.000293266039604816 0.00023567378461856 -2.45239790619858e-05 9.67060981446744e-05 4.41848283116034e-05 -0.000220345636628764 0.000168807029452558
"269" 0.00023558029082101 -0.00011120564145339 -9.54758752837932e-05 -0.000193595202994095 0.000240935524087834 0.000166625754616086 0.000279542817558488 0.000152406439715984 -0.000497246960756488 0.000267537590120135 0.000226885428968268 -2.83855288303776e-05 8.6455066865179e-05 4.44850718540087e-05 -0.000261587801426511 0.000259631775042729
"270" 0.000227185858131338 -0.000117088486991038 -9.38452120243952e-05 -0.000201856754009652 0.000243554478576743 0.000161849537035886 0.000275108837177789 0.000148348160891184 -0.000552307368803268 0.00023403183758841 0.000216915794814627 -3.15520995414847e-05 7.69642385893624e-05 4.74377805181486e-05 -0.000302391875437764 0.000350901954052046
"271" 0.000217824865800829 -0.000122635979243698 -9.19846077631073e-05 -0.000209074122527033 0.000245910509320814 0.000157167263495834 0.00027014963657311 0.000144017009699642 -0.000610441171197945 0.000193188998186001 0.000205759374569659 -3.40358998048403e-05 6.8242965826714e-05 5.29896914251743e-05 -0.000342316987851675 0.000441853620120348
"272" 0.00020756475447592 -0.000127824608424869 -8.99193175476144e-05 -0.000215190953252166 0.000247948577731594 0.000152549836527605 0.00026468547722192 0.000139413700635497 -0.000670661911976556 0.000145521496008124 0.00019342111738332 -3.5870984254443e-05 6.02953808696713e-05 6.10588189399019e-05 -0.000380935709162054 0.000531728505523103
"273" 0.000196476269160702 -0.000132626243888655 -8.76782695811919e-05 -0.000220149292461857 0.000249614123847203 0.000147965832967469 0.00025874436852351 0.000134540934669024 -0.000731977509367091 9.15821149699951e-05 0.000179917902187668 -3.70785792090451e-05 5.31196951231053e-05 7.15375167632792e-05 -0.000417830870261863 0.000619776088858088
"274" 0.000184647597459323 -0.000137012835485628 -8.52808639120482e-05 -0.000223913101380834 0.000250860640531927 0.000143390486262186 0.000252367594759455 0.000129412640478945 -0.000793373646625565 3.19611836080475e-05 0.00016528678473698 -3.76913794920516e-05 4.67135694190752e-05 8.42954372104149e-05 -0.0004526047916634 0.000705260908345642
"275" 0.000172155731002455 -0.000140972819423335 -8.27607747439669e-05 -0.000226455939423171 0.000251644827275294 0.000138795417356302 0.000245593924111208 0.000124036688166658 -0.000853862257705764 -3.26832623528813e-05 0.000149572712100984 -3.77420792315507e-05 4.10545851966117e-05 9.91824793349642e-05 -0.000484879958318935 0.000787471135646041
"276" 0.000159093618709164 -0.000144491671927075 -8.01466262216412e-05 -0.000227764971575432 0.000251925715909898 0.000134154297689778 0.000238467147278471 0.000118432825061449 -0.000912465536384027 -0.00010167816933347 0.000132839160733195 -3.72694278736732e-05 3.61273626934916e-05 0.000116029729779483 -0.000514310547314748 0.000865716977761131
"277" 0.000145558047165924 -0.000147559260794057 -7.74663724673258e-05 -0.00022784210329605 0.000251664534201549 0.000129439875126373 0.000231032238523918 0.000112618520314005 -0.000968225405451199 -0.00017432089189673 0.000115161896590597 -3.63100520205177e-05 3.19064046764976e-05 0.000134641614597391 -0.000540580421762886 0.000939339678466089
"278" 0.000131645495633347 -0.000150170027516954 -7.47487205033218e-05 -0.00022669122585305 0.000250843362262657 0.000124632617493099 0.000223353225692007 0.000106622245596434 -0.00102019449526923 -0.000249892529693421 9.66273356208611e-05 -3.48991804672493e-05 2.83647358482046e-05 0.000154808367503003 -0.000563412996876952 0.00100771518544002
"279" 0.000117452610836462 -0.00015232484735768 -7.20274146363093e-05 -0.000224346807454768 0.000249431203999758 0.000119706889468661 0.000215473394009002 0.000100466547643309 -0.0010674971431474 -0.000327629570448656 7.73426914688172e-05 -3.30824499169138e-05 2.54681053772668e-05 0.000176314822274862 -0.000582565233174969 0.00107026881062983
"280" 0.00010309064956268 -0.000154024223757986 -6.9325310137944e-05 -0.000220832678674972 0.000247419703982728 0.000114654272428655 0.000207465852234553 9.41872214975112e-05 -0.0011092653163684 -0.000406797791788349 5.74249803359151e-05 -3.08921311111122e-05 2.31809289731042e-05 0.000198921436619544 -0.000597837528802055 0.00112646100390131
"281" 8.86569614343037e-05 -0.000155281831922458 -6.66707070326196e-05 -0.000216203677836012 0.000244798898451717 0.000109452330517591 0.000199385077139422 8.78139050793537e-05 -0.00114471816214394 -0.00048662712628254 3.70020298452046e-05 -2.83738620453889e-05 2.14604217950127e-05 0.000222387917284681 -0.000609081792730872 0.00117581505278937
"282" 7.42591220375009e-05 -0.000156110588039199 -6.40886193182454e-05 -0.000210525534312422 0.00024156713400048 0.000104093617633048 0.000191297488071127 8.13897557569845e-05 -0.00117310580408896 -0.000566381931762099 1.6210936397634e-05 -2.55649274135575e-05 2.0267658427239e-05 0.000246462404621852 -0.00061618851527988 0.0012179034692921
"283" 5.99994040230798e-05 -0.000156522570490138 -6.16044166818774e-05 -0.000203857540373097 0.000237730670830212 9.85724336473074e-05 0.000183270671513671 7.49521905487394e-05 -0.00119375327740873 -0.000645320623795883 -4.80055081367814e-06 -2.25040408623996e-05 1.95609885591137e-05 0.000270884919206691 -0.000619101523446142 0.00125236068325247
"284" 4.59828628765635e-05 -0.000156542182357992 -5.92414560213361e-05 -0.000196282650229705 0.000233304465579707 9.2886041407944e-05 0.00017536782195342 6.85426478010042e-05 -0.00120606186839002 -0.000722722907009336 -2.58698660493358e-05 -1.92262606496953e-05 1.92932719398919e-05 0.000295401019989596 -0.000617807264120556 0.00127889384358863
"285" 3.23059863606426e-05 -0.000156191974126911 -5.70116135005455e-05 -0.000187888656939929 0.000228312178414231 8.70355608186483e-05 0.000167662428083062 6.22113133150804e-05 -0.00120950961906914 -0.000797906096474539 -4.68394524105955e-05 -1.57704524821679e-05 1.94229159871956e-05 0.000319753531417411 -0.00061234497308586 0.00129726608989842
"286" 1.90676200616971e-05 -0.000155506753290878 -5.49385819774667e-05 -0.00017877471198186 0.000222777002448511 8.10275106732844e-05 0.000160215019627256 5.5997177463191e-05 -0.00120364626126368 -0.000870207390009573 -6.75390443833606e-05 -1.21702993451712e-05 1.99005033537376e-05 0.000343686766383477 -0.000602803544446564 0.00130732946187065
"287" 6.36277174146854e-06 -0.000154512073396298 -5.303330396835e-05 -0.000169041679742186 0.000216743937294249 7.48693797967499e-05 0.00015309753834321 4.99546859878626e-05 -0.00118810909560442 -0.000939028783009407 -8.7796022121188e-05 -8.4564090141751e-06 2.0681037178824e-05 0.000366948304200147 -0.000589313425932746 0.00130899070763049
"288" -5.71978663735295e-06 -0.000153243630261128 -5.13065995817092e-05 -0.000158802574309138 0.000210244431030133 6.85778483158428e-05 0.000146370143473593 4.412852068334e-05 -0.00116263503037612 -0.0010037903211706 -0.000107442047234751 -4.66333202306198e-06 2.17182283158033e-05 0.000389304382537518 -0.000572055541969559 0.00130225035172049
"289" -1.71010182761272e-05 -0.000151743220091652 -4.97683109036237e-05 -0.000148169595472602 0.00020333619158332 6.21724828798758e-05 0.000140099215332554 3.85696514911441e-05 -0.00112703998464712 -0.00106398731626112 -0.000126299964095679 -8.16827841793321e-07 2.2969856636506e-05 0.000410517541088263 -0.000551251621153149 0.00128716990276297
"290" -2.76944386642842e-05 -0.00015004358174935 -4.84231133311716e-05 -0.000137260494399167 0.000196067275956308 5.56724434464294e-05 0.000134339868871263 3.33237300812268e-05 -0.00108125181104955 -0.00111914992115303 -0.000144205195991819 3.05506327837037e-06 2.43917402480986e-05 0.000430380526035627 -0.00052716224909272 0.00126389872036562
"291" -3.74363218238931e-05 -0.000148187785802108 -4.72682808780901e-05 -0.000126191258907014 0.000188504255824172 4.91062650497275e-05 0.000129152847591495 2.84429891419636e-05 -0.00102528219457961 -0.00116889767541424 -0.000160990117998628 6.92753953682849e-06 2.59447799642963e-05 0.000448684432734133 -0.00050008189385973 0.00123265601975968
"292" -4.62563662870144e-05 -0.0001462179219462 -4.63093837701748e-05 -0.000115084276480769 0.000180706745732576 4.25041818164782e-05 0.000124585907896228 2.39701983708396e-05 -0.00095924195865979 -0.00121289665814147 -0.000176497293355902 1.07795624431463e-05 2.75901006885086e-05 0.000465246720128871 -0.000470346215421837 0.00119372705830603
"293" -5.4103508547238e-05 -0.000144178685403229 -4.55410648858726e-05 -0.000104066300401915 0.000172743198844177 3.58936011543064e-05 0.000120683340233716 1.99497617472434e-05 -0.000883360858305469 -0.00125088168846714 -0.000190579769184443 1.45905214123823e-05 2.92878983761265e-05 0.000479899205133566 -0.000438309360132798 0.00114747875908183
"294" -6.09275897468858e-05 -0.000142115098096299 -4.49546210840205e-05 -9.3255259667267e-05 0.00016468885949954 2.93109273712901e-05 0.000117493343458793 1.64264134646484e-05 -0.000797937432957381 -0.00128266986335597 -0.000203098225027128 1.83408819912648e-05 3.10021570862728e-05 0.000492496290327985 -0.000404359576206513 0.00109432759638352
"295" -6.66879352837414e-05 -0.000140063403795835 -4.45395617511185e-05 -8.27611222903161e-05 0.000156619430265012 2.27966570217602e-05 0.000115045336198482 1.34359119163216e-05 -0.000703381166022913 -0.00130813949605545 -0.000213925839486325 2.20160589954287e-05 3.27043386271734e-05 0.000502912143025335 -0.000368895241134522 0.00103475841556541
"296" -7.13529524634881e-05 -0.000138067847520987 -4.42856521301059e-05 -7.27023972825247e-05 0.000148609437814516 1.63896820687106e-05 0.000113373852840263 1.10159593244174e-05 -0.00060020109593141 -0.00132725405614472 -0.000222946668109415 2.56001920200844e-05 3.43647301403819e-05 0.000511044356667418 -0.000332327494710522 0.000969305479756943
"297" -7.4906519037277e-05 -0.000136173193550452 -4.41767440486007e-05 -6.31866546027508e-05 0.000140736448814483 1.01235946956451e-05 0.000112497689631616 9.19298816841048e-06 -0.000488989872653641 -0.00134003930392357 -0.000230061558973973 2.90819144093105e-05 3.59513386434785e-05 0.000516814511371181 -0.000295088880792522 0.000898547716375332
"298" -7.73309060927554e-05 -0.00013441922829307 -4.42005252887705e-05 -5.4318258690928e-05 0.000133075416170895 4.04281557909012e-06 0.000112427273890995 7.99455031494745e-06 -0.000370434333782746 -0.0013465879231325 -0.00023519317793574 3.24483581645189e-05 3.74409195578106e-05 0.00052016349451227 -0.000257602904047633 0.000823106089786352
"299" -7.86241410011428e-05 -0.000132840033229065 -4.43344948811822e-05 -4.61873333181912e-05 0.000125707946357485 -1.81049288384053e-06 0.000113174856577196 7.4457284373527e-06 -0.000245293253054455 -0.00134707862655431 -0.000238273789254412 3.56932135046081e-05 3.88154659293159e-05 0.000521059491478491 -0.000220298184142664 0.00074362517303572
"300" -7.87956656698689e-05 -0.000131472162190078 -4.456046861329e-05 -3.88856070562875e-05 0.000118708615372597 -7.40112184715416e-06 0.00011473725916749 7.55513759850742e-06 -0.000114426875055529 -0.00134173362998146 -0.000239258735812366 3.88069982918822e-05 4.00530447931936e-05 0.000519496023565371 -0.00018359392204969 0.000660777451813224
"301" -7.78617840568292e-05 -0.000130354013725883 -4.48583988733026e-05 -3.24942064213869e-05 0.00011214452403315 -1.26927568058154e-05 0.000117099136148448 8.33137518963607e-06 2.12443661956508e-05 -0.00133084400319103 -0.000238120747516979 4.17795561943716e-05 4.11358071324648e-05 0.000515481641222199 -0.000147899314313465 0.000575248675699442
"302" -7.58466554400506e-05 -0.000129508662468826 -4.52050992765635e-05 -2.70743897778045e-05 0.000106088361101314 -1.76422445185369e-05 0.00012024996655977 9.78145940166661e-06 0.00016074489090028 -0.00131476902744713 -0.000234854451840875 4.46082705285503e-05 4.20494854863958e-05 0.000509055627464284 -0.000113607700509879 0.000487724963127885
"303" -7.27845230763496e-05 -0.000128961792833088 -4.55722199011766e-05 -2.26895744051583e-05 0.000100609172906287 -2.22151280212984e-05 0.000124164304725515 1.19019205609032e-05 0.000303027863648331 -0.0012939096371357 -0.000229469872862192 4.72873509405942e-05 4.27837675553989e-05 0.000500277729709089 -8.10828957471366e-05 0.000398887734179263
"304" -6.87218111861324e-05 -0.000128738238988588 -4.59465352351496e-05 -1.93828885587152e-05 9.57641618898527e-05 -2.63858148391919e-05 0.000128804713924611 1.46784550442852e-05 0.000447001830668002 -0.00126870594532058 -0.000222000954921593 4.98141325280491e-05 4.33267032686747e-05 0.000489219332041922 -5.06731925392383e-05 0.000309409827038286
"305" -6.37072657876694e-05 -0.000128857843145028 -4.63007377278884e-05 -1.71966976305921e-05 9.16030511805241e-05 -3.01243579463107e-05 0.000134122815658761 1.80918193325468e-05 0.00059152991648974 -0.00123963105918613 -0.000212497323661706 5.21830211223329e-05 4.36728812213237e-05 0.000475985681332181 -2.26909065997383e-05 0.000219949959143344
"306" -5.7803853421999e-05 -0.000129335183394709 -4.66121041346827e-05 -1.61569907719792e-05 8.81799116836436e-05 -3.34067610910929e-05 0.000140074487773644 2.21206678790713e-05 0.000735465342276312 -0.00120721564603235 -0.000201036178315521 5.43901331075479e-05 4.38110723121048e-05 0.000460687971103229 2.58472322403696e-06 0.000131128915295775
"307" -5.10762074934029e-05 -0.000130174145913074 -4.6857227111327e-05 -1.62669097169382e-05 8.55329753212967e-05 -3.62099805217228e-05 0.000146599522349492 2.67299511928899e-05 0.000877637461403808 -0.00117199812958193 -0.000187705650305286 5.64333390880183e-05 4.37401284540906e-05 0.000443457773882264 2.49136662645791e-05 4.35425811424143e-05
"308" -4.36037931650737e-05 -0.000131389456224774 -4.70183425276979e-05 -1.75405541429615e-05 8.36950352822637e-05 -3.85277142155544e-05 0.000153628576489289 3.18794319669266e-05 0.00101686657694182 -0.00113452228706316 -0.000172616100346529 5.83101235529033e-05 4.34564844159973e-05 0.000424445484751742 4.40908525910996e-05 -4.22466390862665e-05
"309" -3.54621750470284e-05 -0.000132972199656076 -4.70731208472692e-05 -1.99557592385052e-05 8.26882009132034e-05 -4.03458579167221e-05 0.000161094300107351 3.75259486035548e-05 0.00115200525945264 -0.0010953716701838 -0.000155893647193247 6.00164724266162e-05 4.29518904057909e-05 0.000403804854650644 5.99618513745153e-05 -0.000125733166958992
"310" -2.67441714823222e-05 -0.000134923099681251 -4.70075514810747e-05 -2.34947572814114e-05 8.25365023544481e-05 -4.16597740931124e-05 0.000168915389578598 4.36142566068451e-05 0.00128192456219414 -0.00105510680575868 -0.000137683052664461 6.15510665183143e-05 4.22324344417557e-05 0.000381709374134548 7.24061374031302e-05 -0.000206447854969148
"311" -1.75333574725356e-05 -0.000137235244352853 -4.68023122991157e-05 -2.81276366721247e-05 8.32368150148257e-05 -4.24772140220686e-05 0.000177002231078258 5.0086551702083e-05 0.00140553045896983 -0.00101429106513912 -0.000118144786199276 6.29130446558062e-05 4.12914049049075e-05 0.000358334979748192 8.13491730442174e-05 -0.000283977331502294
"312" -7.92917533129399e-06 -0.000139891278890174 -4.64433872133678e-05 -3.37995025061402e-05 8.47958561477347e-05 -4.28045323141804e-05 0.000185274070791604 5.68771581698399e-05 0.00152180182343378 -0.000973487886950898 -9.74473420533429e-05 6.40974371814806e-05 4.01323206481143e-05 0.00033386799783342 8.67679700420794e-05 -0.000357957089018557
"313" 1.97039454463172e-06 -0.000142880393394365 -4.59207592306798e-05 -4.04703018729081e-05 8.71978751623429e-05 -4.26579458901585e-05 0.000193635685796383 6.39177046055344e-05 0.00162976377810512 -0.000933225576956197 -7.57811090902159e-05 6.51019133205947e-05 3.8751174813331e-05 0.000308502682459891 8.86777201422537e-05 -0.000428074489318412
"314" 1.20639078704438e-05 -0.000146174550772581 -4.52230668350776e-05 -4.80567004144371e-05 9.04216488060679e-05 -4.20545937838629e-05 0.000201986692438948 7.11330707307796e-05 0.00172854172555366 -0.000894021800560919 -5.33353094373511e-05 6.59260352050623e-05 3.71481289044809e-05 0.00028243041082792 8.71405601468232e-05 -0.000494079655509002
"315" 2.22492520513267e-05 -0.000149751513356073 -4.43486963867783e-05 -5.64952404454608e-05 9.44412165227958e-05 -4.10307385571112e-05 0.000210232942168681 7.84451748075975e-05 0.00181734304252675 -0.000856351867230627 -3.03203898191392e-05 6.65641917755411e-05 3.5325316671938e-05 0.000255843162700595 8.22609200555678e-05 -0.000555766265434213
"316" 3.2427405598436e-05 -0.000153582519155592 -4.32923190230528e-05 -6.5703292337239e-05 9.92054077454267e-05 -3.96168136668786e-05 0.000218265174423959 8.57659574562066e-05 0.00189548157274264 -0.000820651776357912 -6.94821305310897e-06 6.70160452571854e-05 3.32768967704096e-05 0.00022893777325003 7.417871009897e-05 -0.000612980972249713
"317" 4.24918366686311e-05 -0.000157631471408954 -4.20499548095482e-05 -7.55839814729848e-05 0.000104678340076329 -3.78530787178627e-05 0.000225995814880955 9.30203999382311e-05 0.0019624031858269 -0.000787342040413037 1.65654673557402e-05 6.72773571005869e-05 3.10039440244033e-05 0.00020190272697328 6.30777880042712e-05 -0.000665630819875821
"318" 5.23462639569192e-05 -0.000161864093590259 -4.06303475932098e-05 -8.60408625878784e-05 0.000110791990932422 -3.57866886626653e-05 0.000233316961703315 0.000100111566446566 0.00201765037508199 -0.000756757539959928 4.00004668315894e-05 6.73476824750663e-05 2.850792057335e-05 0.000174927590370423 4.91769221778387e-05 -0.000713660086460885
"319" 6.18889391195797e-05 -0.000166242647371228 -3.90341259686508e-05 -9.69751357517605e-05 0.000117487368637387 -3.34694548795925e-05 0.000240133723769128 0.000106961419650949 0.00206092764725869 -0.000729216143985872 6.31301648408739e-05 6.72224077107226e-05 2.57813764076802e-05 0.000148185855385457 3.27225959791499e-05 -0.000757069584098733
"320" 7.10268471631033e-05 -0.000170721858569875 -3.7272989400104e-05 -0.000108273570738774 0.000124688533782648 -3.09557256229952e-05 0.000246349780458169 0.00011347916768271 0.0020920333071221 -0.000704960295873208 8.57346821716505e-05 6.6901794685998e-05 2.28283610412783e-05 0.000121856591965147 1.40011061763337e-05 -0.000795889071068635
"321" 7.96688166417032e-05 -0.00017526378735406 -3.53593267655098e-05 -0.000119827039591112 0.000132308671491973 -2.83153420858612e-05 0.000251870955513422 0.000119573305311444 0.00211091500643462 -0.000684174506336701 0.000107593551344164 6.63804950791649e-05 1.96401594133602e-05 9.61021352175457e-05 -6.69215373900874e-06 -0.000830195849986877
"322" 8.77288876949669e-05 -0.000179817035048003 -3.33043186755652e-05 -0.000131520153433134 0.000140266322561681 -2.56052620883724e-05 0.000256612290374008 0.000125165878041097 0.00211766857662066 -0.00066700325969524 0.000128495329269292 6.56596788730279e-05 1.62165062520167e-05 7.10709582528017e-05 -2.9022068628686e-05 -0.000860105009836836
"323" 9.51236726537123e-05 -0.000184346036151417 -3.11309153733848e-05 -0.00014324217798573 0.000148460316456371 -2.29037360183134e-05 0.000260489220435872 0.000130167577365971 0.00211249680422761 -0.000653500907050093 0.000148228176812274 6.47357940547851e-05 1.2550553144709e-05 4.69092746999672e-05 -5.26498987408592e-05 -0.000885755718191507
"324" 0.000101784005852783 -0.000188796049120305 -2.88535805783495e-05 -0.00015487297332239 0.000156796769073959 -2.02759582790787e-05 0.000263425613157088 0.000134504154127324 0.00209573805642844 -0.000643676416624839 0.000166598894279182 6.36064777064121e-05 8.63749193321505e-06 2.37454687112528e-05 -7.72178591893686e-05 -0.000907318784577995
"325" 0.000107637787075498 -0.00019312431824588 -2.65045739076923e-05 -0.000166297951045242 0.000165169864649338 -1.78037714821586e-05 0.000265352037367697 0.000138096111484571 0.00206785085024817 -0.000637473799829537 0.000183416219267514 6.22753165236243e-05 4.47419531415207e-06 1.69234376493182e-06 -0.000102366691431035 -0.00092498995090882
"326" 0.000112633266256128 -0.000197280753974173 -2.40959674537519e-05 -0.000177402916285149 0.000173476606771032 -1.55542068471285e-05 0.000266208329626513 0.000140876693584502 0.00202940281138479 -0.000634768987901032 0.000198511647192494 6.07425794598136e-05 5.45952331931112e-08 -1.91397632425402e-05 -0.000127721922053118 -0.00093898099630781
"327" 0.000116709861660789 -0.000201221928515736 -2.16622838260198e-05 -0.000188082134305092 0.000181608928846923 -1.36077194312283e-05 0.000265940755824092 0.000142782081332556 0.00198105213295828 -0.000635384464102327 0.000211720738306297 5.90050748999202e-05 -4.62751698885927e-06 -3.8668855473491e-05 -0.000152928806411798 -0.000949518607967046
"328" 0.000119833165161213 -0.000204907999693144 -1.9228905251771e-05 -0.000198226382504014 0.000189450510309282 -1.20422833844742e-05 0.000264502299858747 0.000143750053761563 0.00192354444649929 -0.0006390670702826 0.00022290273357596 5.70682258269787e-05 -9.57327278322056e-06 -5.68185102011041e-05 -0.000177620836709193 -0.000956846179162911
"329" 0.000121967817661059 -0.000208292789493121 -1.68284437123235e-05 -0.000207734572407392 0.000196902822102822 -1.09276165313172e-05 0.000261859791216794 0.000143735825938094 0.00185771124558178 -0.000645523656459181 0.000231936613955545 5.49344662060839e-05 -1.47894653793336e-05 -7.3528474729152e-05 -0.000201450596342166 -0.000961211923421308
"330" 0.000123085384425071 -0.000211338388649224 -1.44863112855689e-05 -0.000216515961254621 0.000203845745169675 -1.0342264584132e-05 0.000257982932132995 0.000142688405681301 0.00178441784038148 -0.000654386577038363 0.000238716014186502 5.26069749233234e-05 -2.0280023428921e-05 -8.87501096065304e-05 -0.000224081084726117 -0.000962863961397603
"331" 0.000123173707854098 -0.000214010721838102 -1.22411443413168e-05 -0.000224485659155453 0.000210183351347544 -1.03500483317207e-05 0.000252858929383318 0.000140580759254397 0.00170460157760811 -0.000665251613546179 0.000243161542102181 5.00893680002062e-05 -2.60504466270554e-05 -0.000102458838189946 -0.000245201622583721 -0.000962057997467887
"332" 0.000122227298438022 -0.000216269352456067 -1.01171704241516e-05 -0.000231548949540056 0.000215806261754752 -1.10197357152721e-05 0.000246484619090949 0.000137382325116882 0.00161921738763664 -0.000677669991557742 0.000245209235583441 4.73901836202331e-05 -3.20987437324858e-05 -0.000114630032764519 -0.000264502835080138 -0.000959049994168629
"333" 0.000120250248279159 -0.000218094533973197 -8.1521630606287e-06 -0.000237654587409349 0.000220621991109351 -1.24125165942311e-05 0.000238855868454681 0.000133076157435587 0.0015292260185128 -0.000691131233066569 0.000244824219718574 4.45149186219679e-05 -3.84261931105978e-05 -0.000125262928889366 -0.000281723931723238 -0.000954081148371813
"334" 0.000117257593874459 -0.000219454447985415 -6.37042904729392e-06 -0.000242722592768093 0.000224533939213209 -1.45803343165225e-05 0.000229997549468442 0.000127657264409487 0.00143560416019483 -0.000705116503653044 0.000241994643417005 4.14718193650527e-05 -4.50330395921472e-05 -0.000134364136047764 -0.000296613903405984 -0.000947393807628605
"335" 0.000113273511562435 -0.000220326311900032 -4.80298888354304e-06 -0.000246712787037828 0.000227460262466789 -1.75738171651971e-05 0.000219928774710502 0.000121127668511783 0.00133931456934362 -0.000719055695521726 0.000236726727525791 3.82706132415858e-05 -5.19166273923723e-05 -0.000141957062515831 -0.000308953781629519 -0.000939215596403613
"336" 0.000108319773411491 -0.00022069788351163 -3.47942518613544e-06 -0.000249575807021384 0.000229323908423327 -2.14360262182967e-05 0.000208686654792016 0.000113496296658201 0.00124128553056346 -0.000732370964293174 0.00022905733757691 3.49242336690495e-05 -5.90702676634821e-05 -0.000148074675676404 -0.000318560087882054 -0.000929763384561531
"337" 0.000102447299655141 -0.000220551976936463 -2.4241007293821e-06 -0.000251284018412282 0.000230055431226093 -2.61985766837194e-05 0.000196316482620946 0.000104784561427083 0.00114241531202794 -0.000744452657244047 0.00021904566483864 3.14444442579178e-05 -6.64873830209497e-05 -0.000152757719033918 -0.00032527895429064 -0.000919239263737232
"338" 9.57022487616001e-05 -0.000219884437174044 -1.66401394505235e-06 -0.000251809748642431 0.000229591189724438 -3.18919472540421e-05 0.000182868700299035 9.50244256202643e-05 0.00104355672022233 -0.000754701460344888 0.000206775064255382 2.7841357537489e-05 -7.41601945312672e-05 -0.000156062571161157 -0.000328994508813041 -0.000907827893271947
"339" 8.81356587081456e-05 -0.000218696777331184 -1.22117924995114e-06 -0.000251153064078292 0.000227882478144548 -3.85297548760242e-05 0.00016840903223049 8.4250926366535e-05 0.00094550088695476 -0.000762511927388674 0.000192346179747536 2.41330573607025e-05 -8.20774766145559e-05 -0.000158051462459412 -0.000329619932823931 -0.000895703485279881
"340" 7.98137626587769e-05 -0.000216982300920769 -1.11149728997479e-06 -0.000249302332990571 0.000224887955003039 -4.61231666312728e-05 0.000153009638008943 7.25158525419831e-05 0.000848974920940485 -0.000767280869774056 0.00017589115633048 2.03361897411477e-05 -9.02192662134333e-05 -0.000158793879626034 -0.000327105284442595 -0.000883014651494515
"341" 7.08025203979747e-05 -0.00021475738960752 -1.35078967759993e-06 -0.000246279527881949 0.000220586398052569 -5.46724435533194e-05 0.000136748660936485 5.9876695647906e-05 0.000754636078224586 -0.000768433975410519 0.000157557410786381 1.6465625074852e-05 -9.85740908453977e-05 -0.000158370504867204 -0.00032144084959905 -0.000869899720049268
"342" 6.11788954612518e-05 -0.000212034677720169 -1.9533961827892e-06 -0.000242102398316677 0.0002149546596003 -6.41676908868066e-05 0.000119713948632299 4.63965593870643e-05 0.00066306791976841 -0.000765421001807945 0.000137507098954516 1.25393636795263e-05 -0.00010712098261942 -0.00015686870318856 -0.000312648479623362 -0.000856474713459083
"343" 5.10230453788642e-05 -0.000208826576212335 -2.92689811415245e-06 -0.000236803243478456 0.000207992564599322 -7.45835033369612e-05 0.000102000952584054 3.21538105801615e-05 0.000574771680642032 -0.000757722527639101 0.000115930301097274 8.5795820433082e-06 -0.00011583244475085 -0.000154377129268804 -0.000300784132334617 -0.000842841344588992
"344" 4.0415744126267e-05 -0.000205160266497932 -4.27924716191016e-06 -0.000230425747967032 0.000199707244205042 -8.58974457353114e-05 8.37082698054419e-05 1.72228089041972e-05 0.000490166924765246 -0.000744859333971782 9.3026893184994e-05 4.60467979751743e-06 -0.000124685502791526 -0.000150991445298765 -0.000285934385295465 -0.000829077137202991
"345" 2.94470506782871e-05 -0.000201064326478432 -6.00787747320511e-06 -0.000223023264916037 0.000190115859673393 -9.80690078676369e-05 6.49388685656028e-05 1.69058702185643e-06 0.000409580691202772 -0.000726406294829105 6.90065320174294e-05 6.32763474499854e-07 -0.0001336508548584 -0.000146809200384861 -0.000268225039298597 -0.000815243544435446
