"V1" "V2" "V4" "V5" "V7" "V8" "V10" "V11" "V13" "V14" "V15" "V17" "V18" "V20" "V21" "V23"
"1" -3.33316809205112e-05 0.000106355300573007 -8.08012520936676e-05 0.000133282163792026 0.000108935059271671 5.51238645234171e-05 1.9537289132483e-05 -3.01201713659108e-05 -6.43652695253523e-05 4.45690798976962e-05 -0.000128874400306818 1.19684726284934e-05 4.55070350009141e-05 -0.00011436360061275 -0.000102880618820309 -1.02964872800437e-07
"2" -3.7027420918688e-05 0.000105266134004824 -8.65146020764359e-05 0.000130541194295744 0.000102816956517537 4.91279452175998e-05 1.46176118581405e-05 -3.44897616551955e-05 -6.77722601577737e-05 3.84207888767303e-05 -0.000128174578706974 8.80014945447488e-06 3.98645055743318e-05 -0.00011680338043253 -0.000105813204884394 -1.39858379237258e-06
"3" -3.99358363534657e-05 0.000104106900778613 -9.10994903902604e-05 0.000127647459133281 9.66186763848278e-05 4.35207229137497e-05 9.72863321593811e-06 -3.83364266320622e-05 -7.15717869079625e-05 3.21054193542849e-05 -0.000126988496895646 6.20051921242554e-06 3.42608641466386e-05 -0.000118640730334664 -0.000108264153559932 -2.41999209386321e-06
"4" -4.20281387949662e-05 0.000102885991928317 -9.44955778776615e-05 0.000124628351068301 9.04058638576835e-05 3.83501490623598e-05 4.93464259272763e-06 -4.15980082409677e-05 -7.57032061909683e-05 2.56827405094687e-05 -0.000125307107657942 4.2171727256485e-06 2.87595389064459e-05 -0.000119852311741924 -0.000110181703740171 -3.14020427139036e-06
"5" -4.32751747400518e-05 0.000101614788515234 -9.66639149514933e-05 0.000121515579122285 8.42475906391933e-05 3.36602500765159e-05 2.90139924473382e-07 -4.42224283458297e-05 -8.0113017916832e-05 1.92122839574078e-05 -0.000123124237888496 2.88969250299029e-06 2.34213984129248e-05 -0.000120422956547104 -0.000111526751949293 -3.53457326086305e-06
"6" -4.36623414952783e-05 0.000100304904527841 -9.75601893549573e-05 0.000118338979117073 7.82116867074622e-05 2.94892333423066e-05 -4.13758274198461e-06 -4.61533648725772e-05 -8.47421736446032e-05 1.275782927687e-05 -0.000120441491713212 2.25036675300675e-06 1.83073278634732e-05 -0.000120337430805522 -0.000112265029809756 -3.58875479463426e-06
"7" -4.31706209017678e-05 9.89790229615815e-05 -9.71558110246543e-05 0.000115131516618805 7.23622306359252e-05 2.58710010240883e-05 -8.29057285511848e-06 -4.7334055261546e-05 -8.9529604580424e-05 6.38126959908758e-06 -0.000117259130166136 2.32670227050612e-06 1.34776994926929e-05 -0.000119584961894323 -0.000112362959247559 -3.28408397854177e-06
"8" -4.18058817511398e-05 9.76389923259535e-05 -9.54394441127139e-05 0.000111925654939424 6.67641752464516e-05 2.28259545645161e-05 -1.21155354357141e-05 -4.77280272276509e-05 -9.44214734895212e-05 1.31002713072727e-07 -0.000113593078642483 3.1344034973339e-06 8.98122338016311e-06 -0.000118169564985485 -0.00011179822277484 -2.61037516507926e-06
"9" -3.95713334260237e-05 9.6310273541371e-05 -9.24051913637029e-05 0.000108751773670277 6.1471959437207e-05 2.03756536891107e-05 -1.55562868981241e-05 -4.72926616542898e-05 -9.93576450037856e-05 -5.93845116821154e-06 -0.000109451644583988 4.68596274912073e-06 4.87025137775109e-06 -0.000116090812040395 -0.000110555632740473 -1.56098760516795e-06
"10" -3.64770173600914e-05 9.50035513829312e-05 -8.80510144407354e-05 0.000105643108640113 5.65402387445607e-05 1.85254420057973e-05 -1.85664197224553e-05 -4.59981765296315e-05 -0.000104282968257755 -1.17876292789962e-05 -0.000104862473010569 6.98097876283271e-06 1.17980044961829e-06 -0.000113359945270493 -0.000108623247502665 -1.34046731605849e-07
"11" -3.25517761744411e-05 9.37380553591214e-05 -8.23939874162115e-05 0.000102628570058234 5.20161526263594e-05 1.7280296370179e-05 -2.11009791148386e-05 -4.38203143743343e-05 -0.000109148990819936 -1.73723789400606e-05 -9.98441925483168e-05 1.00157808154105e-05 -2.05206982335887e-06 -0.000109992063937798 -0.000106002015123488 1.66975153703219e-06
"12" -2.7821475030415e-05 9.25244020007833e-05 -7.54648322023037e-05 9.97402142670688e-05 4.79469405221655e-05 1.66323833046972e-05 -2.31209465589329e-05 -4.07423978702311e-05 -0.000113901233665557 -2.26544681635889e-05 -9.44278724311751e-05 1.37812026385696e-05 -4.79294942662482e-06 -0.00010600303057236 -0.000102692607724684 3.85187126994101e-06
"13" -2.23258746213566e-05 9.13819774845978e-05 -6.72927371397739e-05 9.70014441076209e-05 4.43659272499206e-05 1.65729211766156e-05 -2.45912580793867e-05 -3.67526959572918e-05 -0.00011849725318878 -2.76117939915023e-05 -8.86482878307858e-05 1.82536238970782e-05 -7.02364730847506e-06 -0.000101420611255378 -9.87054182829794e-05 6.39767944894408e-06
"14" -1.61058367023238e-05 9.03217188423235e-05 -5.79294611920206e-05 9.44434160692981e-05 4.13060920344178e-05 1.70821953017862e-05 -2.54850046004537e-05 -3.1856895888218e-05 -0.000122890222995959 -3.22118511124903e-05 -8.2537215480784e-05 2.34158215547729e-05 -8.72040330158732e-06 -9.62703824137336e-05 -9.4057994204313e-05 9.30221948285011e-06
"15" -9.2172985133417e-06 8.93623990214003e-05 -4.74267181920123e-05 9.20873559261872e-05 3.87956387111307e-05 1.81359789495713e-05 -2.57810729702262e-05 -2.60598320356654e-05 -0.000127043273145912 -3.64412422108281e-05 -7.61366750930374e-05 2.92299686746962e-05 -9.87704365306906e-06 -9.05892894693189e-05 -8.87738286745573e-05 1.25507981300344e-05
"16" -1.71933706126416e-06 8.85110285654616e-05 -3.58526087616259e-05 8.9952606684423e-05 3.68483683585917e-05 1.96991733699395e-05 -2.5464713634634e-05 -1.93788676628414e-05 -0.000130919411777013 -4.02892526851799e-05 -6.94883941333064e-05 3.56672183679802e-05 -1.04856044301182e-05 -8.44118602119097e-05 -8.28817011507422e-05 1.61238690535548e-05
"17" 6.33257236246365e-06 8.77839005880835e-05 -2.32756655302725e-05 8.80638297337751e-05 3.54798799720504e-05 2.17382347376024e-05 -2.45247185860722e-05 -1.18423392932887e-05 -0.000134493830625678 -4.37483737181229e-05 -6.26385154362007e-05 4.26790179725259e-05 -1.05498480462296e-05 -7.77859079410863e-05 -7.64179003371052e-05 2.00065434970885e-05
"18" 1.48578520043731e-05 8.71842932331495e-05 -9.78762712428791e-06 8.64279675479295e-05 3.46858648179805e-05 2.42074672765663e-05 -2.29634681227087e-05 -3.48572737517177e-06 -0.000137738772928822 -4.6819394013493e-05 -5.56335729614221e-05 5.02203098687443e-05 -1.00779592144149e-05 -7.07526085461093e-05 -6.94220455550951e-05 2.41712444440923e-05
"19" 2.3789378242684e-05 8.67223225734744e-05 4.52920544275365e-06 8.50622341069924e-05 3.44752670251312e-05 2.70580766478245e-05 -2.07860128172298e-05 5.64578293398329e-06 -0.000140633439113185 -4.95101834384312e-05 -4.85215099385033e-05 5.82451341939689e-05 -9.08197893017813e-06 -6.33605917486097e-05 -6.19431659698383e-05 2.85973897977725e-05
"20" 3.30494496612796e-05 8.64052664089449e-05 1.95781667469845e-05 8.39750412838639e-05 3.4837027586531e-05 3.0243295118773e-05 -1.79995644780472e-05 1.55062132105397e-05 -0.000143164966558896 -5.1828523451891e-05 -4.13481799512088e-05 6.66949072870813e-05 -7.58096749691597e-06 -5.5663495900508e-05 -5.40274763766028e-05 3.32610133494773e-05
"21" 4.25498888684993e-05 8.62312973996806e-05 3.52484851710434e-05 8.31648771105321e-05 3.5746879039964e-05 3.37003766313777e-05 -1.46320186490419e-05 2.60274884248493e-05 -0.000145324072699673 -5.37980073343755e-05 -3.41692144146834e-05 7.55177499005413e-05 -5.60194607449245e-06 -4.77177034097245e-05 -4.57323539342202e-05 3.8129638570543e-05
"22" 5.22122574415369e-05 8.62054112099107e-05 5.14364769432759e-05 8.26403076401525e-05 3.71921700564923e-05 3.73803367867685e-05 -1.07011205019734e-05 3.71516543573069e-05 -0.000147103823977678 -5.54322703775293e-05 -2.70285012497843e-05 8.46508772940781e-05 -3.16994734252038e-06 -3.95759498463476e-05 -3.71128612162227e-05 4.31767465228211e-05
"23" 6.19421620364327e-05 8.63177191375716e-05 6.80260351269532e-05 8.23876104597755e-05 3.91353144066183e-05 4.12113159649125e-05 -6.24929889418578e-06 4.87927146152097e-05 -0.00014850816497413 -5.67677625506043e-05 -1.998008663992e-05 9.40321876323769e-05 -3.23380100776597e-07 -3.13022225653393e-05 -2.82314317933836e-05 4.83695892087978e-05
"24" 7.16588397479814e-05 8.65685133749858e-05 8.49030340456137e-05 8.24065699748491e-05 4.15479026164019e-05 4.51392132648573e-05 -1.3053695791477e-06 6.0876163079914e-05 -0.000149542814244985 -5.78269508261815e-05 -1.30691327150875e-05 0.000103601810529074 2.90326023697806e-06 -2.29533617519131e-05 -1.91565764152681e-05 5.367788107503e-05
"25" 8.126257746519e-05 8.69428377276835e-05 0.00010194193638728 8.26781553520706e-05 4.43855077085724e-05 4.90946411151238e-05 4.07729361510321e-06 7.33138479742076e-05 -0.000150217172697185 -5.86534915228643e-05 -6.34347662836524e-06 0.000113299905496283 6.46667121627756e-06 -1.4588959106843e-05 -9.9473057714039e-06 5.90696027655407e-05
"26" 9.06709593797331e-05 8.743460591135e-05 0.000119024583447973 8.31923014836601e-05 4.76059100963723e-05 5.30174766733846e-05 9.85131415232214e-06 8.60128492079684e-05 -0.000150547854464904 -5.92782261555201e-05 1.52663733427372e-07 0.000123056795614053 1.03242140280459e-05 -6.27416002405597e-06 -6.72642346202806e-07 6.45098475052292e-05
"27" 9.97899441590251e-05 8.80242335048065e-05 0.000136022974859542 8.39213293242299e-05 5.11544732332792e-05 5.68410792987053e-05 1.59633104852241e-05 9.88760601356137e-05 -0.000150555788249105 -5.97479724071922e-05 6.37175645713491e-06 0.000132810796053394 1.44265934841687e-05 1.93099455560743e-06 8.59705725415512e-06 6.99675668709429e-05
"28" 0.000108533974503719 8.86991035296657e-05 0.000152820748370325 8.48447364165906e-05 5.49778944332994e-05 6.05016874891314e-05 2.23465875186637e-05 0.000111807646112476 -0.000150260385810533 -6.01011276256293e-05 1.22795958084544e-05 0.000142505519857801 1.87312324440569e-05 9.96796104526454e-06 1.7795829605538e-05 7.54077509584988e-05
"29" 0.000116812383337011 8.9433111458298e-05 0.000169286697019339 8.59322404556831e-05 5.90199360560294e-05 6.39379164777709e-05 2.89401219283992e-05 0.000124697187117594 -0.000149695101605228 -6.0387855329061e-05 1.78367668619942e-05 0.000152075518551567 2.31848038388308e-05 1.77722333210436e-05 2.6857508489711e-05 8.08019048683191e-05
"30" 0.000124537204211957 9.020287677525e-05 0.000185303585980897 8.71497268630311e-05 6.32150461767338e-05 6.70907203069851e-05 3.56745178518302e-05 0.000137445209480485 -0.000148888162267373 -6.06492626612721e-05 2.30068936188936e-05 0.000161463882702821 2.77357027002242e-05 2.5289697235047e-05 3.57131662338282e-05 8.61116448689113e-05
"31" 0.000131635525772674 9.09841510335052e-05 0.000200752570455485 8.84622140459031e-05 6.75005053771003e-05 6.99011885202144e-05 4.24806223708792e-05 0.000149942851070797 -0.000147873963851627 -6.09366711946313e-05 2.77603320543813e-05 0.000170612350579407 3.23349871120135e-05 3.2459130933278e-05 4.42996874418467e-05 9.13079549867187e-05
"32" 0.000138022971580313 9.17498819919784e-05 0.000215524117256093 8.98332477076092e-05 7.1810813769305e-05 7.23186728249118e-05 4.92813075508129e-05 0.000162093281962867 -0.000146690282343361 -6.12919038543463e-05 3.20708106130187e-05 0.000179469747545593 3.69366743905918e-05 3.92295149587053e-05 5.25555076082726e-05 9.63633452470118e-05
"33" 0.00014362316189519 9.24619131125364e-05 0.000229501556282222 9.12159980042068e-05 7.6081246023653e-05 7.42874222725481e-05 5.60011531571214e-05 0.000173779692903225 -0.0001453753467594 -6.17627305955928e-05 3.59179856011056e-05 0.000187988230282302 4.14880399699057e-05 4.55495358215682e-05 6.04212622309429e-05 0.000101246738281882
"34" 0.000148376994254608 9.30994934037719e-05 0.000242589957931523 9.25741894439631e-05 8.02464818273577e-05 7.5765344114222e-05 6.25712329695694e-05 0.000184912040504399 -0.000143967371898142 -6.23939709730035e-05 3.92816862387378e-05 0.000196115738866525 4.59438940821722e-05 5.13693435724627e-05 6.78418744436235e-05 0.000105930460115614
"35" 0.000152214090725784 9.3619248579806e-05 0.000254683159965909 9.38544648141727e-05 8.42345542064157e-05 7.67069827782382e-05 6.89096170046739e-05 0.000195383996611696 -0.000142513005289218 -6.32263916726523e-05 4.21456334569122e-05 0.000203814766863166 5.02592777182221e-05 5.66422819474955e-05 7.47659277269163e-05 0.000110386516364782
"36" 0.000155079711375419 9.39925480645482e-05 0.000265699927149254 9.50174859192952e-05 8.79835508313251e-05 7.70808724093734e-05 7.4941721409998e-05 0.000205104929553309 -0.000141050707744986 -6.43004705718149e-05 4.45048093766953e-05 0.000211042187058708 5.43909277240866e-05 6.13341421940807e-05 8.11458923757353e-05 0.000114596696878475
"37" 0.000156926633480015 9.41810373536182e-05 0.000275554738174281 9.6014045464337e-05 9.14302210078557e-05 7.68529580766181e-05 8.05991791020219e-05 0.000213985799018876 -0.000139618086967052 -6.56509560165385e-05 4.63557656020244e-05 0.000217766918652609 5.83079472748802e-05 6.54050297042703e-05 8.69430150322122e-05 0.000118536698190279
"38" 0.000157705545874642 9.41538566498561e-05 0.000284174473802528 9.679515527076e-05 9.45125424236175e-05 7.59924182071107e-05 8.58041291321828e-05 0.000221937529050541 -0.000138264725891965 -6.73191747222868e-05 4.7692933260761e-05 0.000223957113890508 6.19642550432288e-05 6.88209024246267e-05 9.21164872495285e-05 0.000122184579373114
"39" 0.000157386322817805 9.38747267555228e-05 0.000291497061480851 9.73199248123024e-05 9.71745557409087e-05 7.44879159034338e-05 9.04927099465283e-05 0.000228891150159789 -0.000137026122776495 -6.93218316310565e-05 4.85287801745166e-05 0.000229588442666777 6.53376743353247e-05 7.15598010049398e-05 9.66409439542397e-05 0.000125527498121492
"40" 0.000155945971770257 9.33181229340883e-05 0.000297478589447534 9.75428543316961e-05 9.93649208566967e-05 7.23241122106308e-05 9.46027243712608e-05 0.000234775650483963 -0.000135939994588974 -7.16898453307977e-05 4.88674192549935e-05 0.000234641432722336 6.84004728873041e-05 7.35997489432111e-05 0.00010048807742479 0.000128549998260893
"41" 0.000153361602476271 9.244676011611e-05 0.000302065734458064 9.74204292365644e-05 0.000101031025780648 6.94898775078923e-05 9.8073059944607e-05 0.000239530500918624 -0.000135046283124914 -7.44447527098556e-05 4.87256633924504e-05 0.000239096827172398 7.11298556422496e-05 7.49206261663513e-05 0.000103640357067594 0.000131236571654533
"42" 0.000149625032802705 9.12374284346773e-05 0.000305235522663123 9.6913798036345e-05 0.000102132812549182 6.5984283192964e-05 0.000100848384739187 0.000243104937721907 -0.000134372882966757 -7.75979525893835e-05 4.81209705681814e-05 0.000242945729257231 7.35082830242765e-05 7.55176854005367e-05 0.000106087460485596 0.000133579988768111
"43" 0.000144739342332255 8.96613469847395e-05 0.000306968632248311 9.59850082071393e-05 0.000102632352897361 6.18194837419973e-05 0.000102881716862176 0.000245462247932311 -0.000133956215883454 -8.11568652084048e-05 4.70749991959387e-05 0.000246182010455311 7.55273506967081e-05 7.53838450452593e-05 0.000107824126422894 0.000135573953602428
"44" 0.000138710900156464 8.77017338136782e-05 0.000307256603561127 9.46057588920501e-05 0.000102496843496086 5.70013097689006e-05 0.000104133263661969 0.000246569133713482 -0.000133820558339027 -8.51287584438269e-05 4.5617390972581e-05 0.000248803902233528 7.71786433376028e-05 7.45210530579841e-05 0.000108848174773324 0.000137214706686568
"45" 0.000131558733366406 8.53396442445264e-05 0.000306109122192851 9.27439825581466e-05 0.000101702274015057 5.15471227759795e-05 0.000104568477682856 0.000246407555217093 -0.000133988757206558 -8.95099025342678e-05 4.37756523071703e-05 0.000250815010483935 7.8463371056012e-05 7.29346041661724e-05 0.000109172480204744 0.000138497170527101
"46" 0.000123314133759115 8.25589274223034e-05 0.000303535862822067 9.03797345006186e-05 0.000100233053984165 4.5484369446512e-05 0.000104156605375637 0.000244970267503 -0.000134483475579422 -9.42906666442812e-05 4.15831059997073e-05 0.000252218121514727 7.93822863964591e-05 7.06400316468299e-05 0.000108807853853444 0.000139426614779802
"47" 0.000114015502642553 7.93586091966106e-05 0.000299573643943059 8.7493995449597e-05 9.80760357261043e-05 3.88455189062436e-05 0.000102884121371972 0.000242261649785781 -0.000135316385912972 -9.94578702227398e-05 3.90767138579871e-05 0.000253026254761182 7.99494462073188e-05 6.76506223161128e-05 0.000107777186529451 0.000140002930610236
"48" 0.000103708902393976 7.57284815693151e-05 0.000294262353805741 8.40767777908725e-05 9.52314174793355e-05 3.16679051658048e-05 0.000100739854390243 0.000238301853491735 -0.000136498749137969 -0.000104989255990286 3.6296589776326e-05 0.000253255466500225 8.01805348807624e-05 6.39920516806008e-05 0.000106103835491201 0.000140235145128907
"49" 9.24530826209808e-05 7.16761971007146e-05 0.000287649321059208 8.0119318249117e-05 9.17058034097143e-05 2.39868480007885e-05 9.77171021366337e-05 0.000233110980648319 -0.000138037833006575 -0.000110866476723677 3.32781130547617e-05 0.000252922169541725 8.00859001283172e-05 5.96927100956724e-05 0.000103818243805903 0.00014012881835247
"50" 8.03118613035749e-05 6.72072518517543e-05 0.000279800793327104 7.5625658206074e-05 8.75074503600575e-05 1.58532818675606e-05 9.38273548477346e-05 0.000226731032696662 -0.000139930941075901 -0.00011705220793867 3.00674291960089e-05 0.000252046516384763 7.96974293073052e-05 5.47851270985809e-05 0.000100959050696409 0.000139694631709958
"51" 6.73623399024481e-05 6.23351464230414e-05 0.000270794513748773 7.0599889486814e-05 8.26606150036586e-05 7.32238136428458e-06 8.90871288815905e-05 0.000219218606277096 -0.000142173643444438 -0.000123507695992589 2.67110524240513e-05 0.00025066049785452 7.90434178633692e-05 4.93068242949279e-05 9.75706587425918e-05 0.000138943395775104
"52" 5.36806377788024e-05 5.70800306967396e-05 0.000260706454140603 6.50590816508486e-05 7.7192374724748e-05 -1.5532178562403e-06 8.3513972202992e-05 0.000210630380149996 -0.000144759765638004 -0.000130197794365704 2.32474451640234e-05 0.000248782548391842 7.81521957097042e-05 4.32983961397424e-05 9.3694375962054e-05 0.000137891884080792
"53" 3.93616559452155e-05 5.14649443843264e-05 0.00024963703847092 5.90214791810646e-05 7.1139334178257e-05 -1.07121207389147e-05 7.71439293003056e-05 0.000201039164396471 -0.000147673343093079 -0.000137075431182619 1.97256338546403e-05 0.000246444426767287 7.70610132903722e-05 3.6809053830818e-05 8.93817532017378e-05 0.000136553046552446
"54" 2.45019886390534e-05 4.55256350366034e-05 0.000237685867607005 5.25172538508453e-05 6.45413821459009e-05 -2.00920135815839e-05 7.00185364039399e-05 0.000190524524347484 -0.000150896392762602 -0.000144091053423751 1.61868915104986e-05 0.000243675982424182 7.58043314293382e-05 2.98820937137304e-05 8.46784654524672e-05 0.000134942849083126
"55" 9.19964964780245e-06 3.92924510800674e-05 0.000224959303949219 4.55751988428804e-05 5.74501981399426e-05 -2.96274530756028e-05 6.21828810309937e-05 0.000179180935058155 -0.00015440753837515 -0.000151193694136161 1.26787845714836e-05 0.000240515101560455 7.44260697628699e-05 2.2572593292062e-05 7.96498968269358e-05 0.000133080620818855
"56" -6.43055893183704e-06 3.28100316370273e-05 0.000211578187128929 3.82401915943157e-05 4.99185476179285e-05 -3.92495774110118e-05 5.36942520487177e-05 0.000167105573893333 -0.000158178109782367 -0.000158325977160284 9.24111704924474e-06 0.00023698949487429 7.29658104004211e-05 1.49342375435284e-05 7.43449830127312e-05 0.00013098704389609
"57" -2.22822459776706e-05 2.61252802230523e-05 0.000197654741700641 3.05551520270064e-05 4.20123204710629e-05 -4.88870616147831e-05 4.46173464634279e-05 0.000154403525122542 -0.000162177531939853 -0.000165434021308913 5.91679359830338e-06 0.000233137066658029 7.1465127134523e-05 7.02476821386552e-06 6.88210934505052e-05 0.000128674965925018
"58" -3.8242712394254e-05 1.9281970816128e-05 0.000183324908650579 2.25716108040009e-05 3.37916994280889e-05 -5.84734936234453e-05 3.50160982295723e-05 0.000141189121304995 -0.000166374559670768 -0.000172455649113019 2.74261949753592e-06 0.000228990678793511 6.99688142189679e-05 -1.10393224321539e-06 6.31381432441846e-05 0.000126167155426954
"59" -5.41872010543663e-05 1.23419213979097e-05 0.000168713764540123 1.43431640426163e-05 2.53291535713727e-05 -6.79398339826111e-05 2.49678331270716e-05 0.00012757654281784 -0.000170727022782441 -0.000179335371421304 -2.42230139100276e-07 0.00022458575730994 6.85165340882662e-05 -9.38909873518119e-06 5.73515598072171e-05 0.000123484677339999
"60" -7.00029646878291e-05 5.35429410802959e-06 0.000153951003943233 5.9333734843219e-06 1.67016057291205e-05 -7.72127563209899e-05 1.45495333130907e-05 0.00011368469378936 -0.000175201007227188 -0.00018600962317347 -3.00468372223395e-06 0.000219959093562543 6.71519200283134e-05 -1.77748991096291e-05 5.15199008479685e-05 0.000120641774587495
"61" -8.55623702254885e-05 -1.61146431283967e-06 0.000139177369345655 -2.59210831719189e-06 7.98300961379153e-06 -8.62240747572635e-05 3.84800466222316e-06 9.96440700968206e-05 -0.000179747024422794 -0.000192418368508786 -5.51072948086247e-06 0.000215145409676423 6.59182355865426e-05 -2.61988408798179e-05 4.56981426942836e-05 0.000117665838942519
"62" -0.000100750758191263 -8.50219155254689e-06 0.000124517889362312 -1.11685253177778e-05 -7.43997280590505e-07 -9.4907833761304e-05 -7.0511151248932e-06 8.55718386593961e-05 -0.000184328112981776 -0.000198506081897559 -7.7340378976529e-06 0.000210179766315955 6.48507809250349e-05 -3.46065232703307e-05 3.99440270317157e-05 0.000114569270133134
"63" -0.000115453001238154 -1.52532012079356e-05 0.000110104602601661 -1.97269028911337e-05 -9.40061337746905e-06 -0.000103200742179423 -1.80630768238453e-05 7.1595652960822e-05 -0.000188897025996652 -0.000204216224187169 -9.64866159328229e-06 0.000205091345238085 6.3983479233651e-05 -4.29382829385278e-05 3.43043578496517e-05 0.00011137274599241
"64" -0.00012954675845056 -2.1798221248537e-05 9.60726962932221e-05 -2.81895452546085e-05 -1.79021221417837e-05 -0.000111041470576891 -2.90928047396765e-05 5.78370224511272e-05 -0.000193407105125063 -0.00020949317646896 -1.12355120014883e-05 0.000199915135913298 6.33513988153809e-05 -5.1141117741523e-05 2.88297350213728e-05 0.000108091893291211
"65" -0.000142919842870556 -2.80721179840301e-05 8.254841310005e-05 -3.64831658521777e-05 -2.61665479647181e-05 -0.00011836971898301 -4.00460726752575e-05 4.44210494708949e-05 -0.000197814510266345 -0.000214285468351836 -1.24735279931741e-05 0.000194685846330993 6.29877600687098e-05 -5.91576219855941e-05 2.35641130925668e-05 0.000104747815104101
"66" -0.000155469858707035 -3.40156037543853e-05 6.96456977140544e-05 -4.45391929268802e-05 -3.41169923288623e-05 -0.000125132827460401 -5.08361770309718e-05 3.14600700020746e-05 -0.000202074813541668 -0.000218545778167182 -1.33506266407962e-05 0.000189425304287113 6.29136678483358e-05 -6.69395054361789e-05 1.85518499733967e-05 0.000101350436017202
"67" -0.000167082632012442 -3.95644677811177e-05 5.7491880327491e-05 -5.22741499144799e-05 -4.16689817035746e-05 -0.00013127796993912 -6.13692933634357e-05 1.90699847918257e-05 -0.000206136340770986 -0.000222223779743236 -1.38525098117397e-05 0.000184170586200266 6.31581516984409e-05 -7.44351851626866e-05 1.38319180088345e-05 9.79198414069918e-05
"68" -0.00017766977178372 -4.46626186157923e-05 4.61905575987107e-05 -5.96187550799492e-05 -4.87468233907701e-05 -0.000136763927536801 -7.15569322998901e-05 7.35697766433352e-06 -0.000209963816385519 -0.000225290302554915 -1.39786181727528e-05 0.000178943053325649 6.37317456549301e-05 -8.1598245052517e-05 9.43339724625229e-06 9.44677494970456e-05
"69" -0.000187137135907018 -4.92514330137509e-05 3.58436458444534e-05 -6.65011870544974e-05 -5.52749148914528e-05 -0.000141543973587626 -8.13100906255269e-05 -3.57700591634568e-06 -0.000213506253957076 -0.0002276946486878 -1.37210492691427e-05 0.00017377066479412 6.46533121900978e-05 -8.83850615157158e-05 5.39482577512987e-06 9.10083209799658e-05
"70" -0.000195397828014446 -5.32760367278389e-05 2.65477804016036e-05 -7.28492018218802e-05 -6.11821283511045e-05 -0.000145591962097877 -9.05497086226103e-05 -1.3645618537628e-05 -0.000216730638740542 -0.000229421480212899 -1.3079462868866e-05 0.000168678607523848 6.59283298926785e-05 -9.47580084044183e-05 1.73496678860252e-06 8.75529898219266e-05
"71" -0.000202382034176243 -5.66914713707136e-05 1.83917719908608e-05 -7.85957406010067e-05 -6.64046752222108e-05 -0.000148872115156505 -9.919528879441e-05 -2.27608140963873e-05 -0.000219593729464175 -0.000230432468612816 -1.20597670531643e-05 0.000163690164445629 6.75637001804278e-05 -0.000100677224083821 -1.52323963884639e-06 8.41132230355078e-05
"72" -0.00020801561289983 -5.94511741532032e-05 1.14460734840613e-05 -8.36741443182449e-05 -7.0875632970272e-05 -0.000151360621016085 -0.000107168228798769 -3.08503988698253e-05 -0.000222062307698581 -0.000230712785912465 -1.06675734874307e-05 0.000158822810634516 6.95591459785966e-05 -0.000106111350257256 -4.36052024024461e-06 8.06965187603529e-05
"73" -0.000212241888127257 -6.15158454716431e-05 5.78373066092956e-06 -8.80248125043213e-05 -7.45459968371982e-05 -0.000153039454572691 -0.000114402930531125 -3.78473004987021e-05 -0.00022410251978271 -0.000230241438926941 -8.91275532928713e-06 0.000154101951511266 7.19098862682947e-05 -0.000111029129313902 -6.76851879631595e-06 7.73199062066763e-05
"74" -0.000215014953558355 -6.28556562928623e-05 1.44992607257534e-06 -9.1593886220521e-05 -7.73596936123293e-05 -0.000153894912493353 -0.000120834637403958 -4.36990851265788e-05 -0.000225684597465974 -0.000229016013364822 -6.8076818044772e-06 0.000149543498474343 7.4607913091071e-05 -0.000115409467120284 -8.7367091510366e-06 7.39829525132655e-05
"75" -0.000216287257663089 -6.34385843328552e-05 -1.50291236269745e-06 -9.43236368614707e-05 -7.92752970727723e-05 -0.00015392112462143 -0.000126404972994733 -4.83628494064177e-05 -0.000226785756732144 -0.000227027782515899 -4.36732169469336e-06 0.000145161806732002 7.76399678025737e-05 -0.000119228465290356 -1.0261551505859e-05 7.06984441555116e-05
"76" -0.000216039562939426 -6.32520103844131e-05 -3.05092084794081e-06 -9.61775777933905e-05 -8.02583840744672e-05 -0.000153119593210507 -0.000131068231808387 -5.18097660216797e-05 -0.000227381037194468 -0.000224280827819667 -1.60867418677823e-06 0.000140977473005174 8.09878481859158e-05 -0.000122470421978992 -1.13449696016232e-05 6.74750845308105e-05
"77" -0.000214244705041972 -6.22782235342866e-05 -3.16634350792697e-06 -9.71072069582966e-05 -8.02774575779624e-05 -0.000151487618646812 -0.000134774667734329 -5.40144831591501e-05 -0.000227452032141223 -0.000220777039056575 1.45093963290559e-06 0.000137004593816026 8.46358363488571e-05 -0.000125122429254544 -1.1987934960008e-05 6.43163058700765e-05
"78" -0.00021089774304787 -6.05093965829444e-05 -1.84434540759776e-06 -9.70845987105618e-05 -7.93081510088646e-05 -0.000149038663133479 -0.000137493877054858 -5.4972979055171e-05 -0.000226986553915559 -0.000216529054432347 4.78766030917425e-06 0.000133255431007865 8.85546848768121e-05 -0.00012717708090282 -1.220410818314e-05 6.1228419162891e-05
"79" -0.000206001182954579 -5.7949185479614e-05 9.09463467211767e-07 -9.6079421756853e-05 -7.73394448219074e-05 -0.000145790987224983 -0.000139198316042654 -5.46903163504082e-05 -0.000225973721052196 -0.000211558634528243 8.37879507627352e-06 0.000129739729794506 9.27177803764425e-05 -0.000128630666167682 -1.20044651453727e-05 5.82187499962588e-05
"80" -0.00019956319966828 -5.46053834090938e-05 5.07823383244629e-06 -9.40744667754968e-05 -7.43634123392703e-05 -0.000141759724304705 -0.000139867724749636 -5.3176187668713e-05 -0.000224404002057728 -0.000205886031261137 1.22048925882295e-05 0.000126474657059033 9.71007950095038e-05 -0.000129481967198665 -1.13991585535779e-05 5.52945583257691e-05
"81" -0.000191612582249464 -5.04977010288835e-05 1.06361956474698e-05 -9.10577400356155e-05 -7.03820925807571e-05 -0.000136969955196823 -0.000139489716054059 -5.04585467190875e-05 -0.000222281392907363 -0.000199534180627048 1.62371985499483e-05 0.000123464843258089 0.000101665677830323 -0.000129735631933838 -1.041387024001e-05 5.2459515452337e-05
"82" -0.000182171116212488 -4.5642561607399e-05 1.75442999223682e-05 -8.70172613830591e-05 -6.54010552721856e-05 -0.000131450909555639 -0.00013806232602612 -4.6578000645054e-05 -0.000219605812635461 -0.000192537567774168 2.04538180286191e-05 0.000120724340223877 0.00010638492507057 -0.000129397541010469 -9.06501684138641e-06 4.971766062382e-05
"83" -0.000171289410820169 -4.00740440121684e-05 2.57513820109809e-05 -8.19605866124577e-05 -5.94440116027219e-05 -0.000125238027817663 -0.000135589488719751 -4.15778567869722e-05 -0.000216383665340953 -0.000184934323312325 2.4830575323938e-05 0.000118257343514357 0.000111221625780823 -0.000128483837287866 -7.37345779331857e-06 4.70772141003594e-05
"84" -0.000159019541791833 -3.38347471782531e-05 3.51880325583784e-05 -7.58979582667263e-05 -5.25287308173304e-05 -0.000118366252045428 -0.000132087653444183 -3.55154003087747e-05 -0.000212625429603667 -0.000176756236916783 2.93380507494407e-05 0.000116074051927819 0.000116139303900118 -0.000127010382922092 -5.3732020672771e-06 4.45422264263669e-05
"85" -0.000145420686359651 -2.69612315035884e-05 4.57929162278813e-05 -6.88437014482718e-05 -4.46930275276283e-05 -0.000110875786864461 -0.000127576210503391 -2.84579924604203e-05 -0.00020835140196027 -0.00016805767714575 3.3950480897927e-05 0.000114175924483706 0.000121099330593943 -0.000124999545793504 -3.08790478656272e-06 4.21133837245615e-05
"86" -0.000130560490279772 -1.95069009267503e-05 5.74785619327166e-05 -6.08211763363657e-05 -3.59716204807968e-05 -0.000102812712060881 -0.000122083317512861 -2.04851104818032e-05 -0.000203574297843203 -0.000158874533953117 3.86458595167928e-05 0.00011257368371032 0.000126068088883131 -0.000122469745827665 -5.48590240357828e-07 3.97997303881363e-05
"87" -0.00011452100812819 -1.15319809254026e-05 7.01526509019733e-05 -5.18647077805663e-05 -2.6410959431574e-05 -9.42217194339968e-05 -0.000115646454555889 -1.16765505827319e-05 -0.000198319962397603 -0.000149261020019905 4.34001604936532e-05 0.000111266269732412 0.00013101079789589 -0.000119452227800565 2.21494592169895e-06 3.76062198633307e-05
"88" -9.73859129824167e-05 -3.09514514831067e-06 8.37155117739312e-05 -4.20113827788452e-05 -1.60638707794338e-05 -8.5149149281941e-05 -0.00010830597828846 -2.12403068513787e-06 -0.000192615111029812 -0.00013926683427085 4.81863380956549e-05 0.000110260337727056 0.000135889987679241 -0.000115975093265259 5.17023304235097e-06 3.55364925340958e-05
"89" -7.9249151271054e-05 5.73921282161228e-06 9.80647607721869e-05 -3.1305005088256e-05 -4.98917895151936e-06 -7.56460669861534e-05 -0.000100116835328648 8.07659831687621e-06 -0.000186489596858552 -0.000128943119160301 5.29813631686818e-05 0.000109554012323059 0.000140671233757982 -0.000112076653980392 8.2844177466648e-06 3.35953898933596e-05
"90" -6.02148232840542e-05 1.48901526616738e-05 0.000113083851416283 -1.98031937340284e-05 6.74712032832795e-06 -6.57664435688722e-05 -9.11317727003728e-05 1.88243593137577e-05 -0.000179975330783288 -0.000118352268868584 5.77626132289207e-05 0.000109148471499977 0.000145322231655991 -0.000107791683563473 1.15205558353109e-05 3.17869916269126e-05
"91" -4.03833205116066e-05 2.42883202034466e-05 0.000128649999669118 -7.56052686514388e-06 1.90787183206594e-05 -5.55636178121236e-05 -8.14142355629775e-05 3.00073396283645e-05 -0.000173114208977806 -0.000107545485512486 6.2507148852607e-05 0.00010904042004522 0.000149808605525668 -0.000103162277360699 1.48458093687452e-05 3.01121337919429e-05
"92" -1.98669682378124e-05 3.38538314288228e-05 0.000144647741464207 5.35763667473246e-06 3.19273864978322e-05 -4.5089077045883e-05 -7.10303770794737e-05 4.15201022383774e-05 -0.000165940744845334 -9.65830925480126e-05 6.71957077967927e-05 0.000109229325747323 0.000154102377092293 -9.82303649424328e-05 1.82249309002515e-05 2.85797012249138e-05
"93" 1.21605910796182e-06 4.35056023696568e-05 0.000160944146215566 1.88824979480988e-05 4.52254974257212e-05 -3.43981212074833e-05 -6.00509390613651e-05 5.32528204714195e-05 -0.000158498072706002 -8.55180216083379e-05 7.18078956206033e-05 0.000109709397510666 0.000158176737825466 -9.30407585560125e-05 2.16243787885295e-05 2.71883702689966e-05
"94" 2.27545883657834e-05 5.31628372595989e-05 0.000177413886079579 3.29393835884289e-05 5.88861103602779e-05 -2.35405234978057e-05 -4.85508834010399e-05 6.50912408835577e-05 -0.000150827960908303 -7.44087888998638e-05 7.63266623917369e-05 0.000110474097239377 0.000162007199553945 -8.76357290574801e-05 2.50117844380934e-05 2.59432920052156e-05
"95" 4.46202801019822e-05 6.27407139007998e-05 0.000193925393755381 4.7447416128153e-05 7.28270209397789e-05 -1.25740454278798e-05 -3.66106129200496e-05 7.69177880299744e-05 -0.00014297868644135 -6.33196128273503e-05 8.07307921858605e-05 0.000111516442581986 0.000165566352057933 -8.20728261142241e-05 2.83474835457688e-05 2.48438532949794e-05
"96" 6.6693137348424e-05 7.21546307158215e-05 0.000210349007983158 6.23259739990798e-05 8.69640329096887e-05 -1.54932717599954e-06 -2.43107359572329e-05 8.86262623168419e-05 -0.00013499505828957 -5.2295265824122e-05 8.50082713787599e-05 0.00011282480655598 0.000168840909525447 -7.63954835300122e-05 3.1604704616838e-05 2.38964155338131e-05
"97" 8.88479082635063e-05 8.13254717567794e-05 0.000226555776873492 7.74905016826315e-05 0.000101213630508678 9.48383877177836e-06 -1.17323584190645e-05 0.000100102536698063 -0.00012692573179297 -4.13948288664766e-05 8.91432065863834e-05 0.000114389660609487 0.000171810203467802 -7.06560632248856e-05 3.4750813773951e-05 2.31003231608925e-05
"98" 0.000110961541414511 9.01682815346012e-05 0.000242419003548283 9.28486933530576e-05 0.000115489905225623 2.04758709466268e-05 1.04425094807829e-06 0.000111246377748037 -0.00011881759457423 -3.06743020642982e-05 9.31190018501234e-05 0.000116198747781506 0.000174460646761338 -6.49060116294226e-05 3.77517045635154e-05 2.24508248822999e-05
"99" 0.000132916920361338 9.86108654958188e-05 0.000257819796624341 0.000108318640800686 0.000129709468728723 3.13778966676431e-05 1.39317533169391e-05 0.000121949001425897 -0.000110720259340607 -2.01770576815415e-05 9.69285202758035e-05 0.00011823445665941 0.000176782032720677 -5.91980918662575e-05 4.058374205753e-05 2.19543393525636e-05
"100" 0.000154582413048291 0.000106571314647664 0.00027263125845355 0.000123798669243763 0.000143785690733921 4.21433999945333e-05 2.68466480735824e-05 0.000132115168117796 -0.000102679681820809 -9.95710899938472e-06 0.000100556403739907 0.000120479386428354 0.000178762788125826 -5.35824488190509e-05 4.32140279681825e-05 2.16043968087594e-05
"101" 0.000175844466525285 0.000113978977441945 0.000286747663474364 0.000139205455460676 0.000157640170280407 5.27342481435467e-05 3.97112142783745e-05 0.0001416571239607 -9.47428291015547e-05 -5.57810079347272e-08 0.000103996033476582 0.000122917843632699 0.000180402286082646 -4.81087587356687e-05 4.5621328644597e-05 2.14026491357492e-05
"102" 0.000196589391788844 0.000120769488796208 0.000300057649019666 0.000154443551490767 0.000171189159983128 6.31069410188406e-05 5.24427348604405e-05 0.000150489054630997 -8.69572983843558e-05 9.48603744015329e-06 0.000107236413390113 0.000125524712961511 0.000181693635658734 -4.28292918974167e-05 4.77809981700216e-05 2.13376522749104e-05
"103" 0.000216707678075812 0.000126881892753091 0.000312467958510874 0.000169425754047797 0.000184364694892671 7.32231520958488e-05 6.49652484294149e-05 0.000158533690386109 -7.93650648042132e-05 1.86285597419156e-05 0.000110273790601969 0.000128284556789195 0.000182638964719971 -3.77910359223178e-05 4.96705554224096e-05 2.14137256620927e-05
"104" 0.000236093296961517 0.000132260122118198 0.000323887697978735 0.000184065816955163 0.000197089630705852 8.30521766593311e-05 7.7208029431103e-05 0.000165725015247637 -7.20059676534298e-05 2.73435040860172e-05 0.00011310238913825 0.000131167133261754 0.000183242607945542 -3.30365978927104e-05 5.12739630437165e-05 2.16212652467233e-05
"105" 0.000254644110699112 0.000136853236262042 0.000334232402016066 0.000198272751591897 0.000209298190436362 9.25585473203933e-05 8.9097768794455e-05 0.000172008452347299 -6.49243176329978e-05 3.55982643881352e-05 0.000115717447549255 0.000134153219975209 0.000183507116476127 -2.86136797708339e-05 5.25705987826194e-05 2.19525225833183e-05
"106" 0.000272267289482064 0.000140617468297053 0.000343430978000926 0.000211965655420912 0.000220928747033179 0.000101716836446678 0.000100571361586376 0.000177326707256147 -5.81519529600622e-05 4.33651839799217e-05 0.000118115913985703 0.0001372127193662 0.000183439416320246 -2.45622283861693e-05 5.35529956141747e-05 2.24021651604441e-05
"107" 0.000288879463251727 0.000143521740772326 0.000351419676528249 0.000225066263788843 0.000231924141644519 0.000110503595082587 0.000111570006452794 0.000181650084448195 -5.17261508209913e-05 5.06248750840389e-05 0.000120296016219267 0.000140318947580226 0.000183048050202093 -2.09180117096295e-05 5.42043111668411e-05 2.29603059701466e-05
"108" 0.000304403972516248 0.000145538823685703 0.000358156591830709 0.000237501746542544 0.000242238889154587 0.000118899021510765 0.000122037528330602 0.000184946456282031 -4.56717311836021e-05 5.73657907403585e-05 0.000122258848063343 0.000143444417018018 0.00018234735313852 -1.77151468144749e-05 5.45210737542862e-05 2.36152801683288e-05
"109" 0.000318768410440523 0.000146645039912712 0.00036359455073953 0.000249201948490967 0.000251824797935211 0.000126881286158856 0.000131927119306776 0.000187198120567924 -4.0020673182508e-05 6.3573967317057e-05 0.000124006795023998 0.000146560443371078 0.000181347154421887 -1.49842433040826e-05 5.44972403777287e-05 2.43602150796913e-05
"110" 0.000331914376367928 0.000146832297680641 0.000367712196512643 0.000260103480443365 0.000260645409466861 0.000134439659199911 0.00014119808821041 0.000188402511911091 -3.4789954876673e-05 6.92463817070875e-05 0.000125539719738364 0.000149634107216938 0.000180062000838976 -1.27489501712766e-05 5.41289554977191e-05 2.51804486348793e-05
"111" 0.000343792365824387 0.000146098417444647 0.000370489090013024 0.000270150360337007 0.000268675426452458 0.000141564313183864 0.000149816539926004 0.000188560360216049 -2.99956426027785e-05 7.43771036333335e-05 0.000126867849565836 0.000152639954926578 0.000178507291666244 -1.10276478066504e-05 5.34211634228169e-05 2.60656837497204e-05
"112" 0.000354357988102282 0.00014444680767739 0.000371923822968988 0.000279287589264911 0.000275886811583967 0.000148247813197264 0.000157750635180135 0.000187686930334173 -2.56585147215013e-05 7.89711069873647e-05 0.000127988644828238 0.000155545086563971 0.000176694250131155 -9.8436284792969e-06 5.23708115441762e-05 2.7000133910915e-05
"113" 0.000363587077253552 0.0001418964362772 0.000372020559118708 0.0002874793108204 0.000282267472916169 0.000154489006408221 0.000164985526227653 0.000185808803981671 -2.1779254177351e-05 8.3039301697238e-05 0.000128918666228367 0.000158321939609608 0.000174645894416027 -9.19999258495332e-06 5.0994264723727e-05 2.79742674477412e-05
"114" 0.000371455496392417 0.000138467404101708 0.000370804224463414 0.000294683297444241 0.000287808982539926 0.000160283311727399 0.000171506326912501 0.000182962033945061 -1.8367187855015e-05 8.65893359041286e-05 0.000129656620474297 0.000160940517642182 0.000172375207577264 -9.10784149859993e-06 4.92938729818907e-05 2.89709913724029e-05
"115" 0.000377950736706254 0.00013418614366987 0.000368297783693819 0.00030087390806831 0.00029251016367385 0.000165639790045084 0.000177301917509417 0.000179186246535574 -1.54218300312971e-05 8.96374508671198e-05 0.000130217897418357 0.000163372620609632 0.000169898575405397 -9.5620029636384e-06 4.7282860401521e-05 2.99761341144932e-05
"116" 0.000383074167485165 0.000129094390920148 0.000364541913757909 0.000306028404724948 0.000296379851202115 0.000170561080946051 0.000182380594892137 0.000174540798012368 -1.29346551748495e-05 9.2208522899236e-05 0.000130611637758856 0.000165590474712575 0.000167231507850044 -1.05586366395685e-05 4.49841208278597e-05 3.09747529309135e-05
"117" 0.000386840572001358 0.000123240213180035 0.000359593401307039 0.000310137701459727 0.000299428590039348 0.00017505885952947 0.000186748607399326 0.000169083289706256 -1.09041501691044e-05 9.43222654613486e-05 0.000130849600738884 0.000167570992346399 0.000164392351220436 -1.20879762057381e-05 4.24057665566471e-05 3.19506685756673e-05
"118" 0.000389265910810478 0.000116671429912548 0.00035350974835495 0.000313195282070394 0.000301680038459194 0.000179142532871224 0.000190415815524266 0.000162882950817533 -9.31291906377647e-06 9.60038754711005e-05 0.000130942851221492 0.000169284705695314 0.000161393459377912 -1.41343493821529e-05 3.95759852252049e-05 3.28933231676138e-05
"119" 0.000390387324747137 0.000109452054739435 0.000346359796979081 0.000315208466287925 0.000303158381374569 0.000182828811450486 0.00019341097445359 0.000156017362000519 -8.14533910376116e-06 9.72866601658719e-05 0.000130906747407719 0.000170713506076857 0.00015825218652026 -1.66770529252291e-05 3.65102480374529e-05 3.37832969657845e-05
"120" 0.000390241917065192 0.000101645379985012 0.000338220542080214 0.000316189102730309 0.000303900676647405 0.000186135429462537 0.000195758090537186 0.000148569017548842 -7.3813120555363e-06 9.81998201362185e-05 0.000130756618317725 0.000171833686378473 0.000154981879317836 -1.96868431214993e-05 3.32400833100802e-05 3.46088877054968e-05
"121" 0.000388882308808071 9.33250329171659e-05 0.000329178293164373 0.000316154249243874 0.000303942210730866 0.000189080837696875 0.000197495220630378 0.000140622166244392 -6.99815480647102e-06 9.8778962429825e-05 0.000130507125842816 0.000172628786730959 0.000151597058676053 -2.31339329441248e-05 2.97887477409039e-05 3.53570643567802e-05
"122" 0.000386369429557201 8.4565718055875e-05 0.000319329110471405 0.00031513640736741 0.0003033297060161 0.00019168602643407 0.000198660003786369 0.000132266160467556 -6.97041343950228e-06 9.90604713478404e-05 0.000130176217367619 0.000173085335438796 0.0001481076144526 -2.69841134018286e-05 2.61829472446137e-05 3.60134137360589e-05
"123" 0.000382768330659607 7.54455555126171e-05 0.000308759009806066 0.000313165424171927 0.000302109135905224 0.000193971284812119 0.000199295072314272 0.000123594302350772 -7.26723342693995e-06 9.90761357670702e-05 0.000129775623266345 0.000173185193288657 0.000144525367833366 -3.11978315567682e-05 2.24556012612749e-05 3.65617514436918e-05
"124" 0.000378161466150477 6.60544804432862e-05 0.00029758519159668 0.000310291744214265 0.000300333668566094 0.000195968056905783 0.000199453735133649 0.000114703817622949 -7.85655189623208e-06 9.8870837278207e-05 0.000129331276646005 0.00017292169924631 0.000140860627476051 -3.57291366508061e-05 1.863398918203e-05 3.69991006969588e-05
"125" 0.000372625104715372 5.64728948915614e-05 0.000285898342758816 0.000306556087385139 0.000298060975421648 0.000197695067319619 0.000199186437618756 0.00010568634696093 -8.70919562894869e-06 9.84781539806496e-05 0.000128856666723863 0.000172288902419227 0.000137123639935296 -4.05340421438196e-05 1.47507304939337e-05 3.73064521338526e-05
"126" 0.000366254505803165 4.67916791198126e-05 0.000273818256465362 0.000302018133030676 0.000295350593588981 0.0001991843463082 0.000198549970712153 9.66402328734307e-05 -9.78752692159189e-06 9.79401389671088e-05 0.000128371570268385 0.000171280260331811 0.000133322141275878 -4.55590591607452e-05 1.0836779707932e-05 3.74817436685116e-05
"127" 0.00035914836075788 3.71026371100317e-05 0.000261451635864801 0.000296739532865224 0.000292264860748464 0.000200462159608802 0.000197604711235369 8.76595036417157e-05 -1.10551343555915e-05 9.72866422261214e-05 0.000127894332359996 0.000169894286310542 0.000129462194523613 -5.07554129804257e-05 6.92857307271753e-06 3.75148684343386e-05
"128" 0.000351400255476223 2.7494177405493e-05 0.000248906869620882 0.000290782595763535 0.000288866117051536 0.000201551840029014 0.000196411864104235 7.88332147855863e-05 -1.24776260397754e-05 9.65597831444175e-05 0.00012744043881855 0.000168136723726707 0.000125549532392594 -5.60701002991098e-05 3.05168361415075e-06 3.73938801643508e-05
"129" 0.000343119280768882 1.80524409018441e-05 0.000236296403421971 0.000284219601586447 0.000285215761678074 0.000202487254013958 0.000195031404657305 7.02566322824436e-05 -1.40186991826477e-05 9.57977027194578e-05 0.00012703651756672 0.000166012135695868 0.000121592589444711 -6.14430100605429e-05 -7.5803647392728e-07 3.71215733107092e-05
"130" 0.000334412304521221 8.87235634149945e-06 0.000223729870019592 0.000277120497270649 0.000281385939185045 0.000203293257488683 0.000193531271653876 6.20068309565905e-05 -1.56411518465167e-05 9.50292005438471e-05 0.000126693935175896 0.000163526945689099 0.000117591939727047 -6.68234679063338e-05 -4.47046639235476e-06 3.66861334449432e-05
"131" 0.000325396522628843 3.8109123896121e-08 0.000211316152093193 0.000269565769493258 0.000277436817436845 0.000204001512270615 0.000191970758017697 5.41729026413279e-05 -1.73054003807986e-05 9.42894706276446e-05 0.000126434031996935 0.000160698587877841 0.000113555079976 -7.21525219481485e-05 -8.05302110230017e-06 3.60931511060938e-05
"132" 0.000316171816895184 -8.37175234248124e-06 0.00019915221930581 0.000261627783479085 0.000273428315343758 0.000204634802386902 0.000190413906909912 4.68234894752749e-05 -1.89812379524894e-05 9.36104828927947e-05 0.000126274898406955 0.000157539310965321 0.000109483593984963 -7.73727681408025e-05 -1.14770151607748e-05 3.5337197850924e-05
"133" 0.000306855366424734 -1.62689148635588e-05 0.000187341669017927 0.000253387939225331 0.000269429376104388 0.000205223819384787 0.000188920442749424 4.00265266839728e-05 -2.06315379157028e-05 9.30183779358356e-05 0.000126235763464204 0.000154069602457627 0.000105381788854358 -8.24293208141071e-05 -1.4711155487526e-05 3.44227973859432e-05
"134" 0.00029756198221353 -2.35792311314705e-05 0.000175983902126934 0.000244929736360816 0.000265498716424245 0.000205792682869563 0.000187552511588915 3.38482986860853e-05 -2.22196467690706e-05 9.25413074358491e-05 0.000126330516629313 0.000150311430134439 0.000101251620097932 -8.72682290221844e-05 -1.77319376336654e-05 3.33491825120096e-05
"135" 0.000288393221684431 -3.02391197470337e-05 0.000165156922416442 0.000236324322119389 0.000261693114190615 0.00020636107480005 0.000186364551175259 2.83393682827839e-05 -2.37226284662776e-05 9.21990786556091e-05 0.000126573430013721 0.000146285020471247 9.70942582779583e-05 -9.18376760870168e-05 -2.05129892030097e-05 3.21201585513194e-05
"136" 0.000279461174171928 -3.61739148332924e-05 0.000154950223612747 0.000227655473690532 0.000258066168678077 0.000206958424723766 0.000185409321036744 2.35483317463496e-05 -2.51019605018512e-05 9.20185079068699e-05 0.000126985183611377 0.000142023168329173 9.29137782561461e-05 -9.60867503885536e-05 -2.30314863609408e-05 3.07428593127718e-05
"137" 0.000270863052000845 -4.13335372227451e-05 0.000145437185593165 0.000218996286773685 0.000254667538314374 0.000207603714003715 0.000184738292691595 1.95139634162908e-05 -2.6331000086384e-05 9.20162748412272e-05 0.000127575784364569 0.000137555370831448 8.87107386193799e-05 -9.99697958934155e-05 -2.52582146662771e-05 2.92239845405682e-05
"138" 0.000262698560823327 -4.56584069140635e-05 0.000136681646311111 0.000210419759768967 0.000251544491161042 0.000208312357241266 0.000184393427927538 1.62612726194792e-05 -2.73914194467617e-05 9.22029826284904e-05 0.000128354191921428 0.000132908680775484 8.44843545289458e-05 -0.000103441382833675 -2.71829109002325e-05 2.75717380439377e-05
"139" 0.000255059814385678 -4.91078345925698e-05 0.000128742647685603 0.000201997226334009 0.000248741237570401 0.000209106481578851 0.000184415272152134 1.38135320514628e-05 -2.82518489860858e-05 9.25992713060409e-05 0.000129339169105093 0.000128122413488831 8.02411216904043e-05 -0.000106460562056886 -2.87824970236193e-05 2.57945637305361e-05
"140" 0.000248028396709782 -5.1644262678595e-05 0.000121668534142406 0.000193792903807242 0.000246291573858446 0.000209997847829194 0.000184840627418561 1.21854583941284e-05 -2.88941959621227e-05 9.32084873586543e-05 0.000130533010812999 0.000123228252727405 7.5982961023007e-05 -0.000108993716305741 -3.00418174993928e-05 2.39010537795904e-05
"141" 0.000241688065332852 -5.32369857830794e-05 0.000115505067761542 0.000185871810502008 0.000244229652554385 0.00021099897515166 0.000185697083630468 1.13773187840647e-05 -2.93023713432995e-05 9.40438206917086e-05 0.00013195000858041 0.000118263643737075 7.17097909625557e-05 -0.00011100499906391 -3.09473041320929e-05 2.19065653628433e-05
"142" 0.000236104574681785 -5.386697477843e-05 0.000110274505477117 0.000178287312376555 0.00024258166622934 0.000212121551721781 0.000187008689493612 1.13839945989358e-05 -2.94586707254127e-05 9.51065606156023e-05 0.000133589466175753 0.00011326915217111 6.74251453033205e-05 -0.000112471359550389 -3.14916499543117e-05 1.98192423308373e-05
"143" 0.000231341815653717 -5.35169995182376e-05 0.000106005226919475 0.000171093285671159 0.0002413713489205 0.000213369146740076 0.000188790809375756 1.21862441396129e-05 -2.93518345966041e-05 9.63994231689001e-05 0.000135459668474387 0.000108280946817833 6.31315283490312e-05 -0.00011336772203164 -3.16655931843645e-05 1.76540106166469e-05
"144" 0.000227449508552243 -5.21896277596455e-05 0.000102703312374897 0.000164333319693488 0.000240605142821697 0.000214747930706758 0.000191055231268695 1.37648844282057e-05 -2.89725696778902e-05 9.79171080853405e-05 0.000137561444586084 0.000103339607794139 5.88293979346046e-05 -0.000113677668995045 -3.14655854059354e-05 1.54218707672107e-05
"145" 0.000224478890576737 -4.98823043047323e-05 0.000100378220554415 0.000158051189892772 0.000240304487187455 0.000216260355527997 0.000193807583908495 1.60916910174219e-05 -2.83089421828844e-05 9.96700507035094e-05 0.000139895552708884 9.84815975934396e-05 5.45309559781179e-05 -0.000113384986492634 -3.08815777747445e-05 1.31401502759149e-05
"146" 0.000222456703279316 -4.66136137940916e-05 9.90128295952382e-05 0.000152275383321526 0.00024046321772196 0.000217903822949153 0.000197038739412575 1.91172884155541e-05 -2.73633832123472e-05 0.000101637249776716 0.000142456513704332 9.37468245132171e-05 5.02304655703203e-05 -0.000112492225071664 -2.99251738743056e-05 1.08171518092597e-05
"147" 0.000221407788699654 -4.24031564332121e-05 9.85923560671957e-05 0.000147036522425751 0.000241084607701087 0.000219671140387331 0.000200745970807737 2.27975688814599e-05 -2.61327067307388e-05 0.000103819461047908 0.000145244860591868 8.91727505858354e-05 4.59345374058804e-05 -0.000110990219868128 -2.85916983172003e-05 8.47010987115306e-06
"148" 0.000221345195895377 -3.72791835495667e-05 9.90940419802469e-05 0.000142355799459484 0.000242156249814317 0.000221562574673362 0.000204908480057863 2.70849474044498e-05 -2.4616707239011e-05 0.000106208739578577 0.000148250386265875 8.47965660207266e-05 4.16497823659202e-05 -0.000108886243652429 -2.68896487927888e-05 6.11153947607078e-06
"149" 0.000222275611145916 -3.12794144853517e-05 0.00010047809759367 0.000138245900896741 0.000243666183457737 0.000223560088772319 0.000209504880659036 3.19085592756546e-05 -2.28223257019393e-05 0.000108783523162721 0.000151460592922575 8.0649742330907e-05 3.73780385957492e-05 -0.000106194247896143 -2.48334240670026e-05 3.75159072597287e-06
"150" 0.000224190091975171 -2.44505671740275e-05 0.000102703913842829 0.000134717242016283 0.000245598760896676 0.000225657230078511 0.000214509681614992 3.72101918943363e-05 -2.07552391387905e-05 0.000111540075343407 0.000154871892737328 7.67693387175442e-05 3.31267418904061e-05 -0.000102921490303515 -2.24258995957266e-05 1.40729373342408e-06
"151" 0.00022707664681289 -1.68408742181756e-05 0.000105718470739496 0.000131774180395239 0.000247927700857331 0.000227834124791332 0.000219886362943704 4.29106229681586e-05 -1.84270298751338e-05 0.00011445974542229 0.000158462304237282 7.31835618300199e-05 2.89010630648332e-05 -9.90986056103341e-05 -1.96871190225441e-05 -9.13853186010834e-07
"152" 0.000230907834249625 -8.50635814507422e-06 0.000109464590100785 0.000129411953077998 0.000250621738977604 0.000230078798202114 0.000225595608797944 4.89405379060416e-05 -1.58454917496996e-05 0.00011752330351613 0.00016222198383146 6.99205904952609e-05 2.47047945013904e-05 -9.4742949164835e-05 -1.66359588032829e-05 -3.19912576576756e-06
"153" 0.000235643954359292 4.81603401716781e-07 0.000113875495623512 0.000127620441389718 0.000253646667235472 0.000232362995946564 0.000231589224117544 5.52144798787534e-05 -1.30307668425409e-05 0.000120711761088475 0.000166125654097485 6.70042486605838e-05 2.05433761129489e-05 -8.989200087421e-05 -1.3292728473727e-05 -5.43746204316816e-06
"154" 0.000241255329239269 1.00674058890006e-05 0.000118885598103844 0.000126393439760142 0.000256972453791588 0.000234674070779348 0.000237823756793062 6.16534832054309e-05 -9.99717084670749e-06 0.000124010581934359 0.000170156203429211 6.44566964877083e-05 1.64274885146667e-05 -8.45804338992825e-05 -9.67893524902243e-06 -7.62011591675212e-06
"155" 0.000247679997860045 2.01677103472781e-05 0.00012441745509535 0.000125707218232434 0.000260550620267108 0.000236981478386764 0.000244242058932257 6.81736149529155e-05 -6.76708470466674e-06 0.000127390467514945 0.000174290771978025 6.22992373541501e-05 1.2358531441854e-05 -7.88467223596222e-05 -5.82017780395298e-06 -9.74162834696996e-06
"156" 0.00025486469425563 3.07082282348626e-05 0.000130389128903002 0.000125539144334903 0.000264339155048011 0.00023926018476038 0.000250783751697237 7.4685102018909e-05 -3.3630183214928e-06 0.000130834183135176 0.000178500462665339 6.05404330361649e-05 8.3428945903422e-06 -7.27396573315995e-05 -1.74885271162039e-06 -1.17926011364362e-05
"157" 0.000262743910586314 4.1611390637619e-05 0.000136720783748082 0.000125867866953487 0.000268292875380632 0.000241484523446866 0.00025739404299226 8.11087635867737e-05 1.94199498329038e-07 0.000134316408208266 0.000182759865343716 5.91898967587953e-05 4.39018302950804e-06 -6.63060444119879e-05 2.50619348920884e-06 -1.37690727970381e-05
"158" 0.000271243696354062 5.27941737020789e-05 0.000143325364561548 0.000126661638575845 0.000272359717106046 0.000243624015594513 0.000264006703491516 8.735474662227e-05 3.87779793703053e-06 0.000137811479584241 0.000187035830620919 5.82595643087461e-05 5.04207915850032e-07 -5.95978576112266e-05 6.91002218141741e-06 -1.56673413377597e-05
"159" 0.000280292543661088 6.41745375984644e-05 0.000150120517842745 0.000127890749057104 0.000276488348423707 0.000245653475928863 0.000270558011629003 9.33445319515298e-05 7.65744150566601e-06 0.000141295339569395 0.000191302293622433 5.77439262297059e-05 -3.3049944598542e-06 -5.26713983579007e-05 1.14255934792944e-05 -1.74850687752906e-05
"160" 0.000289804232840409 7.56690333641553e-05 0.000157013568071309 0.000129517578072997 0.000280626303654241 0.000247535474296653 0.000276982147881698 9.89923140495505e-05 1.15064504335007e-05 0.000144743376668464 0.000195522304031078 5.76441692861871e-05 -7.03597200028776e-06 -4.55873035889203e-05 1.60164604224153e-05 -1.92209202148455e-05
"161" 0.000299701627560948 8.71932452410157e-05 0.000163922368969573 0.00013151189296095 0.000284724907374251 0.00024924557403371 0.000283214730007869 0.000104226867211675 1.53939665943678e-05 0.000148126469337368 0.00019966171442752 5.79514564955065e-05 -1.06775891227149e-05 -3.83994790759815e-05 2.06461909635905e-05 -2.08744084490078e-05
"162" 0.000309883569569399 9.86584407446009e-05 0.00017075621536114 0.000133827127550342 0.000288720946431956 0.000250749350441435 0.000289187629982526 0.000108970614730276 1.92850586069087e-05 0.000151417894830847 0.000203684702018441 5.86535642626529e-05 -1.42292640404566e-05 -3.11802132483274e-05 2.52654175554442e-05 -2.24496584631959e-05
"163" 0.000320272134357229 0.000109990606699121 0.00017743275368482 0.000136431103611522 0.000292571946949174 0.000252017279847502 0.000294836002657458 0.000113156790319098 2.31495687156902e-05 0.000154590175157387 0.000207553951833468 5.97299151641473e-05 -1.7683049005578e-05 -2.39865599763798e-05 2.98344415506906e-05 -2.39508662806764e-05
"164" 0.000330772967400093 0.000121108947996488 0.000183872727827221 0.000139283383687696 0.000296216231144814 0.000253016339695942 0.000300098851293983 0.000116720315626826 2.6956588834429e-05 0.000157616867778524 0.000211233608463561 6.11637858241751e-05 -2.10357253188837e-05 -1.68806206523508e-05 3.43113083733837e-05 -2.53790300519354e-05
"165" 0.000341282018926294 0.000131930075519363 0.000189989306516254 0.000142340066895596 0.000299607243849987 0.000253716710942523 0.000304910183884313 0.000119609957165582 3.06663134732024e-05 0.000160467830885147 0.000214684043504423 6.29279722031728e-05 -2.42821053942611e-05 -9.9332966263182e-06 3.86497803864868e-05 -2.67465705999543e-05
"166" 0.000351720783622475 0.000142383127956274 0.000195718112342859 0.000145564633857163 0.000302694066772926 0.000254088838456763 0.000309215434921453 0.000121769843512439 3.42503592626e-05 0.000163120227065878 0.000217867184086192 6.49918818601221e-05 -2.74198214697914e-05 -3.20153750950364e-06 4.28046396480962e-05 -2.80564296246521e-05
"167" 0.000361987458087921 0.00015239914615968 0.000200979959859326 0.00014891399610454 0.000305426774204745 0.000254103631683465 0.000312955776283942 0.00012315990176729 3.76697971136579e-05 0.000165541647325366 0.000220743674862247 6.7321442841075e-05 -3.04477814595299e-05 3.24388518433672e-06 4.67290708516019e-05 -2.93227891731e-05
"168" 0.000371986210865129 0.000161901866670756 0.00020570993384242 0.000152345265963667 0.000307762024623485 0.000253734785129381 0.000316081478899993 0.000123745228915714 4.08938939441891e-05 0.000167705363846303 0.000223275085334087 6.98845888900591e-05 -3.33690187237546e-05 9.34922709263097e-06 5.03790239019178e-05 -3.05559516895428e-05
"169" 0.000381629678673527 0.000170838074661026 0.00020984709801916 0.000155819744552335 0.000309656546659587 0.00025295283475707 0.000318541926024444 0.000123493564223399 4.38891404145817e-05 0.00016958508421239 0.000225425730557126 7.26339862557281e-05 -3.61826206092725e-05 1.50487600034775e-05 5.37094526429446e-05 -3.1767599089735e-05
"170" 0.000390828794461871 0.000179140149318343 0.000213339518691095 0.00015929941998248 0.000311070702370453 0.000251731903077581 0.000320294535409268 0.000122390255881075 4.66255804819621e-05 0.000171153476639051 0.000227156589741335 7.55282180192633e-05 -3.88912984538101e-05 2.02896446821136e-05 5.66744577309705e-05 -3.29740475472534e-05
"171" 0.000399496470129121 0.000186760216032266 0.000216134069500926 0.000162741261057642 0.000311962683400635 0.000250049713662512 0.000321298487639457 0.000120418873357122 4.90692842436454e-05 0.00017238389621239 0.000228434139573386 7.85245594753765e-05 -4.15003663626049e-05 2.50153747469853e-05 5.92344932650525e-05 -3.41865127817939e-05
"172" 0.000407542190995943 0.000193639779904237 0.00021818563827714 0.000166105359012398 0.000312307173954017 0.000247882540893828 0.000321519302118219 0.000117573040266256 5.11896401026509e-05 0.000173250161458206 0.000229225731908281 8.15711673406568e-05 -4.40217938016668e-05 2.91783436803466e-05 6.13472862421266e-05 -3.54238404080612e-05
"173" 0.000414888967108867 0.000199739043494568 0.000219458167635676 0.000169352614500174 0.000312070764504807 0.000245213358830022 0.000320931536323616 0.000113861525745458 5.29635424191551e-05 0.00017372868645459 0.000229496595468093 8.46219723073331e-05 -4.64589467269359e-05 3.27295706359211e-05 6.29716920444209e-05 -3.6701791739364e-05
"174" 0.000421461738643137 0.000205019328208887 0.000219923906408212 0.000172448466594491 0.000311228409142302 0.000242021866893659 0.000319512816559874 0.000109295955193868 5.43637501876086e-05 0.000173797352671089 0.000229220967269097 8.76273738388501e-05 -4.88227646059381e-05 3.5630979309003e-05 6.4078196470382e-05 -3.80383889022792e-05
"175" 0.000427177735969458 0.000209437807648845 0.000219551048558916 0.000175347277062663 0.000309756833533127 0.000238291885116638 0.000317242793393409 0.000103891159545135 5.53684412183757e-05 0.000173431242054733 0.000228369112541353 9.0533899353855e-05 -5.11309897810338e-05 3.78426479135808e-05 6.46287279545135e-05 -3.94512433476155e-05
"176" 0.000431972809618708 0.000212970198980459 0.0002183224379489 0.0001780160610492 0.000307643099827473 0.000234008650202658 0.000314111005648218 9.76721024105707e-05 5.59516051373489e-05 0.000172606577009282 0.000226916718586358 9.32910371234019e-05 -5.33998716469713e-05 3.93354591654692e-05 6.45936194045264e-05 -4.09594850359485e-05
"177" 0.000435782254152368 0.000215591206073112 0.000216231312391185 0.000180417484759673 0.000304871526029328 0.000229162517922637 0.000310114096801811 9.06799395531107e-05 5.61007619821108e-05 0.000171307009644877 0.000224845874525896 9.58495719506634e-05 -5.56411503972785e-05 4.00793020937319e-05 6.39453308151762e-05 -4.25827557620527e-05
"178" 0.00043855142288331 0.000217280277243806 0.00021327238045658 0.000182518983772181 0.000301437765488872 0.000223748805574537 0.000305255071051286 8.29488879771855e-05 5.57991076581368e-05 0.000169516292787405 0.000222139384127066 9.81598699919445e-05 -5.78769554258178e-05 4.00619392071924e-05 6.26648170181705e-05 -4.43365789325856e-05
"179" 0.000440218397508697 0.000218022360121741 0.000209437638620716 0.00018427843913784 0.000297334764966891 0.000217753472362587 0.000299536710996551 7.45237885922924e-05 5.50340411622234e-05 0.000167212049208507 0.000218782703291717 0.000100175968393189 -6.01286264820769e-05 3.92629788977814e-05 6.07334666579263e-05 -4.62384147283947e-05
"180" 0.000440742198837929 0.000217808969011886 0.000204740856194865 0.000185666750760775 0.00029256094186554 0.000211180402683143 0.00029297531818706 6.54562504206261e-05 5.37964523064376e-05 0.000164385624710583 0.000214766213912642 0.000101849420035873 -6.24191003918072e-05 3.76748063495391e-05 5.81326517118014e-05 -4.83103861066392e-05
"181" 0.000440076657645396 0.000216631532512048 0.000199192039035319 0.000186649899809428 0.000287124965188163 0.000204028412241503 0.000285589316319985 5.58053607971253e-05 5.20786548188872e-05 0.000161016329058348 0.000210084852468679 0.000103138093374528 -6.4769936566087e-05 3.52997767334581e-05 5.48591770972437e-05 -5.05627684230547e-05
"182" 0.000438198322868019 0.000214502676478395 0.000192814113224616 0.000187200874386767 0.000281037365923635 0.00019630137797113 0.000277408490376726 4.56326361528285e-05 4.98818535775299e-05 0.000157102231003254 0.000204740843089459 0.00010400519133622 -6.72057882293733e-05 3.21442155998171e-05 5.09077816726261e-05 -5.30132814686347e-05
"183" 0.000435073048260136 0.000211422964770436 0.000185627944449368 0.000187287838301253 0.00027431299177399 0.000188005522473188 0.000268457530028142 3.49987042084429e-05 4.7201340374152e-05 0.000152628756606073 0.000198734757228948 0.000104408594824186 -6.97531842033563e-05 2.82115842239481e-05 4.62745478280521e-05 -5.56747923032987e-05
"184" 0.000430689005933509 0.000207403246329599 0.000177668157442542 0.000186884932887687 0.000266968768833179 0.000179154245807968 0.000258784214554 2.3978429490594e-05 4.40492095792222e-05 0.000147595784480576 0.000192079825658235 0.000104323316637926 -7.24310110572075e-05 2.35279003867662e-05 4.09714193626748e-05 -5.85569707804257e-05
"185" 0.000425034177764653 0.000202468550689487 0.00016896947181997 0.000185972901432021 0.000259028769663377 0.000169761804678693 0.000248427283626813 1.26373443249775e-05 4.04257620290844e-05 0.000141998989998621 0.000184790136495564 0.000103716065947168 -7.52642166219165e-05 1.81164675436352e-05 3.50085757814183e-05 -6.166775251215e-05
"186" 0.000418111412873125 0.000196639528747346 0.000159574647195099 0.000184526052278296 0.00025052438443614 0.000159847605851044 0.00023743299846997 1.05259699157504e-06 3.63419533213212e-05 0.000135841682765946 0.000176880216514456 0.000102565768842358 -7.82794267676991e-05 1.20060652939907e-05 2.84022532851755e-05 -6.50150824572934e-05
"187" 0.000409928464336039 0.000189949975870455 0.00014952719848741 0.000182532238401015 0.000241479028813008 0.000149434573869031 0.000225862985804916 -1.06978620697705e-05 3.18157607121113e-05 0.000129123409979561 0.000168379797661735 0.000100851528543248 -8.14904293881362e-05 5.23140596726623e-06 2.1173759946483e-05 -6.85997894018881e-05
"188" 0.000400503874733954 0.000182430903293384 0.000138883491073211 0.000179973024337829 0.000231939083069166 0.000138548463019103 0.000213771250170689 -2.25400261881767e-05 2.68590530247551e-05 0.000121852974682347 0.000159312202630773 9.85633804588324e-05 -8.49211377737993e-05 -2.16198458443748e-06 1.33508037135123e-05 -7.24264506001954e-05
"189" 0.000389871164252779 0.0001741327272573 0.000127702821250577 0.000176849956949294 0.000221938354015017 0.000127223837383528 0.000201230236147014 -3.43927778753778e-05 2.14951243177378e-05 0.00011404533189486 0.000149718385525637 9.56892129108215e-05 -8.85806133050084e-05 -1.01303788588668e-05 4.96639629527895e-06 -7.64844320133689e-05
"190" 0.000378063792920602 0.000165092953517593 0.000116040262422655 0.000173151137091891 0.000211523851083862 0.000115494428994761 0.000188301537310335 -4.61797850515121e-05 1.57441210345592e-05 0.000105711000775492 0.000139633320340718 9.22297596825755e-05 -9.24871664378171e-05 -1.86192548369476e-05 -3.94104206779691e-06 -8.07708497437923e-05
"191" 0.000365133295580967 0.000155376034133074 0.00010396439150574 0.000168878399940978 0.000200742712593466 0.000103401750112508 0.000175062518000126 -5.78213087452687e-05 9.63076625311257e-06 9.68676627128552e-05 0.00012910059144003 8.81859503204571e-05 -9.66455655539366e-05 -2.75715467343645e-05 -1.3331769381296e-05 -8.5273873389487e-05
"192" 0.000351133167037298 0.000145030720508809 9.15448233166569e-05 0.000164038392141111 0.000189643078503024 9.09903889340948e-05 0.000161588379961958 -6.92406028291476e-05 3.18236768262036e-06 8.75373505214834e-05 0.000118166819422294 8.35638813725627e-05 -0.000101062006942399 -3.69358637147953e-05 -2.31621912340266e-05 -8.99806400484921e-05
"193" 0.000336137984752661 0.000134129484068571 7.88544453736948e-05 0.000158643270743691 0.000178283303201909 7.83056113190123e-05 0.000147963510593319 -8.03591922963034e-05 -3.57219275321856e-06 7.77470838501365e-05 0.000106886776469064 7.83811547633883e-05 -0.000105732960437073 -4.66375560872593e-05 -3.33772256648771e-05 -9.48717362351917e-05
"194" 0.000320218440884836 0.000122734518640358 6.5968651707608e-05 0.000152707195538072 0.000166714970361193 6.54021908616913e-05 0.000134268949078865 -9.11023504939764e-05 -1.06022498305839e-05 6.7523607373739e-05 9.53104636476752e-05 7.26557261367978e-05 -0.000110655842210903 -5.6619573328219e-05 -4.39285142539625e-05 -9.99261132230858e-05
"195" 0.000303464702238629 0.000110926125128118 5.29699385898358e-05 0.000146255519444576 0.000155003486986433 5.23339212127207e-05 0.000120587682875383 -0.000101399586257668 -1.78735344054807e-05 5.69018371942486e-05 8.35007382224977e-05 6.64094867090088e-05 -0.000115821241338734 -6.68084113412262e-05 -5.47566582994903e-05 -0.000105117538024924
"196" 0.000285965448568317 9.87781560314772e-05 3.9930079404867e-05 0.000139308951400575 0.000143204200266483 3.91630899144642e-05 0.000107009621812783 -0.000111176423046495 -2.53538471867667e-05 4.59147003625497e-05 7.15141503493975e-05 5.96730750744595e-05 -0.000121211718587801 -7.71400516072694e-05 -6.5803630120927e-05 -0.000110417487406377
"197" 0.000267826977557272 8.63734294504757e-05 2.69383164288112e-05 0.000131902970361856 0.000131384904939325 2.59503768399161e-05 9.36208701129833e-05 -0.000120368163958038 -3.30074001037669e-05 3.46035366640285e-05 5.94188572880674e-05 5.24788107704248e-05 -0.000126810893574113 -8.7540753647288e-05 -7.7007352727495e-05 -0.000115794785426215
"198" 0.00024915391844601 7.3792179761892e-05 1.40776412382758e-05 0.000124072247154988 0.000119605161135125 1.27556109631271e-05 8.05106741384801e-05 -0.000128910081355909 -4.07988771448317e-05 2.30116315333325e-05 4.72745438963242e-05 4.48650336813393e-05 -0.000132589500262528 -9.79436676606583e-05 -8.83057206230917e-05 -0.000121211731665002
"199" 0.000230061664881795 6.11279768501356e-05 1.42628696983238e-06 0.000115859584958013 0.000107931706914817 -3.48013130460938e-07 6.77619419849569e-05 -0.000136744501941805 -4.86901227061453e-05 1.11834668366283e-05 3.51498366723384e-05 3.68705562404925e-05 -0.000138520553512015 -0.000108275300769169 -9.96323572382605e-05 -0.000126635128756167
"200" 0.000210665885640388 4.84628581068073e-05 -1.09298818240704e-05 0.000107309981476874 9.64301716727906e-05 -1.3295964222693e-05 5.54645783108867e-05 -0.000143813898740477 -5.66440822921941e-05 -8.34672151812852e-07 2.3111193550716e-05 2.85462850640381e-05 -0.000144568868776603 -0.000118470679940855 -0.000110927338606499 -0.000132020317918323
"201" 0.000191091011313287 3.58883968511583e-05 -2.29117797147905e-05 9.84675386699553e-05 8.51628194048222e-05 -2.60191278198505e-05 4.36998456967568e-05 -0.000150065731961014 -6.46252237451912e-05 -1.2988483800729e-05 1.12251188419423e-05 1.99349755661152e-05 -0.000150694943214658 -0.000128463027969369 -0.000122122257121576 -0.000137327841445457
"202" 0.000171460383940737 2.34945112699747e-05 -3.44373009019699e-05 8.93913758556257e-05 7.42009697781659e-05 -3.84465056579099e-05 3.25513559238117e-05 -0.000155458225560017 -7.25931725559989e-05 -2.52242291632382e-05 -4.42619211191108e-07 1.10908038165067e-05 -0.000156853932186848 -0.000138186851310334 -0.000133151496701521 -0.000142513782141258
"203" 0.000151900200813587 1.13694311293516e-05 -4.54288213278797e-05 8.0127197108044e-05 6.35994931246679e-05 -5.05100412444403e-05 2.20927519272639e-05 -0.000159948269140556 -8.05117700931511e-05 -3.74920431700489e-05 -1.18270962511057e-05 2.06344025683347e-06 -0.000163002397217746 -0.000147582416198547 -0.000143956934756123 -0.000147531517262965
"204" 0.000132534441689339 -4.04839324515028e-07 -5.58192760775682e-05 7.07349199055851e-05 5.34195351587508e-05 -6.21426206421769e-05 1.23948748741072e-05 -0.000163504356103624 -8.83446469563466e-05 -4.97347220812084e-05 -2.28647416609921e-05 -7.08730960508519e-06 -0.000169090620209381 -0.000156588371233508 -0.000154471823477351 -0.000152340315073506
"205" 0.000113484790081954 -1.17408366381116e-05 -6.55344925398286e-05 6.12704040236348e-05 4.37246339860517e-05 -7.32765082892861e-05 3.52642564087287e-06 -0.000166096947591594 -9.60571067721256e-05 -6.18910047474542e-05 -3.34944110266451e-05 -1.63074878871191e-05 -0.00017506504708739 -0.00016515680256642 -0.000164642027494844 -0.000156893617448463
"206" 9.48765844327261e-05 -2.25562262957919e-05 -7.45061021277356e-05 5.17892935877493e-05 3.45671133487249e-05 -8.38476508570656e-05 -4.45077825925939e-06 -0.000167704791910436 -0.000103610917435603 -7.39101529192421e-05 -4.36610641348621e-05 -2.55451927788106e-05 -0.000180874274960815 -0.000173235038473688 -0.000174409231456781 -0.000161147435772255
"207" 7.68228855474171e-05 -3.27787466298135e-05 -8.26817512199875e-05 4.23516121953256e-05 2.60017093053235e-05 -9.37935336395043e-05 -1.14833888762983e-05 -0.000168313654113864 -0.000110975540920461 -8.57278080023952e-05 -5.33059615694788e-05 -3.47376526410243e-05 -0.000186463920052166 -0.000180781817212941 -0.000183715796510379 -0.000165059226296244
"208" 5.94395922635805e-05 -4.23346506441438e-05 -9.00034047574749e-05 3.30115161346e-05 1.80763301905318e-05 -0.000103059321381398 -1.75239882812755e-05 -0.000167917456400744 -0.000118117026848316 -9.72936510286022e-05 -6.23825727837119e-05 -4.38319783573917e-05 -0.000191780354860265 -0.000187758888928912 -0.000192520261149986 -0.000168589449694829
"209" 4.28261386130696e-05 -5.11644626481294e-05 -9.64258155855542e-05 2.38209681338092e-05 1.08359510619558e-05 -0.000111586907316747 -2.25380576591339e-05 -0.000166515118273044 -0.000125005959583999 -0.000108546826990004 -7.08432331484939e-05 -5.27740758540282e-05 -0.000196766573433548 -0.000194130295031785 -0.0002007685568984 -0.000171699306985956
"210" 2.70904363259845e-05 -5.92003452214685e-05 -0.000101907822687549 1.48379398063962e-05 4.31708718070786e-06 -0.000119331389034117 -2.64897296045777e-05 -0.000164114256529445 -0.000131610002591715 -0.000119434872245721 -7.86454835022276e-05 -6.15064398736509e-05 -0.000201370542558304 -0.000199872873921672 -0.000208424722836851 -0.000174348827143753
"211" 1.23185054978108e-05 -6.63913914166668e-05 -0.000106415614875462 6.11137894765849e-06 -1.44152943647412e-06 -0.000126246631857013 -2.93583081849798e-05 -0.000160723715514527 -0.000137902442836507 -0.000129902549975898 -8.57526309981782e-05 -6.99795017738344e-05 -0.00020553820577375 -0.000204959060160015 -0.000215449799061274 -0.000176508938136125
"212" -1.40813415307309e-06 -7.26994590118744e-05 -0.000109928049087508 -2.31469314659093e-06 -6.41167454357244e-06 -0.000132293516035188 -3.11325753738339e-05 -0.000156371349665725 -0.000143862036307918 -0.000139899219785012 -9.213538214849e-05 -7.81457276287396e-05 -0.000209224271251009 -0.000209383298810553 -0.000221815018677458 -0.000178149201085178
"213" -1.40163355967599e-05 -7.80840151778968e-05 -0.000112423122763245 -1.03946041817472e-05 -1.05698855810343e-05 -0.000137441893347506 -3.18112355026733e-05 -0.000151080619595609 -0.000149461903328732 -0.000149377843441838 -9.77675060395145e-05 -8.59558897673941e-05 -0.000212377138788638 -0.000213130118474207 -0.000227489393715804 -0.000179242122706399
"214" -2.54417743759906e-05 -8.25119971072906e-05 -0.000113893509669443 -1.80851096856226e-05 -1.38992755161624e-05 -0.000141669014949904 -3.13944512938015e-05 -0.00014489116848409 -0.000154681314328964 -0.000158293122807915 -0.000102629167024113 -9.33698783557193e-05 -0.000214957724155404 -0.000216200966405894 -0.000232456434889051 -0.000179769028430356
"215" -3.56395775238697e-05 -8.59705211729548e-05 -0.000114337860038239 -2.53550041420672e-05 -1.63887641814329e-05 -0.000144952650327593 -2.99060132215376e-05 -0.000137842546374804 -0.000159504992405619 -0.000166602696931974 -0.00010670812003017 -0.00010034700710097 -0.000216925421871015 -0.000218596820116464 -0.000236701169794423 -0.000179711899131353
"216" -4.4561780576347e-05 -8.84447262614541e-05 -0.000113766071783096 -3.21689057142248e-05 -1.80285131334305e-05 -0.000147280700199332 -2.73658413794907e-05 -0.000129982810646494 -0.000163915198204618 -0.000174264325248864 -0.000109992535860306 -0.000106848833174147 -0.000218241328319909 -0.000220328283466297 -0.000240212751141431 -0.000179057433787115
"217" -5.21823711324064e-05 -8.99314834818256e-05 -0.000112191323788842 -3.85016964802076e-05 -1.88239532502481e-05 -0.000148651904983847 -2.38094893912616e-05 -0.000121368029076861 -0.0001679022405429 -0.00018125230596297 -0.000112486228755936 -0.000112849345677973 -0.000218880114502607 -0.000221413689488146 -0.000242986720626682 -0.0001778011497491
"218" -5.84828677344405e-05 -9.04354576722969e-05 -0.000109636797238871 -4.43273994607546e-05 -1.87791212234445e-05 -0.000149068908775656 -1.92803312233271e-05 -0.000112055721309989 -0.000171453546631708 -0.000187530648458339 -0.000114189844954051 -0.000118318135772676 -0.000218815156382847 -0.00022187136909796 -0.000245027826192345 -0.000175937584492886
"219" -6.34540208302841e-05 -8.99701058116749e-05 -0.000106130416432872 -4.96271813517544e-05 -1.79085045669767e-05 -0.000148543858156996 -1.3832311731401e-05 -0.000102116063236583 -0.000174561182961969 -0.000193077006445373 -0.00011511273287674 -0.000123234310223445 -0.000218025492706263 -0.000221728247033038 -0.000246340710044068 -0.000173469919011911
"220" -6.70994671392363e-05 -8.85593077644573e-05 -0.000101718588190952 -5.43884536630652e-05 -1.62313723471929e-05 -0.000147088743696675 -7.52765751160735e-06 -9.16128037721857e-05 -0.00017722250799687 -0.000197869331103898 -0.000115273938402026 -0.00012757954784144 -0.000216495274803193 -0.000221014769345299 -0.000246942729045781 -0.000170406697427609
"221" -6.94363995961609e-05 -8.6233452985125e-05 -9.64383669072902e-05 -5.85989137928475e-05 -1.37719354983017e-05 -0.000144733013263364 -4.2998542420974e-07 -8.06262155581222e-05 -0.000179434917052581 -0.00020189224054966 -0.000114689785659923 -0.000131342010787823 -0.000214218904246308 -0.00021977009457694 -0.000246848920795928 -0.000166759481666723
"222" -7.04882637166335e-05 -8.30262800692767e-05 -9.03470134798141e-05 -6.22559975248245e-05 -1.05640742376829e-05 -0.000141508554314299 7.37999775019462e-06 -6.92306102541443e-05 -0.000181201592018109 -0.000205137047700911 -0.000113392601720802 -0.000134516803465082 -0.000211192922324811 -0.000218033443857627 -0.000246083548628581 -0.000162547401791194
"223" -7.02883497952981e-05 -7.8985853141896e-05 -8.35006988599958e-05 -6.53534005846589e-05 -6.6410693879152e-06 -0.000137450239108354 1.58274263814635e-05 -5.75040830230045e-05 -0.000182521646917785 -0.0002075928124447 -0.000111407767435993 -0.000137096593333486 -0.000207414071565036 -0.000215843464987082 -0.000244675779882548 -0.000157790229296233
"224" -6.88836470654747e-05 -7.41640990062762e-05 -7.59691230763814e-05 -6.78999822263981e-05 -2.04958741701442e-06 -0.000132608634407514 2.48136390404016e-05 -4.55381808017092e-05 -0.000183409505455591 -0.000209271930767394 -0.000108778462323289 -0.000139090729971781 -0.000202901369240566 -0.000213255829831329 -0.000242662700415353 -0.000152518506667402
"225" -6.63277982526417e-05 -6.86155269595072e-05 -6.78152534061857e-05 -6.98970843782854e-05 3.1652623648652e-06 -0.000127031707817658 3.42547666350469e-05 -3.34104344867898e-05 -0.000183864922149613 -0.000210167493356868 -0.00010553924431072 -0.000140501221885935 -0.000197664639778457 -0.000210314398186195 -0.000240078373387971 -0.000146764134919714
"226" -6.26779493208825e-05 -6.24051160097183e-05 -5.91157705732668e-05 -7.13556906531654e-05 8.95212854885484e-06 -0.000120773849174975 4.40508683410447e-05 -2.12077486972036e-05 -0.000183906334825732 -0.000210292926155506 -0.000101735217791277 -0.000141343524561058 -0.000191721046870068 -0.000207071423299727 -0.000236963813959768 -0.000140559517301474
"227" -5.80072531380132e-05 -5.56033062362835e-05 -4.99493123000538e-05 -7.22897956564986e-05 1.52492604668516e-05 -0.00011389988195023 5.40991755392618e-05 -9.02031658391411e-06 -0.000183541568368364 -0.000209667285028938 -9.74168475931581e-05 -0.000141633777947203 -0.000185099766969552 -0.00020358327735039 -0.000233365135393509 -0.000133945766491952
"228" -5.23881137196505e-05 -4.82759942252154e-05 -4.0391810889419e-05 -7.27163989274461e-05 2.20004951212156e-05 -0.000106474134202261 6.43007011845825e-05 3.07255461724778e-06 -0.000182790944303907 -0.000208308792417996 -9.26331600242573e-05 -0.000141392826951607 -0.000177830326819526 -0.000199902208657621 -0.000229332773078639 -0.000126969370149061
"229" -4.59111355186446e-05 -4.05057262251494e-05 -3.0539072250076e-05 -7.26574916795853e-05 2.91428298801281e-05 -9.85659313001249e-05 7.45496559336892e-05 1.49860302614273e-05 -0.000181671237858466 -0.000206241435128744 -8.74389929729532e-05 -0.000140647811273526 -0.000169949853707023 -0.000196087559908648 -0.000224914685239017 -0.000119673492002765
"230" -3.86532713750565e-05 -3.23650588561518e-05 -2.04634118481035e-05 -7.21305442541663e-05 3.66051047984863e-05 -9.02507402889049e-05 8.47434332377973e-05 2.66314208423809e-05 -0.000180198241887414 -0.000203496130444401 -8.18858593070824e-05 -0.000139426940901703 -0.000161496689776961 -0.000192192059486171 -0.000220163493051992 -0.000112108715059943
"231" -3.07126109624444e-05 -2.39391229711347e-05 -1.02567800566347e-05 -7.11644995467474e-05 4.43194943563334e-05 -8.16034966999034e-05 9.47761448566166e-05 3.79337433358838e-05 -0.000178399093508449 -0.000200112688302538 -7.60386361868534e-05 -0.000137763635834541 -0.000152519313025174 -0.000188272897577643 -0.000215138365940871 -0.000104332490132936
"232" -2.21811576928143e-05 -1.53086410612656e-05 -4.06364182842334e-09 -6.97846234267588e-05 5.22197967550658e-05 -7.27022969311334e-05 0.000104548805249781 4.88155983563751e-05 -0.000176288263719373 -0.000196118454391835 -6.99464716627426e-05 -0.00013569406707155 -0.000143064177451599 -0.000184381864798271 -0.000209890944610401 -9.63895493624348e-05
"233" -1.31621717770181e-05 -6.55827162812155e-06 1.0203720373211e-05 -6.80226766117863e-05 6.02223622621467e-05 -6.36278153675733e-05 0.00011395963851351 5.92002145472231e-05 -0.000173893089065368 -0.000191563953422368 -6.36770192000971e-05 -0.000133258804317289 -0.000133188206514765 -0.00018057565378175 -0.000204477498568025 -8.83446228489604e-05
"234" -3.75136793996041e-06 2.2329494017794e-06 2.02832015922219e-05 -6.59076012226048e-05 6.82620656065678e-05 -5.44587857855156e-05 0.000122912102102774 6.90257208762463e-05 -0.000171235943182497 -0.00018649395099225 -5.72817063153357e-05 -0.000130495942019044 -0.000122941178804369 -0.000176899639335241 -0.000198953839664785 -8.02473574802233e-05
"235" 5.94374291506729e-06 1.0975227144674e-05 3.01452925975325e-05 -6.34750705416636e-05 7.62617637462249e-05 -4.52783161283082e-05 0.000131316093049896 7.82242607483206e-05 -0.000168342298221459 -0.000180953334980315 -5.08235055059619e-05 -0.000127450985802263 -0.000112385702142232 -0.000173407442961883 -0.000193376746947596 -7.2160675446091e-05
"236" 1.58236387701991e-05 1.9593200152463e-05 3.97179337250535e-05 -6.07555834568398e-05 8.41485743402498e-05 -3.61653949165509e-05 0.00013908396592319 8.67354881225346e-05 -0.000165235323604162 -0.000174999658197001 -4.43602162261049e-05 -0.000124168536293085 -0.000101582953624432 -0.000170140146799646 -0.000187800835329737 -6.41411279556604e-05
"237" 2.57930485662145e-05 2.80072905846384e-05 4.8916245235682e-05 -5.7786026829719e-05 9.18506831259535e-05 -2.71950851550478e-05 0.000146135004760174 9.45114104861431e-05 -0.000161937493769473 -0.000168679519939078 -3.79447896064125e-05 -0.000120691727551346 -9.05953389651693e-05 -0.000167140764396697 -0.000182276985065266 -5.62420793950561e-05
"238" 3.57438850051937e-05 3.6142567237608e-05 5.7664626980946e-05 -5.46027670198719e-05 9.92928130206139e-05 -1.84483363940848e-05 0.000152396571094034 0.00010150209713577 -0.000158475160039874 -0.000162055114667638 -3.16343209681107e-05 -0.000117070383229634 -7.94833732856371e-05 -0.000164448847202673 -0.000176856804604739 -4.85219014641232e-05
"239" 4.55776519320819e-05 4.39188454710017e-05 6.58943921079872e-05 -5.12416174404477e-05 0.000106411580634212 -1.00021495594166e-05 0.000157800529931704 0.000107667816380474 -0.000154875696747181 -0.000155185018654713 -2.5482505532087e-05 -0.000113351348074622 -6.83201194458093e-05 -0.000162098451523758 -0.000171590472019487 -4.10364124413524e-05
"240" 5.52035218472456e-05 5.12759310753607e-05 7.35353663428907e-05 -4.77387287107073e-05 0.000113136934399186 -1.92198466255831e-06 0.000162290993804282 0.000112975957007642 -0.000151154813057154 -0.000148124514397646 -1.95334514151519e-05 -0.000109577647140442 -5.71623832209914e-05 -0.000160120248504151 -0.000166516578103645 -3.38344069319153e-05
"241" 6.45328637337264e-05 5.81458820241091e-05 8.05351960832206e-05 -4.41290215957046e-05 0.000119408370527697 5.72185392652022e-06 0.000165817580468608 0.000117401449861078 -0.000147343441202128 -0.000140931743058353 -1.38396715560375e-05 -0.000105795372805564 -4.60787893109541e-05 -0.000158536361075566 -0.000161678170256695 -2.69668600898334e-05
"242" 7.3477173309123e-05 6.44721498159894e-05 8.68332756679668e-05 -4.04486026727357e-05 0.000125164038043799 1.28662382950592e-05 0.00016833981241948 0.000120927240326471 -0.000143455633200121 -0.000133669737392638 -8.43937280146719e-06 -0.000102049643598926 -3.51293672791914e-05 -0.00015736856030729 -0.000157115410693476 -2.04786257541168e-05
"243" 8.1951927303984e-05 7.01967283980104e-05 9.23806902997165e-05 -3.67327059666565e-05 0.000130347407214175 1.94535386417376e-05 0.000169829005898947 0.000123536678658415 -0.000139516870565717 -0.000126396887435086 -3.37412686391352e-06 -9.83838832472224e-05 -2.43802901829804e-05 -0.000156632454075627 -0.000152855397546025 -1.44135147201411e-05
"244" 8.98903956424492e-05 7.52801876460806e-05 9.71410057706444e-05 -3.3010274245569e-05 0.00013491307263605 2.5429460170577e-05 0.000170262969385929 0.000125227319668938 -0.00013554436901338 -0.000119172080923622 1.32381794356067e-06 -9.48373561003085e-05 -1.38875147437746e-05 -0.000156335933453896 -0.000148929638293903 -8.80661725684967e-06
"245" 9.72192320371501e-05 7.96777550584326e-05 0.000101079472099471 -2.93162329346912e-05 0.000138813658268242 3.07487255467849e-05 0.000169634661184332 0.000126003649041597 -0.000131553843463491 -0.000112050455328747 5.62235291626845e-06 -9.1448647437157e-05 -3.7091609838272e-06 -0.00015648339853412 -0.000145358528756725 -3.69388059851772e-06
"246" 0.000103878515936373 8.33562297946635e-05 0.000104165105062292 -2.56759127812829e-05 0.000142006270024619 3.53661695165049e-05 0.000167939144069707 0.000125877986545961 -0.000127568276088916 -0.000105090831592688 9.4957770857885e-06 -8.8253920363778e-05 6.10248584165991e-06 -0.000157075717076141 -0.000142159198533915 8.97273301548424e-07
"247" 0.000109823677217401 8.62993148877978e-05 0.00010638587351404 -2.2117387674549e-05 0.000144464102103013 3.92519710876395e-05 0.000165192684618644 0.000124865802651541 -0.000123591599251294 -9.8341975009421e-05 1.2927309859958e-05 -8.52833759562693e-05 1.54969534208637e-05 -0.000158101957648092 -0.000139342216824877 4.95086227474719e-06
"248" 0.000115002780043726 8.84788835694372e-05 0.000107728567000276 -1.86641268278701e-05 0.000146152698493685 4.23725345986056e-05 0.000161411957989364 0.000122991399874735 -0.000119647882901136 -9.18580018686915e-05 1.58941950576685e-05 -8.25695270724542e-05 2.44274523084438e-05 -0.0001595544619647 -0.000136915112886006 8.44151113899418e-06
"249" 0.000119391665686794 8.9895237366651e-05 0.000108195880033618 -1.53317488954961e-05 0.000147059745236643 4.4712612527421e-05 0.000156630982422053 0.000120289260496315 -0.000115742788953615 -8.5684135063435e-05 1.83946721168197e-05 -8.01358717972472e-05 3.28569713257523e-05 -0.00016141316192095 -0.000134876814204977 1.13663744466107e-05
"250" 0.000122957819809533 9.05423153632454e-05 0.00010778660340112 -1.21430582867854e-05 0.000147163943881999 4.62535696898561e-05 0.000150890495389555 0.000116791937575268 -0.0001118872143215 -7.98685766013888e-05 2.04153682890206e-05 -7.80048853565214e-05 4.07472301115058e-05 -0.000163658862938405 -0.0001332224009374 1.37199879683355e-05
"251" 0.0001256909930361 9.04327947369205e-05 0.000106522041891305 -9.10644352105713e-06 0.000146465271384113 4.69890182304528e-05 0.000144240957565 0.000112545667610157 -0.000108084551190442 -7.44441211678978e-05 2.19627995819449e-05 -7.61918024122464e-05 4.80726563029394e-05 -0.000166259318503207 -0.000131941097710925 1.55037045102944e-05
"252" 0.000127583060875567 8.95773746212494e-05 0.000104424483772551 -6.23129100151847e-06 0.000144964120618023 4.69240821081288e-05 0.000136741718885114 0.000107604303696344 -0.000104348702544694 -6.94482066113838e-05 2.30359494951264e-05 -7.47129187961764e-05 5.48049390772336e-05 -0.000169186687654115 -0.000131018652270057 1.67278816053001e-05
"253" 0.000128640690800844 8.8006005644418e-05 0.000101524587204708 -3.52292572176925e-06 0.000142663980141616 4.60560762940143e-05 0.000128459419639336 0.000102009646870269 -0.000100678858912867 -6.49179430434148e-05 2.36475123942146e-05 -7.35815722411695e-05 6.09272453076072e-05 -0.000172404471543617 -0.000130431031203771 1.74090312464429e-05
"254" 0.000128875298078231 8.57456719935498e-05 9.78598838905191e-05 -9.80936134755518e-07 0.000139585189327311 4.44071596921082e-05 0.000119470239710779 9.58299474646105e-05 -9.70795491559198e-05 -6.08718802210092e-05 2.38095321012573e-05 -7.27983759316145e-05 6.64285113125747e-05 -0.000175874274395396 -0.000130155229960747 1.75701808628296e-05
"255" 0.000128309237122986 8.28352705978009e-05 9.34769148836855e-05 1.39375753730861e-06 0.000135741570903181 4.19946125377443e-05 0.000109857046144098 8.91249399610928e-05 -9.35525961381032e-05 -5.73325656077642e-05 2.35405195304372e-05 -7.23664554084552e-05 7.13045503167883e-05 -0.000179551951833805 -0.000130159817604457 1.72358102977397e-05
"256" 0.000126980507244993 7.93248307826432e-05 8.8431053834354e-05 3.61281708485263e-06 0.000131171290887609 3.88464673044901e-05 9.97091843647911e-05 8.19617720806671e-05 -9.00964482170895e-05 -5.43149806481657e-05 2.28651803094092e-05 -7.22825115087984e-05 7.55524375589971e-05 -0.00018339137267295 -0.000130411601853581 1.64438682618233e-05
"257" 0.000124918346851982 7.52622307685711e-05 8.2773981123908e-05 5.68289023168354e-06 0.000125902853583093 3.49966824022326e-05 8.91188108958159e-05 7.44047736590742e-05 -8.67114539914291e-05 -5.18302576649216e-05 2.18082783848293e-05 -7.25408098136449e-05 7.91820961810344e-05 -0.000187348554386433 -0.000130871421078994 1.52334915603461e-05
"258" 0.000122179800978561 7.07129877474043e-05 7.65820447295113e-05 7.62317492875375e-06 0.00011997992612214 3.04798499618834e-05 7.81885433923133e-05 6.65277240825505e-05 -8.33931073302399e-05 -4.98822038054587e-05 2.03954706482179e-05 -7.31365462606302e-05 8.22059394831249e-05 -0.000191370371873218 -0.0001315015350932 1.36457640920871e-05
"259" 0.000118812086504107 6.57299847610677e-05 6.99131227739686e-05 9.44633267041188e-06 0.000113445871204826 2.53464422245587e-05 6.70092257107489e-05 5.83978590638253e-05 -8.01388293162449e-05 -4.84650720667781e-05 1.86637890392221e-05 -7.40477478817534e-05 8.46393480017802e-05 -0.000195408939195229 -0.000132259446654257 1.17347552795877e-05
"260" 0.000114880842777229 6.03919685410339e-05 6.28485259850798e-05 1.11748614142539e-05 0.000106358852998502 1.96379004128377e-05 5.56903414844905e-05 5.00894695526383e-05 -7.69464602723036e-05 -4.75788902622315e-05 1.66439157874321e-05 -7.52662238701175e-05 8.65097071672965e-05 -0.000199412143574913 -0.000133099831732689 9.55079822191561e-06
"261" 0.000110451386086601 5.47643856864857e-05 5.54602175217753e-05 1.28314224438205e-05 9.87680680081413e-05 1.34112262089908e-05 4.433629941271e-05 4.16695700210822e-05 -7.38060164246939e-05 -4.72079537141152e-05 1.43733070909754e-05 -7.67668685948339e-05 8.78433362249987e-05 -0.000203330005334392 -0.000133979890295447 7.1527379962588e-06
"262" 0.000105587844221187 4.89223128105131e-05 4.78299359304822e-05 1.44384017173616e-05 9.07375675574533e-05 6.71881417115331e-06 3.30431570096555e-05 3.32172097507054e-05 -7.07145154432471e-05 -4.73314971875668e-05 1.18919861745846e-05 -7.85269330915423e-05 8.86766361136629e-05 -0.000207111767778379 -0.000134848769744725 4.5949508677971e-06
"263" 0.000100368196268507 4.29419940046738e-05 4.00393451844173e-05 1.60237964953532e-05 8.23303151223278e-05 -3.74731920797705e-07 2.19180889374026e-05 2.47957173006402e-05 -6.76670763592576e-05 -4.79305002093994e-05 9.23427073924175e-06 -8.05267702225135e-05 8.9044986178661e-05 -0.000210709430362399 -0.000135670639638225 1.94181681948628e-06
"264" 9.48650173446906e-05 3.69014348711788e-05 3.2169508686631e-05 1.7614524016268e-05 7.36135809902353e-05 -7.81912464851899e-06 1.10548426355725e-05 1.64708894835848e-05 -6.46578597890641e-05 -4.89786003638652e-05 6.4393575214636e-06 -8.27368972345083e-05 8.89864606425819e-05 -0.000214078013632601 -0.000136394981574673 -7.45841850794084e-07
"265" 8.91508485659673e-05 3.08769168944682e-05 2.43030712537134e-05 1.9232943738103e-05 6.46545466631652e-05 -1.55444699619515e-05 5.51281775890481e-07 8.30926624255353e-06 -6.16772468045412e-05 -5.04419641250294e-05 3.54783433099421e-06 -8.51264298479431e-05 8.85508346946556e-05 -0.00021717051158507 -0.000136981724579983 -3.40493408601646e-06
"266" 8.33081314784753e-05 2.49424367053592e-05 1.65151133883857e-05 2.09103446329692e-05 5.55238084157112e-05 -2.34927003543074e-05 -9.50701322050657e-06 3.6793197480616e-07 -5.8721814171665e-05 -5.22841411289721e-05 5.92376132627372e-07 -8.76702143302735e-05 8.77804766269166e-05 -0.000219947613400991 -0.000137393128037216 -5.97433139014251e-06
"267" 7.7402912902606e-05 1.91739343569443e-05 8.88893143212903e-06 2.26695975615995e-05 4.62865974728984e-05 -3.16006506789497e-05 -1.90386342961234e-05 -7.29067041806466e-06 -5.57884548232834e-05 -5.44710911595212e-05 -2.3861289429428e-06 -9.03345228618451e-05 8.67243727090716e-05 -0.000222373473318437 -0.000137588875397119 -8.39300819124325e-06
"268" 7.15143942540081e-05 1.36420065556083e-05 1.49627398009031e-06 2.45351080271004e-05 3.70216861723047e-05 -3.98022692397212e-05 -2.79603982766418e-05 -1.46167775962881e-05 -5.28690314660115e-05 -5.69533449784473e-05 -5.35648554385311e-06 -9.3088614967571e-05 8.54338750265186e-05 -0.000224412016829114 -0.000137538747791558 -1.0599365483013e-05
"269" 6.57034037338365e-05 8.4096992966039e-06 -5.59056750375267e-06 2.65270093793143e-05 2.77900396852559e-05 -4.8048152990003e-05 -3.6210128161049e-05 -2.15664996980807e-05 -4.99636343898972e-05 -5.96950302302152e-05 -8.28534393354743e-06 -9.59048060983878e-05 8.39509815310164e-05 -0.00022603608902175 -0.000137211265360272 -1.25391767210466e-05
"270" 6.0038414944003e-05 3.54574527603861e-06 -1.23068266623898e-05 2.86663977514979e-05 1.86599320721254e-05 -5.62727659359242e-05 -4.37261613739814e-05 -2.80933129147709e-05 -4.70645124226709e-05 -6.26423139864417e-05 -1.11406444136293e-05 -9.87461006301618e-05 8.23334949058547e-05 -0.00022721893437068 -0.000136582206019451 -1.4156141704237e-05
"271" 5.45772827136766e-05 -8.98217891755047e-07 -1.85885600258561e-05 3.0965315800835e-05 9.69774129944933e-06 -6.44244580491311e-05 -5.04593385055773e-05 -3.41637434374009e-05 -4.41767320569314e-05 -6.57533664745359e-05 -1.39039326752548e-05 -0.00010158657578004 8.06243137738896e-05 -0.000227945789364329 -0.000135634735922863 -1.54050883066247e-05
"272" 4.93689920638721e-05 -4.8665996892493e-06 -2.43844913481725e-05 3.34388732907638e-05 9.66493476464522e-07 -7.24491264396316e-05 -5.6371422807446e-05 -3.97450155669244e-05 -4.12958372853127e-05 -6.89769168975856e-05 -1.65442424235508e-05 -0.000104395102306464 7.88702190609957e-05 -0.000228200050075055 -0.000134351637051183 -1.62386188898004e-05
"273" 4.44609317209961e-05 -8.32188655510784e-06 -2.96423805608227e-05 3.60919397930604e-05 -7.47944072049145e-06 -8.0305766259516e-05 -6.14328287444434e-05 -4.48156353896885e-05 -3.84237811885698e-05 -7.22697523808333e-05 -1.90458898990774e-05 -0.000107140720931708 7.71181513342681e-05 -0.000227973466469531 -0.00013272458506208 -1.66169232386665e-05
"274" 3.989176994878e-05 -1.12211945917892e-05 -3.43250649274643e-05 3.89302720903494e-05 -1.5584383596321e-05 -8.79458860231824e-05 -6.56239451094889e-05 -4.9356207710106e-05 -3.5567481465365e-05 -7.55782724609311e-05 -2.13927644795308e-05 -0.000109801436253576 7.54063479313103e-05 -0.000227268164031961 -0.000130753134016286 -1.65032557209223e-05
"275" 3.56907158999991e-05 -1.35363931294631e-05 -3.83967797550814e-05 4.19514828648589e-05 -2.33025741812754e-05 -9.5330388131508e-05 -6.89403417801517e-05 -5.33538568694645e-05 -3.27293646153015e-05 -7.88570450002975e-05 -2.35704242378838e-05 -0.0001123458557643 7.37777368697255e-05 -0.000226082540979287 -0.000128435368630076 -1.58728913856807e-05
"276" 3.18765009863569e-05 -1.52511346535892e-05 -4.1836058176323e-05 4.51472496346414e-05 -3.05860250891212e-05 -0.000102431644211138 -7.13824181469751e-05 -5.68063362380528e-05 -2.99158559862649e-05 -8.20671354256711e-05 -2.5574998596384e-05 -0.000114757037127123 7.22645393321577e-05 -0.000224426603368631 -0.000125783487311958 -1.46984331906508e-05
"277" 2.84659862552133e-05 -1.63451530169922e-05 -4.46234346164051e-05 4.85071785162432e-05 -3.74000305009409e-05 -0.000109220365910155 -7.2966985928682e-05 -5.97112912639899e-05 -2.71334011651586e-05 -8.51587382398807e-05 -2.7398384194954e-05 -0.000117005712315806 7.0898925820648e-05 -0.000222316457461435 -0.000122811239524669 -1.29684647896919e-05
"278" 2.54605408473543e-05 -1.68208619569476e-05 -4.67546928495801e-05 5.20150445988432e-05 -4.37142317050505e-05 -0.000115671351239167 -7.37205342945127e-05 -6.20766188638175e-05 -2.43952755061927e-05 -8.80992187147356e-05 -2.90431265874795e-05 -0.000119081057865742 6.97052494903522e-05 -0.00021977243270756 -0.000119541095946488 -1.06733267041562e-05
"279" 2.28518920097105e-05 -1.66796244637039e-05 -4.82238456830242e-05 5.56445227607356e-05 -4.94988101448336e-05 -0.000121770565872187 -7.36804186772332e-05 -6.39196857626557e-05 -2.17109074542342e-05 -9.08479781398159e-05 -3.05124619041084e-05 -0.000120962325216844 6.87076442110179e-05 -0.000216817366284091 -0.000115996287784712 -7.809226312586e-06
"280" 2.06300125204485e-05 -1.59378246332815e-05 -4.90457923998857e-05 5.93712959982002e-05 -5.47405505261478e-05 -0.000127507768980956 -7.28915132298385e-05 -6.52518882212538e-05 -1.90961556345795e-05 -9.33750631227314e-05 -3.18154123838389e-05 -0.000122635119357556 6.79239178020406e-05 -0.000213484206218215 -0.000112212498806043 -4.38316048701753e-06
"281" 1.87707200897735e-05 -1.46112877282161e-05 -4.9239841887777e-05 6.31608727713879e-05 -5.9425610762426e-05 -0.000132874946008645 -7.14109708490813e-05 -6.61037175152762e-05 -1.65610335513242e-05 -9.56461762195855e-05 -3.29623554875819e-05 -0.000124086943109803 6.73643808518541e-05 -0.000209807436132823 -0.000108224114203343 -4.09008589488414e-07
"282" 1.7243441346917e-05 -1.273367212496e-05 -4.88261719351251e-05 6.69787785861816e-05 -6.3543508781375e-05 -0.000137876565678927 -6.9305701445576e-05 -6.65009915134151e-05 -1.41250921087259e-05 -9.76419224573123e-05 -3.39678039502826e-05 -0.000125310526687218 6.7035992658227e-05 -0.00020582582003454 -0.000104074839427741 4.09940103458462e-06
"283" 1.60089037994101e-05 -1.03404175945698e-05 -4.78414230317485e-05 7.07801575306048e-05 -6.71004727965625e-05 -0.000142514009693848 -6.66457695779292e-05 -6.64772506053315e-05 -1.18040009731194e-05 -9.93401971723203e-05 -3.48502589420786e-05 -0.000126297397082119 6.69432820162245e-05 -0.000201583909223997 -9.9807740263203e-05 9.1119023971021e-06
"284" 1.50188657968259e-05 -7.4765977068533e-06 -4.63264208797168e-05 7.45185467629199e-05 -7.01022039382719e-05 -0.000146800642721769 -6.35161923917726e-05 -6.60730449643468e-05 -9.61512592238452e-06 -0.000100726352739424 -3.56301433072845e-05 -0.000127043991130517 6.70794601604085e-05 -0.000197127472990431 -9.54741040259419e-05 1.45964684404524e-05
"285" 1.42193789895036e-05 -4.19390454888266e-06 -4.43298710553729e-05 7.81444513112068e-05 -7.25673482040161e-05 -0.000150750135818856 -6.00010980397572e-05 -6.53274422331466e-05 -7.57795073292542e-06 -0.000101787821438975 -3.63297621138968e-05 -0.000127546807519534 6.74388518146543e-05 -0.0001925058452913 -9.11265145525696e-05 2.05135767963624e-05
"286" 1.3553683003924e-05 -5.50185746382838e-07 -4.19081806201834e-05 8.16040620889453e-05 -7.45078352394378e-05 -0.000154382326130128 -5.61942939342735e-05 -6.42890394340084e-05 -5.70868318470713e-06 -0.00010251795876519 -3.69730038176268e-05 -0.000127807866584812 6.80081584622171e-05 -0.00018777359540627 -8.68203698221287e-05 2.68209791177428e-05
"287" 1.29567980732775e-05 3.39594428329853e-06 -3.91247815233259e-05 8.48424807918576e-05 -7.5955910820184e-05 -0.000157720893887041 -5.21907909778458e-05 -6.299932194852e-05 -4.02991775767541e-06 -0.00010291707117301 -3.75900555638306e-05 -0.000127828645421753 6.87708191372108e-05 -0.000182980925611422 -8.26132757043556e-05 3.34662651997445e-05
"288" 1.23637148664789e-05 7.57589539297739e-06 -3.60331257658345e-05 8.78055347698587e-05 -7.69328512070307e-05 -0.000160788162046233 -4.80856123519858e-05 -6.15086436017354e-05 -2.55190468705339e-06 -0.000102984461225767 -3.820431698369e-05 -0.000127607277205835 6.97075858900036e-05 -0.00017818412904289 -7.85612076964224e-05 4.0396550745434e-05
"289" 1.16984929238431e-05 1.19139099199348e-05 -3.27164530536206e-05 9.04283649586735e-05 -7.7489141590735e-05 -0.000163614830563746 -4.39855374631385e-05 -5.98719330024287e-05 -1.30149181849743e-06 -0.000102731421391969 -3.88465466568702e-05 -0.000127155862148308 7.07898866376808e-05 -0.000173439367772333 -7.47239834229645e-05 4.75504992359721e-05
"290" 1.08930237676965e-05 1.63452341308738e-05 -2.92394895242624e-05 9.26571908390408e-05 -7.76488029088359e-05 -0.000166229595850747 -3.99829409452371e-05 -5.81320229090986e-05 -2.90012252972708e-07 -0.000102163432347048 -3.95433519333424e-05 -0.000126478609959778 7.19941967228369e-05 -0.000168802555808642 -7.11611464924852e-05 5.48647146795217e-05
"291" 9.86446795015156e-06 2.07870982371633e-05 -2.56813638852972e-05 9.44284722288616e-05 -7.74668425270336e-05 -0.000168667904498785 -3.61855186503577e-05 -5.63470284178286e-05 4.640620555067e-07 -0.00010130150757405 -4.03202818342624e-05 -0.000125580318080044 7.32874883891547e-05 -0.000164324538576361 -6.7927910043663e-05 6.22763057888379e-05
"292" 8.54867818385733e-06 2.51677540814497e-05 -2.21182534899654e-05 9.56882849079194e-05 -7.69822176953106e-05 -0.000170958566269802 -3.26857410003126e-05 -5.45626493267647e-05 9.46737849123763e-07 -0.000100164415140915 -4.12128489427902e-05 -0.000124473253364836 7.46364468300274e-05 -0.000160067043522057 -6.50806344421615e-05 6.97140595883715e-05
"293" 6.87032232806607e-06 2.9412713496142e-05 -1.86241012831545e-05 9.63791809908856e-05 -7.62478823509795e-05 -0.000173131750855366 -2.95737302173378e-05 -5.28258954909637e-05 1.148866751857e-06 -9.87670299719113e-05 -4.22380884451357e-05 -0.000123164851707506 7.60107493491788e-05 -0.000156074390554402 -6.26709086109495e-05 7.7108320271237e-05
"294" 4.75553249131683e-06 3.34430874895341e-05 -1.52803100525798e-05 9.64476975595558e-05 -7.53167604119185e-05 -0.000175222823668402 -2.69436091594639e-05 -5.11858619549577e-05 1.05687605299164e-06 -9.71409958025998e-05 -4.34244655294078e-05 -0.00012166525884824 7.73698772836328e-05 -0.000152399358884493 -6.0749359726791e-05 8.43922575465772e-05
"295" 2.14271164589008e-06 3.718778713019e-05 -1.21564794955182e-05 9.58444238298587e-05 -7.42334945882497e-05 -0.000177258005367833 -2.48731771282147e-05 -4.9682677708153e-05 6.61941986091527e-07 -9.53092184071849e-05 -4.4793288962586e-05 -0.000119980665987086 7.86823490456709e-05 -0.000149087942165225 -5.93588164375681e-05 9.14922984578542e-05
"296" -1.03077202946444e-06 4.05823979194844e-05 -9.32644857614019e-06 9.45265562212947e-05 -7.30548292620069e-05 -0.00017926813379819 -2.34403056434144e-05 -4.83630267478536e-05 -3.87496289917547e-08 -9.33011619483945e-05 -4.63640402922121e-05 -0.000118127250542607 7.99111875702329e-05 -0.000146182799520666 -5.85412758589348e-05 9.83427778314801e-05
"297" -4.82296290293417e-06 4.35545497298202e-05 -6.86270565672701e-06 9.24513800693266e-05 -7.18328130263571e-05 -0.000181275635420813 -2.27126099542086e-05 -4.72569220143327e-05 -1.04975288967067e-06 -9.11468027654591e-05 -4.81548815190372e-05 -0.000116109375973847 8.10190580020953e-05 -0.000143722724355728 -5.83324547077848e-05 0.00010487078395878
"298" -9.28367204990174e-06 4.60489295840894e-05 -4.83000969823993e-06 8.95831465999527e-05 -7.06151185613984e-05 -0.000183302962745183 -2.27443296282511e-05 -4.64018288849745e-05 -2.37019137217286e-06 -8.88780721502701e-05 -5.01771745002112e-05 -0.000113935575581625 8.19720555450393e-05 -0.000141741474372207 -5.87592265121147e-05 0.000111014690642022
"299" -1.44503461245167e-05 4.80074638528864e-05 -3.28214417621071e-06 8.58964266636218e-05 -6.94566774828327e-05 -0.000185371418616263 -2.35874294448423e-05 -4.58238340050739e-05 -3.99708299423554e-06 -8.65284153427413e-05 -5.24442265735342e-05 -0.000111618314645528 8.274290321495e-05 -0.00014027040626456 -5.98456219410049e-05 0.000116711750700183
"300" -2.03617152975823e-05 4.93846253864122e-05 -2.27880038148762e-06 8.13696594881487e-05 -6.83960177207642e-05 -0.0001874901903022 -2.52785801966272e-05 -4.55453872910282e-05 -5.92452182651142e-06 -8.41224508991968e-05 -5.49593280634605e-05 -0.000109160410000679 8.32996620090958e-05 -0.000139331553342705 -6.16082855275719e-05 0.000121906375042924
"301" -2.70397489597593e-05 5.01378907171464e-05 -1.86566376506608e-06 7.59887348276914e-05 -6.74838859421427e-05 -0.000189679589400812 -2.78423463402502e-05 -4.55890856034116e-05 -8.14361150862407e-06 -8.16988731437986e-05 -5.77262794844437e-05 -0.000106572761125011 8.3610360123579e-05 -0.000138944200512996 -6.40567605694182e-05 0.000126543244143724
"302" -3.45009565192941e-05 5.0236519668904e-05 -2.0804328885999e-06 6.97471003959133e-05 -6.67591512843658e-05 -0.000191933048695903 -3.12976123139148e-05 -4.59595988383437e-05 -1.06369445238427e-05 -7.92848477191649e-05 -6.07457520355404e-05 -0.000103856381109594 8.36605483253956e-05 -0.000139122487174068 -6.71876573047224e-05 0.000130577700816383
"303" -4.27437638381964e-05 4.96538970351808e-05 -2.95561827697559e-06 6.2652904333428e-05 -6.62535930740944e-05 -0.000194260382811555 -3.56431423921471e-05 -4.66709040771269e-05 -1.33891492324216e-05 -7.69050722159727e-05 -6.40075220852151e-05 -0.000101017918207448 8.34257976800367e-05 -0.000139868864432637 -7.09975536481048e-05 0.000133966341874435
"304" -5.17696259909342e-05 4.83731836856298e-05 -4.51387625006188e-06 5.4710993696556e-05 -6.60052982603536e-05 -0.000196652483623225 -4.0872297608311e-05 -4.77230095236495e-05 -1.63837513614867e-05 -7.45922062596665e-05 -6.75060960096884e-05 -9.80615582250114e-05 8.28901617835117e-05 -0.000141187989394205 -7.54692546791294e-05 0.000136676374902566
"305" -6.15585424041291e-05 4.63841759081358e-05 -6.77376589119585e-06 4.59437436394177e-05 -6.6036383516575e-05 -0.000199102370990999 -4.69649303252676e-05 -4.91088716302458e-05 -1.95941639087671e-05 -7.23624892811891e-05 -7.12243183824227e-05 -9.4983971864911e-05 8.20461139622198e-05 -0.000143070523082229 -8.0581513099092e-05 0.000138680369155908
"306" -7.20816489465607e-05 4.36943352866657e-05 -9.737783173394e-06 3.63833499442488e-05 -6.63729305271068e-05 -0.000201593227861366 -5.38844168024324e-05 -5.08225573465459e-05 -2.29907575108805e-05 -7.02433227378479e-05 -7.51451509753348e-05 -9.17882187311679e-05 8.08860643247914e-05 -0.000145505696565451 -8.63009654792069e-05 0.000139958263654166
"307" -8.33051487153163e-05 4.03089009344956e-05 -1.34041787101017e-05 2.60629954882298e-05 -6.70285720139241e-05 -0.00020410655936151 -6.15876770685087e-05 -5.28475221627853e-05 -2.65459810675644e-05 -6.82523961020086e-05 -7.92442351220658e-05 -8.8472457040147e-05 7.94068388072129e-05 -0.000148470957186177 -9.25893462629021e-05 0.000140496013351282
"308" -9.51797405622666e-05 3.62440745927449e-05 -1.77607423164998e-05 1.50299996752517e-05 -6.80160718712362e-05 -0.000206619318318534 -7.00206931248107e-05 -5.51646031208696e-05 -3.02243918275548e-05 -6.64032161949095e-05 -8.34950475846035e-05 -8.50342339861055e-05 7.76155847816035e-05 -0.000151947395798269 -9.94030723700999e-05 0.00014029036545895
"309" -0.000107644735528986 3.15323591491192e-05 -2.27863798139872e-05 3.3416383506433e-06 -6.93364996554398e-05 -0.00020910315528118 -7.91144732800166e-05 -5.77484973614811e-05 -3.39915517924518e-05 -6.47094228665768e-05 -8.78694102882005e-05 -8.1470564967631e-05 7.55182510271225e-05 -0.000155899211181215 -0.000106685130115775 0.00013934487124249
"310" -0.000120633619424039 2.62061407875738e-05 -2.84557252585026e-05 -8.94602568473356e-06 -7.09911869653225e-05 -0.000211521918060826 -8.87936000312682e-05 -6.05636569579691e-05 -3.78060560924356e-05 -6.31753544526794e-05 -9.23324398428232e-05 -7.77726222576082e-05 7.31318020348519e-05 -0.000160287945228142 -0.000114376391097607 0.000137672360101396
"311" -0.000134070903704801 2.03077315720084e-05 -3.47242471207223e-05 -2.17581092664779e-05 -7.29758890429918e-05 -0.000213844189615794 -9.89747661448944e-05 -6.35884600288672e-05 -4.16259393033493e-05 -6.18045679974821e-05 -9.68446018563744e-05 -7.39363133443606e-05 7.0472261042242e-05 -0.000165074149170948 -0.000122406296004712 0.000135292033639722
"312" -0.00014786952548273 1.38882746962418e-05 -4.155186714707e-05 -3.5021140093657e-05 -7.52740254886597e-05 -0.000216024767204241 -0.000109559850659725 -6.6775204983597e-05 -4.54024727838586e-05 -6.05996914353245e-05 -0.000101365007317085 -6.99523776706914e-05 6.75696878628509e-05 -0.000170206777681045 -0.000130699988281116 0.000132234072826342
"313" -0.000161937169086747 7.00453133666131e-06 -4.88810634729842e-05 -4.86517516528589e-05 -7.7870726224264e-05 -0.00021802798003043 -0.000120448454403056 -7.00902717453224e-05 -4.90940958442546e-05 -5.95547400139158e-05 -0.000105852289164082 -6.58136256709192e-05 6.44436664049043e-05 -0.000175633901689367 -0.000139182502441849 0.000128529007819916
"314" -0.000176174582770046 -2.83851230075143e-07 -5.66541663326514e-05 -6.25631336807189e-05 -8.07398428111426e-05 -0.000219799708635238 -0.000131536256366424 -7.34877754931709e-05 -5.26480346034287e-05 -5.86612961068249e-05 -0.000110260592358233 -6.15122831320873e-05 6.11319790840822e-05 -0.000181300516968482 -0.000147765491404943 0.000124221841505336
"315" -0.000190475227615714 -7.90239992942946e-06 -6.48057200409864e-05 -7.66594461349492e-05 -8.38527559575075e-05 -0.00022129742196717 -0.000142704735872972 -7.69194112424873e-05 -5.6012171511913e-05 -5.79019929857906e-05 -0.000114540889112958 -5.7033919810478e-05 5.76741072179163e-05 -0.000187140181060745 -0.000156362341164703 0.00011936377530024
"316" -0.00020473497494907 -1.57883313864068e-05 -7.32691155808447e-05 -9.08517371889188e-05 -8.71789405974397e-05 -0.000222473104692795 -0.00015384181430755 -8.03425794987605e-05 -5.91393620234568e-05 -5.72653563734563e-05 -0.00011864491040791 -5.23723170460059e-05 5.41066915499765e-05 -0.000193089599455735 -0.000164880763293058 0.000114004346115837
"317" -0.00021883949994096 -2.38653309633499e-05 -8.19616443543249e-05 -0.000105038211256196 -9.06835582421238e-05 -0.000223285129421999 -0.000164831472963526 -8.37121174251677e-05 -6.19754227268718e-05 -5.67338919605236e-05 -0.000122526485569387 -4.75202692899246e-05 5.04688974070858e-05 -0.000199085149009583 -0.000173230298248159 0.000108209127629572
"318" -0.000232667021060405 -3.20470716203829e-05 -9.08027981630529e-05 -0.000119114108171288 -9.43206535603504e-05 -0.000223673809873652 -0.000175546608347921 -8.69749281705138e-05 -6.44628231443055e-05 -5.62726643537787e-05 -0.000126127543271708 -4.24597478101071e-05 4.68143262011212e-05 -0.000205048519132839 -0.000181310251386763 0.000102046614266073
"319" -0.000246106337934765 -4.02587546924763e-05 -9.97150581785022e-05 -0.00013297878480164 -9.80459242239124e-05 -0.000223597797269468 -0.0001858730585311 -9.00877164841989e-05 -6.65533494368328e-05 -5.58610325567593e-05 -0.000129400449547068 -3.7186118749007e-05 4.3193118409289e-05 -0.000210911655738028 -0.000189022552043425 9.55876180354562e-05
"320" -0.000259046585887216 -4.84254981634213e-05 -0.000108613656772204 -0.000146535197770129 -0.000101816974265548 -0.000223015203507954 -0.000195690400761829 -9.29997477315394e-05 -6.81939937484792e-05 -5.54705645604049e-05 -0.000132300095465788 -3.16907838235647e-05 3.96465027370895e-05 -0.000216602140274437 -0.000196279077098743 8.88998276165698e-05
"321" -0.000271361571009198 -5.64618945473933e-05 -0.000117410791092902 -0.000159678873949066 -0.0001055820842528 -0.000221876762508768 -0.000204881200122587 -9.56688682655664e-05 -6.93300572239867e-05 -5.50628568440272e-05 -0.0001347687241079 -2.59631335829604e-05 3.62330595641812e-05 -0.000222044417712861 -0.000202975240107765 8.20699056767562e-05
"322" -0.000282942806394529 -6.42900916118488e-05 -0.000126021257797916 -0.000172309831448617 -0.000109289084379161 -0.000220145461005803 -0.000213336149853886 -9.80519795803781e-05 -6.99130406446137e-05 -5.4605395053337e-05 -0.000136764148734767 -1.99974184877238e-05 3.30032075205888e-05 -0.00022716806735152 -0.00020902082875768 7.51740777176845e-05
"323" -0.000293676757534248 -7.18298826057393e-05 -0.000134356767510513 -0.000184329506593741 -0.000112887979648643 -0.000217782943338751 -0.000220946161911348 -0.000100107211407687 -6.98943466503176e-05 -5.40564470491195e-05 -0.000138238693128855 -1.37862355180151e-05 3.00076658842371e-05 -0.000231895586040658 -0.000214326266294243 6.82949407251073e-05
"324" -0.00030346447092628 -7.90115084634108e-05 -0.000142340923433003 -0.000195649557999745 -0.00011633044007542 -0.000214759380747872 -0.000227612615007164 -0.000101799471461952 -6.92297462315816e-05 -5.33802155761157e-05 -0.000139148564362183 -7.32846873750309e-06 2.7297855857185e-05 -0.000236159733349883 -0.000218803720980388 6.15138452550491e-05
"325" -0.000312200387713339 -8.5760714287122e-05 -0.000149889134858772 -0.000206178920984392 -0.00011955998986863 -0.000211045483892015 -0.000233242090824873 -0.000103094025578936 -6.78730822124375e-05 -5.25362754990804e-05 -0.00013945330370605 -6.17570870265516e-07 2.49242624352684e-05 -0.000239889470458329 -0.00022236956088752 5.49165710125263e-05
"326" -0.000319790407250171 -9.20113032696441e-05 -0.000156921975766449 -0.000215831419978588 -0.000122527036339052 -0.000206617678617182 -0.000237752541405474 -0.000103960351626287 -6.57860074814785e-05 -5.14819038920138e-05 -0.00013911701570519 6.3452563128627e-06 2.29341632756205e-05 -0.000243021194826621 -0.000224950332535088 4.85831706441673e-05
"327" -0.000326148732269573 -9.77021279201489e-05 -0.000163364953136986 -0.000224532660819188 -0.000125184443774991 -0.000201459487918598 -0.000241063530853263 -0.000104374704253202 -6.29326899590904e-05 -5.0178785793702e-05 -0.000138103232476476 1.35578942746752e-05 2.13722886386605e-05 -0.000245487384155134 -0.000226469642865214 4.2591989447023e-05
"328" -0.000331195272742325 -0.000102772472623331 -0.000169154049636342 -0.000232211172055594 -0.000127488134852159 -0.000195561555351119 -0.000243118338619218 -0.00010431481037652 -5.92823233707006e-05 -4.8588942931816e-05 -0.000136386192876529 2.10128920976675e-05 2.02856987367074e-05 -0.000247236885504737 -0.000226872815013026 3.70238044220775e-05
"329" -0.000334856819803994 -0.000107174791704257 -0.000174221655953023 -0.000238799006655145 -0.000129389552607752 -0.000188915272670098 -0.000243858272457794 -0.000103765346103228 -5.480693909141e-05 -4.66706129618114e-05 -0.000133940422546874 2.87091667004201e-05 1.97105144075548e-05 -0.000248208483998922 -0.000226094652108203 3.19525945221326e-05
"330" -0.000337075270768993 -0.00011086179747658 -0.000178510037449375 -0.000244245308670506 -0.000130855488491127 -0.000181526875120589 -0.000243245171518082 -0.000102718040699172 -4.94878363526292e-05 -4.43891306887314e-05 -0.000130744520681154 3.66361720132289e-05 1.96805737968736e-05 -0.000248354517460751 -0.000224096133328521 2.74481639816743e-05
"331" -0.000337798696298063 -0.000113795606475752 -0.000181969599921793 -0.000248498925228002 -0.000131840109891986 -0.000173401960497896 -0.000241248288303906 -0.000101165613824365 -4.33048531508686e-05 -4.1705984830403e-05 -0.000126785269888808 4.47768647453e-05 2.02313066863298e-05 -0.000247633421507633 -0.00022083573894347 2.35787297338199e-05
"332" -0.000336990173529406 -0.000115950002951692 -0.000184556004029278 -0.000251524598546531 -0.000132323432280129 -0.000164559778681698 -0.000237853295850073 -9.91120091780006e-05 -3.6253966776066e-05 -3.85964823091825e-05 -0.000122057313860903 5.31220615486587e-05 2.13828363912289e-05 -0.000246007581460385 -0.000216287671432138 2.04021866409665e-05
"333" -0.000334609089833753 -0.000117298040881452 -0.000186232044545443 -0.000253290213739209 -0.00013226842864836 -0.000155018956243218 -0.000233058927890215 -9.65580214401229e-05 -2.83258738644284e-05 -3.50250926357223e-05 -0.000116555991788029 6.1650695786949e-05 2.3160080013162e-05 -0.000243446638742194 -0.000210432731293154 1.79750033169138e-05
"334" -0.000330648619192825 -0.000117824945690501 -0.000186971585344834 -0.000253778735938119 -0.000131659803781914 -0.000144815691520589 -0.000226875982530957 -9.35233510214682e-05 -1.95282322408862e-05 -3.09745294740843e-05 -0.000110282401483734 7.03412453936922e-05 2.55740171223491e-05 -0.00023992746080536 -0.000203264595935811 1.63467396996376e-05
"335" -0.000325095697797559 -0.000117523741322507 -0.000186752891289388 -0.000252976711153154 -0.000130481283186035 -0.000133979013262317 -0.00021932375338203 -9.00203335959184e-05 -9.86848072032106e-06 -2.64196226840275e-05 -0.000103248846065357 7.91727630428676e-05 2.86372331692309e-05 -0.00023543464952449 -0.000194785802178587 1.55566299439403e-05
"336" -0.000317957314762692 -0.000116396478044657 -0.00018556357536152 -0.000250889150076822 -0.00012872090819933 -0.000122555660241912 -0.000210445147996409 -8.60701173895461e-05 6.37608615994417e-07 -2.13442763845702e-05 -9.54696622497818e-05 8.81198238817643e-05 3.23486734150489e-05 -0.000229952180624821 -0.000185011444364761 1.56428199215492e-05
"337" -0.000309248439599103 -0.000114445284837817 -0.000183404372446105 -0.000247521625530719 -0.000126377622771344 -0.000110599252731694 -0.000200289664857134 -8.17092486841024e-05 1.1963716370578e-05 -1.57397932364226e-05 -8.69672543104018e-05 9.71475950997529e-05 3.67066911494979e-05 -0.000223486208202362 -0.000173964098585319 1.66301365090194e-05
"338" -0.000298994283633495 -0.000111692624583357 -0.0001802747081761 -0.000242895135996091 -0.000123450909400752 -9.81613955165126e-05 -0.00018891744519046 -7.69629365674133e-05 2.40836769330461e-05 -9.600935936071e-06 -7.77682332401911e-05 0.00010623450286827 4.16997527923423e-05 -0.000216037834214657 -0.000161681990369729 1.85397170179253e-05
"339" -0.000287235468715924 -0.000108159134189992 -0.000176189376185266 -0.000237041548209087 -0.000119952853794509 -8.53041609160995e-05 -0.000176404395661784 -7.18701110010812e-05 3.69564815709938e-05 -2.92683251273505e-06 -6.79054415250547e-05 0.000115342504818771 4.731097826021e-05 -0.000207621538929988 -0.000148210284207986 2.13811784330027e-05
"340" -0.000274022619831139 -0.000103872520249809 -0.000171173626121315 -0.000229998249828574 -0.000115898316195172 -7.20948865104717e-05 -0.000162837759101215 -6.64784775776393e-05 5.05425195634953e-05 4.27669120991634e-06 -5.74199560386106e-05 0.000124437605809178 5.35174589078339e-05 -0.000198259356636498 -0.000133610063142241 2.51568258677135e-05
"341" -0.000259413574518088 -9.88703988735448e-05 -0.000165253402302156 -0.000221813550510901 -0.0001113085786592 -5.86014997806832e-05 -0.000148313434367917 -6.08248546295782e-05 6.47882372196703e-05 1.19997943426825e-05 -4.63538709492993e-05 0.000133482608966273 6.02900545295379e-05 -0.00018797761737238 -0.000117942825215103 2.98596499646221e-05
"342" -0.000243480562434398 -9.31986598286474e-05 -0.000158466775256586 -0.000212545539501539 -0.000106208219971993 -4.49047262934112e-05 -0.000132939119929299 -5.49646430368112e-05 7.96397071897976e-05 2.02253346927698e-05 -3.47578894749927e-05 0.000142443744907821 6.75930135309324e-05 -0.000176815353186324 -0.00010128613710641 3.5479253669014e-05
"343" -0.000226297049728813 -8.68999707725533e-05 -0.000150858520600308 -0.000202258331763013 -0.000100633894138563 -3.10776693022359e-05 -0.000116826215750248 -4.89468550884215e-05 9.5034252428365e-05 2.89302462782211e-05 -2.26864660896074e-05 0.000151277794581726 7.53844978949623e-05 -0.000164810481116174 -8.37318074047566e-05 4.1992220372904e-05
"344" -0.000207955561193248 -8.00358676355085e-05 -0.000142477158275681 -0.000191027405886096 -9.46221845878571e-05 -1.72008492227228e-05 -0.000100100020566061 -4.28261310517828e-05 0.000110902674973128 3.80876203623119e-05 -1.01955272354087e-05 0.000159950149195209 8.36165013895037e-05 -0.000152017679333847 -6.53652179790798e-05 4.93669583644648e-05
"345" -0.000188549849936495 -7.26601246086356e-05 -0.000133382574879795 -0.000178927273220718 -8.82167636618059e-05 -3.35932690759202e-06 -8.2890881818559e-05 -3.66597448706408e-05 0.000127176862322994 4.76592832713107e-05 2.64941161882758e-06 0.000168420456059685 9.22384230799877e-05 -0.000138487292159061 -4.62959575834557e-05 5.75666613999382e-05
