"V1" "V2" "V4" "V5" "V7" "V8" "V10" "V11" "V13" "V14" "V15" "V17" "V18" "V20" "V21" "V23"
"1" -0.000276126523337594 -0.00141066697514119 -0.000202767296662858 -0.000480585747577263 -0.000406796218774279 -0.000196174129299247 2.15408189600165e-05 -0.000194837697467135 0.000300963793718955 3.66992224970077e-05 -6.9492039965217e-05 -2.43415704642399e-05 0.000626280317279945 0.000481769603002878 0.000403853432758515 -6.98349655908379e-05
"2" -0.000261385242522997 -0.00139240696416641 -0.000223939538322855 -0.000456516285043617 -0.000394023833576942 -0.000185491861071598 3.30766388145585e-05 -0.000191577036691779 0.000307727656961221 3.20324504228408e-05 -5.11732237772202e-05 2.33609557893334e-05 0.000658230456391675 0.000503012003798299 0.000421685687347041 -5.14652543701974e-05
"3" -0.000248889422835771 -0.00136942507783906 -0.000248667470822245 -0.000430732311403437 -0.000380884503134694 -0.000174259293306255 4.46349026147858e-05 -0.000189239676254293 0.00031391891823302 2.78446305370541e-05 -3.24199049184466e-05 7.07455960818733e-05 0.000689338355047375 0.000523450199302154 0.000439402051911063 -3.16249213559865e-05
"4" -0.000238595077076244 -0.00134192714387983 -0.0002768663883841 -0.000403343470041672 -0.000367432826253969 -0.000162540163159873 5.61711536063385e-05 -0.000187849279393663 0.000319567202987682 2.41309913355216e-05 -1.32159109244144e-05 0.000117626011830856 0.000719448251664853 0.000543193667214632 0.000457022659538013 -1.04311120146245e-05
"5" -0.00023043134275917 -0.00131015088997009 -0.000308412666035437 -0.000374457518094924 -0.000353718107962501 -0.000150395996010405 6.76436845639961e-05 -0.000187426853646432 0.000324706570631543 2.08787246371772e-05 6.45825222089482e-06 0.000163843083482287 0.000748408852582861 0.000562355866732169 0.000474560410711277 1.19859922979274e-05
"6" -0.000224298746520547 -0.00127436856337521 -0.000343140467407146 -0.000344206753524901 -0.000339790612758466 -0.000137891972288421 7.90093747170681e-05 -0.000187984372211011 0.000329376542594185 1.80642360250399e-05 2.66171669124152e-05 0.000209249439878143 0.000776081742644279 0.000581053091088204 0.000492030729930841 3.54875659927694e-05
"7" -0.000220067104049418 -0.00123487832971851 -0.000380851129284097 -0.000312718884340638 -0.000325694892871784 -0.000125094774281627 9.0219289410394e-05 -0.000189517500732556 0.000333613158472097 1.56557857557113e-05 4.72638152387363e-05 0.000253696762076206 0.000802319040813297 0.000599390898834882 0.000509440644970345 5.99105746278907e-05
"8" -0.000217587253093738 -0.00119200731815251 -0.000421309586828675 -0.00028012999276548 -0.00031147786238136 -0.000112072716886015 0.000101226262830332 -0.000192020781103095 0.000337456968725128 1.36153639757105e-05 6.84018633743223e-05 0.000297052922328814 0.000826994181277917 0.000617479968397619 0.000526791017284594 8.50893507242158e-05
"9" -0.000216687098092309 -0.00114610343076524 -0.000464238124078169 -0.000246589542989272 -0.000297181930555018 -9.88918171559062e-05 0.000111981502415162 -0.000195480524399613 0.000340945338829369 1.18914484920413e-05 9.00218474434657e-05 0.000339196091449124 0.000849977056899836 0.000635417550436432 0.000544082335261246 0.000110843153645352
"10" -0.000217171543151976 -0.00109754102182191 -0.000509340416927348 -0.000212246908140667 -0.000282837046280654 -8.56228450977961e-05 0.000122433881279742 -0.000199863907052594 0.000344122702504558 1.04330345047268e-05 0.000112117787637856 0.000380023534735649 0.000871158694754493 0.000653306078973699 0.000561305105723638 0.000136988560088476
"11" -0.000218836223959222 -0.00104671527408301 -0.000556288785128546 -0.00017725752925345 -0.000268489472760895 -7.23302550421752e-05 0.000132535871681439 -0.000205137163514893 0.000347026185448577 9.1728231498073e-06 0.000134666765815216 0.000419426973032279 0.000890431903244639 0.000671227334528859 0.000578450443609075 0.0001633289553066
"12" -0.000221457893530402 -0.000994036751076277 -0.000604726206699585 -0.000141787203418577 -0.000254166809632254 -5.90827560137409e-05 0.000142231316197392 -0.000211255951324407 0.000349695081364189 8.0437779809933e-06 0.000157644589060376 0.000457323720492088 0.000907708695154768 0.000689260644872188 0.000595497940604333 0.000189670418964221
"13" -0.00022480674528928 -0.000939931439789705 -0.000654287747889276 -0.000105998381742108 -0.000239901124356843 -4.59445063832774e-05 0.000151469496591336 -0.000218171350136423 0.000352172070031512 6.96872394022238e-06 0.000181023095595272 0.000493639021237483 0.000922909271820758 0.00070747414369776 0.000612426941358329 0.00021581056899632
"14" -0.000228647150349466 -0.00088483762078521 -0.000704580667181331 -7.00615707268123e-05 -0.000225723340483051 -3.29801423794876e-05 0.000160199123653611 -0.000225823672202943 0.000354492573713816 5.86509690283566e-06 0.0002047566937305 0.000528297430697559 0.00093596483208775 0.000725920492999794 0.000629204174455852 0.000241548562271489
"15" -0.000232740133862443 -0.000829199179586044 -0.000755212592880654 -3.41479705200713e-05 -0.000211658973397944 -2.02507462649256e-05 0.000168366841521711 -0.000234149327768565 0.000356692875008797 4.64673233984939e-06 0.000228802117369056 0.00056124577611063 0.000946820932487752 0.000744644979653232 0.000645801562919787 0.000266683060752815
"16" -0.000236852668656794 -0.000773473913549243 -0.000805781010424581 1.5629874876734e-06 -0.000197740594510783 -7.81821300934863e-06 0.000175919127627383 -0.000243079698185252 0.000358812586412841 3.22337316136716e-06 0.000253110004592047 0.000592434831531508 0.000955445313659541 0.000763682726080215 0.000662177442869632 0.000291023446011756
"17" -0.000240750307153502 -0.000718110090968306 -0.000855876621987516 3.69027878701083e-05 -0.000183989956814656 4.26136017769975e-06 0.000182805532004003 -0.000252539329235013 0.000360883148941834 1.50144572159465e-06 0.000277617250603219 0.000621826392270149 0.000961810345756453 0.00078304950579678 0.000678293566754187 0.000314376750637107
"18" -0.000244212482125572 -0.000663562475762531 -0.000905096525558835 7.16891312729633e-05 -0.000170432194911185 1.5930537916328e-05 0.00018897734252277 -0.000262451932827115 0.000362936141651052 -6.10565847077939e-07 0.000302264224136738 0.000649387717696833 0.000965905416258193 0.000802754096798127 0.000694100071623481 0.000336560864709755
"19" -0.000247028175869798 -0.000610269654337268 -0.000953042502175472 0.000105750319681722 -0.000157098669789344 2.71386757340042e-05 0.000194381368682816 -0.000272740482969553 0.000365003774788909 -3.21159451855708e-06 0.000326979136789288 0.0006750962020051 0.00096773426685331 0.000822789980258808 0.000709546923839054 0.000357401645399571
"20" -0.000248998311820955 -0.000558665295338574 -0.000999329647681179 0.000138913903435152 -0.000144011498900095 3.78345364767828e-05 0.000198969531227641 -0.000283323645490875 0.000367113094040837 -6.3941218756478e-06 0.000351690725448641 0.000698939884904708 0.000967314968479639 0.000843139503482649 0.000724585867115404 0.000376737503576024
"21" -0.000249948718724968 -0.000509165736114913 -0.00104357894880312 0.000171006203435682 -0.00013119924184825 4.79716732134474e-05 0.000202696476138361 -0.00029411894661749 0.00036929144171182 -1.02499148553729e-05 0.000376321526925677 0.000720910989690561 0.000964681377880935 0.000863778325811396 0.000739162848259425 0.000394418713317013
"22" -0.000249719764728315 -0.000462166669576576 -0.00108544094764533 0.00020186351778619 -0.000118688881600406 5.75049538694609e-05 0.000205517012528324 -0.000305047371503614 0.000371564675001329 -1.48691675527813e-05 0.000400787858484068 0.000741010263581391 0.000959879927154539 0.000884660245523961 0.000753221557580823 0.000410311707477936
"23" -0.000248170401601407 -0.000418040399410327 -0.00112457236776725 0.000231324741421256 -0.000106510897739969 6.6393764386875e-05 0.000207387204938873 -0.000316033845224117 0.000373949592651614 -2.03371798131329e-05 0.000425011188399221 0.000759248832345968 0.000952965258422738 0.000905741589887125 0.000766706791741984 0.00042429437968284
"24" -0.000245191992832585 -0.000377130740462082 -0.00116066122162604 0.00025923564890307 -9.46971092839966e-05 7.46011699611441e-05 0.000208270971689098 -0.00032699894816379 0.000376468148513824 -2.67350945054632e-05 0.000448903752353687 0.000775632668692713 0.000944011915328074 0.000926957478112016 0.000779562062527299 0.000436262605341446
"25" -0.000240698432289306 -0.00033975042598428 -0.00119342107382776 0.000285450690022871 -8.32753367085041e-05 8.20918413703374e-05 0.000208125748552077 -0.000337872810161053 0.000379140170707517 -3.41350807290809e-05 0.000472383592158547 0.00079019844968716 0.000933101609452592 0.000948242388831734 0.000791735741708092 0.000446135588914641
"26" -0.000234637258899269 -0.000306178890895162 -0.00122259910723075 0.000309826457524442 -7.22832208982137e-05 8.88362132604383e-05 0.000206921820701093 -0.000348585381491284 0.000381978726929359 -4.26025287953189e-05 0.000495362451237647 0.000802963021872234 0.000920329896755902 0.000969525670673747 0.000803175231933798 0.000453845643861709
"27" -0.000226970794970035 -0.000276650107450843 -0.00124796270883603 0.000332242927640801 -6.17541172302274e-05 9.4805724408695e-05 0.000204628155371101 -0.000359072654107293 0.000384992958041503 -5.2194921549289e-05 0.000517756935991305 0.000813961629796386 0.000905799767536448 0.000990718897588105 0.000813828405063739 0.000459343110440413
"28" -0.000217705705003589 -0.000251362036167356 -0.00126932054477055 0.000352580393861015 -5.17250370816984e-05 9.99754974073418e-05 0.00020122482005722 -0.000369276174444909 0.000388200144931067 -6.29599216432977e-05 0.000539486204534979 0.000823244331201624 0.00088962440634465 0.00101174245930731 0.000823653340398924 0.00046260826851726
"29" -0.000206866826265997 -0.000230467143841615 -0.00128651372469329 0.000370735763103372 -4.22327888466048e-05 0.000104327864644677 0.000196686925884394 -0.000379145873594328 0.000391603849194127 -7.49342284566652e-05 0.000560470459402449 0.000830842637465111 0.000871923913395304 0.00103250135967934 0.000832602923559018 0.000463628150028158
"30" -0.000194514195774824 -0.000214078704279196 -0.0012994156793842 0.000386620867077787 -3.33223730309472e-05 0.000107843983246255 0.000190999707246616 -0.000388632933365886 0.000395206049750523 -8.81431031724418e-05 0.00058063205149596 0.000836814893417695 0.000852828138870408 0.00105290481597424 0.000840639304550828 0.000462418965455065
"31" -0.000180731747228492 -0.000202255733330548 -0.00130793924804828 0.000400160762767323 -2.50285747602881e-05 0.000110511565978695 0.000184152086670438 -0.000397700984997649 0.000399015643830822 -0.000102601289513966 0.000599899511015256 0.000841216681992407 0.000832471591806169 0.00107285684635125 0.000847732146994472 0.000459014974161141
"32" -0.000165643773586112 -0.000195016215820835 -0.00131203682040141 0.000411293499277156 -1.73947318669069e-05 0.00011232126851995 0.000176144294434555 -0.000406317664903066 0.000403031582253585 -0.0001183111952862 0.000618209691093058 0.000844108889908667 0.000810996585585747 0.00109226428337386 0.000853853697153436 0.000453470111200846
"33" -0.000149378276671948 -0.000192329566969696 -0.00131169312704037 0.000419976822192276 -1.04609719539246e-05 0.00011326703319442 0.000166970345187579 -0.000414452551080027 0.000407248721922919 -0.000135259920922126 0.000635498030460226 0.000845545807990435 0.000788538357084352 0.00111103120412753 0.000858979758905902 0.000445854601106905
"34" -0.000132116186717676 -0.000194125017677372 -0.00130693665257425 0.000426186072270335 -4.26868923157226e-06 0.000113350045478953 0.000156645925429461 -0.000422094769710394 0.000411663394488566 -0.000153427393652385 0.000651714635677952 0.000845601867636372 0.000765251199048762 0.0011290659753826 0.000863100484796132 0.00043626443881585
"35" -0.000114035847282972 -0.000200285712437493 -0.00129782735113032 0.000429909943881962 1.14149004201417e-06 0.000112570593628612 0.000145182518485093 -0.000429225777822987 0.00041626846925362 -0.000172777581730339 0.000666808201064735 0.000844340321463907 0.00074127520151905 0.00114627567898918 0.000866201521709584 0.000424798622029376
"36" -9.53530563598947e-05 -0.000210655193530228 -0.00128446592799698 0.000431154759485126 5.72741547450843e-06 0.00011093626122659 0.000132601201841173 -0.000435850533861544 0.000421053526526412 -0.000193259578199446 0.000680740232789494 0.000841837027240784 0.000716760193458123 0.0011625783461593 0.00086828532132995 0.000411591596522825
"37" -7.6290118274201e-05 -0.000225034422190735 -0.00126698574465349 0.000429952124083347 9.45771516839607e-06 0.000108456434910695 0.000118925735057216 -0.00044196532346923 0.000426004576496249 -0.000214813830922082 0.00069348096143771 0.00083815858030868 0.000691845892329398 0.00117789018703232 0.000869354126552871 0.00039677232734099
"38" -5.70951174879138e-05 -0.000243199173768376 -0.00124556234722543 0.000426338554618109 1.22916703109256e-05 0.000105145157417282 0.000104193155695767 -0.000447580644333995 0.00043111147984518 -0.000237367794488112 0.000705009732303179 0.000833382774585937 0.000666677851536858 0.00119213895417187 0.000869422437984668 0.000380494771601237
"39" -3.80235679185427e-05 -0.000264882560084831 -0.00122039588777412 0.000420376437602943 1.4201299111877e-05 0.000101020670463211 8.84442672398489e-05 -0.000452715221374894 0.000436349302042934 -0.000260837531419192 0.000715310267100287 0.000827581969322322 0.000641391754355581 0.00120525543899578 0.00086850912907735 0.000362921628069358
"40" -1.93364970528594e-05 -0.000289802921936701 -0.00119172537604535 0.000412140487728551 1.51559321993473e-05 9.6104218492689e-05 7.17258669274345e-05 -0.000457392326387047 0.000441700129605475 -0.000285128181094666 0.000724378810356452 0.000820832180416898 0.000616118273368395 0.00121717951877264 0.000866640421491633 0.000344222605151752
"41" -1.30055746249007e-06 -0.000317640262169472 -0.00115981359073644 0.000401722526209614 1.51341346356799e-05 9.04229777430316e-05 5.40874682613669e-05 -0.00046163541025727 0.000447145379262535 -0.000310136988339703 0.000732221436584074 0.00081321103703499 0.000590986481423527 0.00122785897215065 0.000863848466465657 0.000324578566603854
"42" 1.5812722216517e-05 -0.000348071906920518 -0.00112495161978321 0.000389228556816456 1.41140821076295e-05 8.40038783636954e-05 3.55938707768382e-05 -0.000465478217956041 0.000452653430568558 -0.000335748197245447 0.000738849373972753 0.000804789201399887 0.000566110666104787 0.00123725421122405 0.000860172314562915 0.000304172481537665
"43" 3.17364765812312e-05 -0.000380753438943206 -0.00108746706566098 0.000374776115270407 1.20779162662778e-05 7.687751167335e-05 1.63080031419975e-05 -0.000468957844034308 0.000458201032216026 -0.000361841132471015 0.000744287095874337 0.000795647568222811 0.000541606316233341 0.00124533074895476 0.000855659638770964 0.000283190059595722
"44" 4.62082734684461e-05 -0.000415326957881694 -0.00104768941679697 0.000358501892149511 9.02081448336973e-06 6.90831247427008e-05 -3.70354673261115e-06 -0.000472112379981455 0.000463758990403739 -0.000388288005779847 0.00074856905217 0.000785856612973902 0.000517570496840722 0.00125206610031385 0.000850357503462708 0.000261823590655374
"45" 5.89760761934973e-05 -0.000451432317947222 -0.00100598165163188 0.000340547886247065 4.93443576812418e-06 6.06580403766533e-05 -2.43620691549426e-05 -0.000474984046235528 0.000469298481674982 -0.000414955777832888 0.000751730853810963 0.000775491519050738 0.000494093999407436 0.00125744760659255 0.000844322913300017 0.000240255541912864
"46" 6.98026581621005e-05 -0.000488708362711684 -0.000962714648676334 0.000321065154648347 -1.72005190939232e-07 5.16408165355825e-05 -4.55903989584665e-05 -0.000477620344214145 0.000474783051683918 -0.000441706257004845 0.000753825143369735 0.000764625992930693 0.000471261330334413 0.00126147289000635 0.0008376155171893 0.000218675042681627
"47" 7.84681076278263e-05 -0.00052679325543328 -0.000918277370148137 0.00030021389323213 -6.29546226400825e-06 4.20788552484148e-05 -6.73032749476941e-05 -0.000480063411466151 0.000480180844460494 -0.000468397706691363 0.000754905957694428 0.000753329525252611 0.000449136482977833 0.00126415512436724 0.000830301920087801 0.000197264503668958
"48" 8.47651318863711e-05 -0.000565340970022017 -0.000873064180981921 0.000278162773373758 -1.34219276029371e-05 3.20154152247145e-05 -8.9416285401112e-05 -0.000482363196066495 0.000485458934956303 -0.000494885869189123 0.000755038091184234 0.000741676333766185 0.00042778336749445 0.00126551080581167 0.000822449392515176 0.000176197754313701
"49" 8.85194872112839e-05 -0.000604004840348697 -0.000827472303594456 0.000255082903943843 -2.15281290920356e-05 2.14970702101453e-05 -0.000111841716159742 -0.000484564056898725 0.000490581922586357 -0.00052102918646736 0.000754289186903522 0.000729730485661647 0.000407246600348901 0.00126557067971113 0.000814125541206164 0.000155638536741535
"50" 8.95705141955144e-05 -0.000642453672837966 -0.000781898574466381 0.000231151107312857 -3.05877659809252e-05 1.05754882604598e-05 -0.000134486655704457 -0.000486710573468285 0.000495517824616789 -0.000546680713148933 0.000752735846285961 0.000717565308123738 0.000387562278053921 0.0012643763063064 0.000805406198029553 0.000135747976106546
"51" 8.77913637645617e-05 -0.000680375105702025 -0.0007367402287104 0.000206543758783946 -4.05654112467127e-05 -7.00160227578631e-07 -0.000157263563298156 -0.000488850019624715 0.000500227786566124 -0.000571704474960215 0.000750459022927786 0.000705244686461401 0.000368758205831854 0.001261980225464 0.000796364077608652 0.000116672460072263
"52" 8.3087890776938e-05 -0.000717466169812152 -0.000692379796786803 0.000181438711657098 -5.14218834560065e-05 -1.22768186443129e-05 -0.000180072079423115 -0.000491018329409984 0.000504678083280108 -0.000595955718536925 0.000747541352819098 0.000692832457094768 0.000350844202089195 0.00125843774176308 0.000787073377367695 9.85434736039554e-05
"53" 7.53867145155578e-05 -0.000753458680121344 -0.000649191950513601 0.000156011017589122 -6.31151799078092e-05 -2.41057947092466e-05 -0.000202829515965638 -0.000493259827817368 0.000508838558435236 -0.000619304057441552 0.000744070606432156 0.000680395439068376 0.000333827449848105 0.00125382041997904 0.000777609767930613 8.14874263284307e-05
"54" 6.46506008174353e-05 -0.000788092597352329 -0.000607541120045685 0.000130432289268742 -7.5590950038698e-05 -3.6131744515482e-05 -0.000225442841326953 -0.00049560575403624 0.000512676052702976 -0.000641620900644032 0.000740135609634382 0.000667991091038888 0.000317698436277525 0.00124819953268222 0.000768044260477625 6.56065062448539e-05
"55" 5.08728823565391e-05 -0.000821139124523797 -0.000567758549318742 0.000104873454888932 -8.8792908410873e-05 -4.83051158515978e-05 -0.000247825686987831 -0.000498089577440298 0.000516158362277353 -0.000662783341348297 0.000735825327553724 0.000655676445256523 0.000302442537727083 0.00124166252046372 0.000758451658768982 5.09957799142028e-05
"56" 3.40804200136014e-05 -0.000852391815212323 -0.000530165651693178 7.94946967428347e-05 -0.00010266127248319 -6.05726536046001e-05 -0.000269885082861985 -0.000500737683591507 0.000519256949549992 -0.000682679379459783 0.000731231015955431 0.000643509597543115 0.000288033307629419 0.00123429227433284 0.000748897319960768 3.77292406202877e-05
"57" 1.43254097244406e-05 -0.000881671853996867 -0.000495055312712409 5.44496541290121e-05 -0.000117136153474086 -7.28867916953813e-05 -0.000291543035783911 -0.000503571028189595 0.000521944792158864 -0.000701203622471373 0.000726445080486012 0.000631544657725896 0.000274438081466158 0.00122618467000798 0.000739453959421103 2.58707203555041e-05
"58" -8.30758897226782e-06 -0.000908819688061177 -0.000462689847583569 2.98920334646161e-05 -0.000132146160672984 -8.5195866666548e-05 -0.000312723190321975 -0.000506610368166572 0.000524201110789646 -0.000718259047398839 0.000721551054821404 0.000619832271696343 0.000261614346128581 0.00121743596989987 0.000730179357400497 1.54626262602355e-05
"59" -3.37051448425474e-05 -0.000933710810402254 -0.000433294844076952 5.95558554632328e-06 -0.000147619778707944 -9.74547346416014e-05 -0.000333346612914159 -0.000509864781941649 0.000526003824513218 -0.000733764752365414 0.000716637980566691 0.000608419740097105 0.000249518865971877 0.0012081427824344 0.000721136952725181 6.53661795794324e-06
"60" -6.1724566373927e-05 -0.000956243200333706 -0.000407074082431592 -1.72275975247985e-05 -0.000163489551804128 -0.000109615560435391 -0.000353342838885601 -0.000513346203533598 0.000527332393226116 -0.000747646105026415 0.000711783241524168 0.000597350734482617 0.000238096818243157 0.00119840735256856 0.000712378399572884 -8.95103452846248e-07
"61" -9.22015074337448e-05 -0.000976341165887843 -0.000384193141671242 -3.9540073481705e-05 -0.000179681234355991 -0.000121637225076049 -0.0003726532031551 -0.000517055570522539 0.000528173922688572 -0.000759844111365878 0.000707069726280807 0.000586663248977375 0.000227288340719903 0.00118832638125389 0.000703955480604815 -6.83570822923839e-06
"62" -0.000124955812033775 -0.000993954439839019 -0.000364778153880745 -6.08738781377003e-05 -0.000196118538849842 -0.00013347774742418 -0.000391216333181017 -0.000520989255126787 0.000528518352138215 -0.000770312081926347 0.000702568546184005 0.000576398584383255 0.000217035682453354 0.00117800429530143 0.000695911404377501 -1.13030072741426e-05
"63" -0.000159776015757928 -0.00100906638349136 -0.000348927803236961 -8.11396568097884e-05 -0.000212728776090942 -0.00014510067986049 -0.000408978618451349 -0.000525145181439918 0.000528355649933634 -0.000779015704108551 0.000698347079897303 0.000566588720515541 0.000207275400529895 0.00116754208468965 0.000688285928992337 -1.43239987689891e-05
"64" -0.000196442297738433 -0.00102166650796785 -0.000336691298131118 -0.000100243902440051 -0.000229438341209022 -0.000156470242862071 -0.000425901074965396 -0.000529509742887113 0.000527684862980721 -0.000785938894774221 0.000694468993156548 0.000557260516601186 0.000197936984291319 0.00115702789756188 0.000681113087772511 -1.59501532336494e-05
"65" -0.000234716854332987 -0.00103178856743298 -0.000328103313142815 -0.000118119034546393 -0.000246177941772945 -0.00016755457111823 -0.000441939588520352 -0.000534072765661653 0.000526503006956543 -0.000791073506795277 0.000690991434336557 0.000548438108837515 0.000188954980295417 0.00114655995929669 0.000674417924398495 -1.62341582548493e-05
"66" -0.000274353829080029 -0.00103947707596225 -0.000323142621612284 -0.000134710237672707 -0.000262874719219746 -0.000178326038749852 -0.000457066521814984 -0.000538813894273809 0.00052481335097639 -0.000794429918406436 0.000687960483929079 0.000540144195721036 0.000180262360749294 0.00113622632166156 0.000668223312752424 -1.52495594321957e-05
"67" -0.000315096681721452 -0.00104480076979305 -0.000321770831266439 -0.000149967048366832 -0.000279468273585475 -0.000188757844197505 -0.000471258061187774 -0.000543716031883091 0.000522626088060791 -0.0007960381390104 0.000685420805231245 0.000532394889239185 0.000171793258518635 0.00112610857442247 0.000662545506036277 -1.30745268879538e-05
"68" -0.000356684633975933 -0.00104785155372949 -0.000323910802361321 -0.000163859327207505 -0.000295888623942655 -0.000198832855065553 -0.000484498162267358 -0.000548752319315444 0.000519949754934664 -0.000795929383263271 0.00068340551973558 0.000525195787078709 0.000163479811608308 0.00111628736064109 0.000657389871162415 -9.79966145309352e-06
"69" -0.000398849932191955 -0.00104873100057089 -0.00032945884370804 -0.000176363465089202 -0.000312074847756101 -0.000208529294319963 -0.000496775193962316 -0.000553900880069796 0.000516798006111565 -0.000794165291799804 0.000681943000128496 0.0005185607023651 0.000155255301381251 0.00110683234533122 0.00065276195808201 -5.52295622597193e-06
"70" -0.000441340508488061 -0.00104757071609439 -0.000338281455823855 -0.000187470500495501 -0.000327978979064605 -0.000217834539910743 -0.000508090138975453 -0.000559133812205224 0.000513188479740355 -0.000790808643182902 0.000681056897786477 0.000512488154106901 0.000147064002180416 0.00109781213748291 0.00064865841761938 -3.47282577522782e-07
"71" -0.000483889194033815 -0.00104450726109087 -0.000350226414147185 -0.000197187950413048 -0.000343544286128081 -0.000226740238871553 -0.000518441057670642 -0.000564430124645184 0.00050914510067693 -0.000785944781316866 0.000680759357852012 0.000506977358505668 0.00013884027187805 0.00108928270731841 0.00064507042883989 5.61417715207301e-06
"72" -0.000526243982923187 -0.00103969868088223 -0.000365119610923957 -0.000205524447866708 -0.000358728352058936 -0.000235236575767868 -0.000527847911207185 -0.000569759233146664 0.000504687391656297 -0.000779668093939494 0.000681054749621985 0.000502025933215733 0.000130537036459994 0.00108129704155824 0.000641988681832682 1.22501571812562e-05
"73" -0.000568160817499301 -0.00103330442448453 -0.000382761925548059 -0.000212508858396451 -0.000373490065120756 -0.00024332144530971 -0.000536324508587954 -0.000575094502073999 0.000499843755930534 -0.000772083631092284 0.000681946826684069 0.000497621430743285 0.000122099096559295 0.00107390075793253 0.000639390133283544 1.94419055711133e-05
"74" -0.000609405886040806 -0.00102550746824916 -0.000402949309063057 -0.000218178220828671 -0.000387793085585119 -0.000250996137263983 -0.000543895251331766 -0.000580411169197932 0.000494644596232283 -0.00076331292291896 0.00068342662098254 0.000493751725448671 0.000113484348182153 0.00106713410838672 0.000637257332879046 2.70691499397495e-05
"75" -0.000649756542318182 -0.00101648627414373 -0.000425456310685845 -0.000222576241617102 -0.00040160763247769 -0.000258263353684524 -0.000550589457491134 -0.000585686849864165 0.000489118696461687 -0.000753487568010469 0.000685481963626005 0.000490402510837169 0.00010464603025973 0.00106102623728434 0.000635563505885688 3.50166987217887e-05
"76" -0.000689003144053057 -0.00100643378631734 -0.00045005688831418 -0.000225760624105113 -0.000414911406267493 -0.000265129796853841 -0.000556441837399302 -0.000590899847869669 0.00048330288762606 -0.000742742578384139 0.000688095953476846 0.000487557884321666 9.55577902368419e-05 0.00105560231170827 0.00063428076337572 4.31670907455794e-05
"77" -0.000726950275236688 -0.000995541322088373 -0.000476512022200272 -0.000227790715132421 -0.000427684946155605 -0.000271602479383746 -0.000561491336599955 -0.000596025221193501 0.00047722696324464 -0.000731227517181027 0.000691245334072326 0.000485192793700908 8.61849514111904e-05 0.00105087710935725 0.000633372620702498 5.14059347750184e-05
"78" -0.000763422532935315 -0.000984001893243875 -0.000504580993195882 -0.000228739406820887 -0.000439916798069278 -0.00027769693148383 -0.000565780655427189 -0.000601051720943451 0.000470929641723332 -0.000719092500851848 0.000694895781719818 0.000483280335920956 7.65013520829309e-05 0.001046862563831 0.000632807125542325 5.96185717260733e-05
"79" -0.000798262177064823 -0.000972008933765325 -0.000534028152844 -0.000228683605939255 -0.000451598875084675 -0.000283424457545928 -0.000569356924980495 -0.000605959536793465 0.000464450309271879 -0.000706500931662375 0.000699020707916577 0.000481802593146639 6.64951985153419e-05 0.00104356223956833 0.000632547287585497 6.77055543485247e-05
"80" -0.000831324971051475 -0.000959757461920167 -0.000564614078323488 -0.000227707340773978 -0.000462728821558772 -0.000288802718865163 -0.000572271516581947 -0.000610736186769189 0.000457824908244448 -0.000693612517391316 0.000703579905494853 0.000480732452644532 5.61539076290738e-05 0.00104097734856107 0.000632557569666265 7.55653446062852e-05
"81" -0.000862489729779067 -0.000947429851175344 -0.000596103889783644 -0.000225895550950815 -0.000473309513295312 -0.000293848353583028 -0.00057456905347689 -0.000615375017359509 0.000451092475815973 -0.000680592895208406 0.00070853342919044 0.000480036333820159 4.54759029141427e-05 0.00103909842979969 0.000632796675968208 8.31079944814849e-05
"82" -0.000891654276928641 -0.000935205101699176 -0.000628269904500217 -0.000223339179758865 -0.000483347387354465 -0.00029857995293201 -0.000576305553444141 -0.000619866075876491 0.000444293083298102 -0.000667609192230732 0.000713836856629491 0.000479690617374403 3.44584863302187e-05 0.00103791180672547 0.000633226127700075 9.02470636003365e-05
"83" -0.000918728540793214 -0.000923251513226352 -0.000660894727824442 -0.000220129644480341 -0.000492849620845209 -0.000303017020058607 -0.00057753106185737 -0.000624206259156712 0.000437461368433758 -0.000654821379471376 0.000719445951041088 0.000479665406642499 2.31096706095846e-05 0.00103740104549723 0.000633807879823986 9.69074138383294e-05
"84" -0.000943652300405668 -0.000911732429071541 -0.000693769837577037 -0.000216364156253967 -0.000501834179786797 -0.000307183029197614 -0.000578303560974602 -0.000628397091924604 0.000430637809050065 -0.000642392451903552 0.000725309129955309 0.000479927912426378 1.14488896854443e-05 0.00103754529424753 0.000634502918668907 0.000103026600136891
"85" -0.00096637507367255 -0.000900789052975614 -0.000726696502598665 -0.000212134958705537 -0.000510321281057818 -0.000311094284397845 -0.000578672816201209 -0.000632435879417586 0.000423859679300093 -0.000630479795410964 0.000731382664507804 0.000480454785160867 -5.04521290520124e-07 0.00103831659787414 0.000635271974497584 0.000108548474488977
"86" -0.000986870893890069 -0.000890559346871405 -0.000759490748761411 -0.000207538954622485 -0.000518322027328336 -0.00031477349196894 -0.000578684141700171 -0.000636332007129748 0.00041715873958317 -0.000619232265181073 0.000737610375167586 0.000481216254494129 -1.2725475233e-05 0.00103968389589865 0.000636083376298026 0.000113428605921599
"87" -0.00100512278283074 -0.000881150839485446 -0.00079197810861732 -0.00020266232651814 -0.000525865572125956 -0.000318239311110392 -0.000578392410705796 -0.000640082882194688 0.000410572363566509 -0.000608785372804623 0.000743944678325944 0.000482180677072797 -2.51793520496208e-05 0.00104161366463916 0.000636900026582964 0.000117634498661198
"88" -0.00102113442099192 -0.000872668986793122 -0.000824000868772078 -0.000197594475178248 -0.000532970548151616 -0.000321509201964557 -0.00057783603362904 -0.000643703088400318 0.000404131298700628 -0.000599277213243592 0.000750333725135909 0.000483324241728375 -3.78309989088843e-05 0.00104406596786308 0.000637685635560626 0.000121138020718394
"89" -0.0010349279729726 -0.00086519021396746 -0.000855413132221306 -0.000192422894565366 -0.000539659049207937 -0.000324600666355296 -0.000577060634089889 -0.000647196962609319 0.000397867323869605 -0.000590826507723375 0.00075672849212925 0.000484617623692052 -5.06337096770019e-05 0.00104700277720096 0.000638415638950829 0.000123931246999867
"90" -0.00104653849048634 -0.000858777813084801 -0.000886085004539686 -0.000187221879804251 -0.000545951909169538 -0.000327529812119525 -0.000576101810747049 -0.000650573566715457 0.000391802868669189 -0.000583541639945723 0.000763075105088422 0.000486041006265859 -6.35395965389071e-05 0.00105037741613852 0.000639056999695491 0.000126012841809586
"91" -0.00105600812817037 -0.000853475607039565 -0.000915899306549031 -0.000182070411541574 -0.000551873470983582 -0.000330308677841239 -0.000574992032486097 -0.000653842423956359 0.000385968362069412 -0.000577513683571675 0.00076932667808566 0.000487570687109435 -7.64981993445025e-05 0.0010541494350165 0.000639587557051083 0.000127395610354963
"92" -0.00106339475103695 -0.000849302683093744 -0.000944753675774661 -0.000177030292476828 -0.000557442826500915 -0.000332947280698283 -0.000573761221760502 -0.000657012413380783 0.000380382170253235 -0.000572824114230407 0.000775437537881921 0.000489182828090261 -8.94497187586676e-05 0.00105826485040778 0.000639982355524569 0.000128093588666463
"93" -0.00106876647789747 -0.000846255776583733 -0.000972554163081664 -0.000172159894943877 -0.000562676365159529 -0.000335452563929839 -0.000572427528970076 -0.000660090489341417 0.000375056496504835 -0.000569538829502203 0.000781354481764952 0.000490857998171662 -0.000102336261605055 0.00106267118986517 0.000640216881812317 0.000128136933261397
"94" -0.00107219754013607 -0.000844320743020877 -0.000999226804716044 -0.000167510485158753 -0.000567590389778589 -0.000337828437635365 -0.000571009549346712 -0.000663081465520004 0.000370015993789918 -0.000567701538272949 0.000787037718829591 0.000492578505600225 -0.000115094401912069 0.00106731737947471 0.000640278772646721 0.000127565026219671
"95" -0.0010737718014912 -0.00084345269017869 -0.00102470096547271 -0.000163125898243824 -0.0005721917012307 -0.000340076912933758 -0.000569514565447134 -0.000665993169486178 0.000365262631895712 -0.000567343662640718 0.000792442496094111 0.000494323178278536 -0.000127656484704296 0.00107214937361458 0.000640145794528237 0.000126426057101273
"96" -0.00107357598538064 -0.000843597751978399 -0.00104892189163113 -0.000159035898735965 -0.000576493489301883 -0.000342194474009784 -0.00056795235424854 -0.000668825104869984 0.000360807616676454 -0.000568479858414988 0.000797525405802006 0.00049608245942057 -0.000139955894718443 0.00107710636393135 0.000639808669838136 0.000124773622140937
"97" -0.0010717018328812 -0.000844673856615358 -0.00107184817948587 -0.000155265230316046 -0.0005804973019419 -0.000344174768954816 -0.000566319070661626 -0.000671571290565795 0.000356656241232009 -0.000571102013543263 0.000802251100269952 0.0004978456172832 -0.000151922783940655 0.00108213139448815 0.000639254567364434 0.000122668518778983
"98" -0.00106824539851694 -0.000846587052059213 -0.00109343221643222 -0.00015182830230381 -0.000584200814798577 -0.000346009483272071 -0.000564604330450285 -0.000674233369774158 0.000352798583292146 -0.000575187522579912 0.000806577869870453 0.000499590811484771 -0.000163488930338487 0.00108716104200071 0.000638472580902824 0.000120174953475467
"99" -0.00106329497709959 -0.000849220834420534 -0.00111364734235251 -0.000148724161743092 -0.000587596095864682 -0.000347682009513382 -0.000562799532302751 -0.000676798475189019 0.000349234357140155 -0.000580701076027341 0.000810469334403065 0.00050131292503914 -0.000174583128965068 0.00109212841205198 0.000637454300618421 0.000117364701179725
"100" -0.00105694429507458 -0.00085245056125162 -0.00113246681610455 -0.000145948723022397 -0.000590672719771091 -0.000349175625017363 -0.000560878058542455 -0.000679249859792943 0.000345954087109046 -0.000587582357775859 0.00081389711073375 0.000503005854702699 -0.000185131740256806 0.00109697903912981 0.000636196797977002 0.000114318899432977
"101" -0.00104928587927432 -0.000856128423292338 -0.00114987329315401 -0.000143485569187211 -0.000593416694575343 -0.000350469913919468 -0.000558819929505412 -0.000681572573481129 0.000342937457523586 -0.000595758585842757 0.000816822585858293 0.000504658459769426 -0.000195070962883594 0.00110163424798632 0.000634689721662626 0.000111106169066925
"102" -0.00104040447975592 -0.00086010307933809 -0.00116584230957081 -0.000141310576825444 -0.000595800947556983 -0.000351537942431136 -0.000556587994683673 -0.000683738910317149 0.000340175548582132 -0.000605144856341104 0.000819220684087447 0.000506263068525149 -0.000204332749599522 0.00110603144606113 0.000632929104853603 0.000107810832359745
"103" -0.00103038154537268 -0.000864206869987086 -0.00118036029202276 -0.000139387706924831 -0.000597799988356088 -0.000352351953691297 -0.000554157878134975 -0.000685720054672422 0.000337640557241284 -0.000615633757558659 0.000821060882712372 0.000507818970183364 -0.000212846103947983 0.00111010295243886 0.000630914470510209 0.000104514768997013
"104" -0.00101929195617297 -0.000868268110705541 -0.00119341809262444 -0.000137674410371452 -0.000599382330073185 -0.000352880803240442 -0.00055148210776717 -0.000687482061094864 0.000335308577944729 -0.000627110577237112 0.000822318440619287 0.000509323958125674 -0.000220548394482401 0.00111377662502474 0.000628644434843341 0.000101294472314974
"105" -0.00100720578498836 -0.000872102044406809 -0.00120499371340941 -0.000136122412944939 -0.000600508389927348 -0.000353089238486451 -0.000548523987280726 -0.000688981355208603 0.000333150970506717 -0.000639447903530556 0.000822966037982633 0.00051076965187222 -0.000227382969864405 0.00111698093593566 0.000626109817795666 9.82297028092412e-05
"106" -0.000994186242615403 -0.000875524168393489 -0.0012150724648554 -0.000134673059544487 -0.000601138329679657 -0.000352940381842263 -0.00054523238688793 -0.000690174001212595 0.000331135354524585 -0.000652503784569235 0.000822982277666143 0.000512159414459525 -0.000233287754385744 0.00111964546059108 0.000623313071001488 9.53964481209615e-05
"107" -0.000980279279128126 -0.000878346476015871 -0.00122363593946665 -0.000133264938072638 -0.000601224467866222 -0.000352392813391384 -0.000541559697308039 -0.000691005345972749 0.000329233107008418 -0.000666129033690852 0.000822345939892877 0.000513492049188783 -0.000238208338166145 0.00112169929712599 0.000620251996032593 9.28666848396625e-05
"108" -0.000965530398454967 -0.000880377183257051 -0.00123066440253106 -0.000131826186669338 -0.000600717647045482 -0.000351406031452804 -0.000537459802134243 -0.000691419976028232 0.000327403047668608 -0.00068016800011149 0.000821037670080196 0.000514764373580991 -0.000242098223426915 0.00112306837985168 0.000616920610611969 9.07092197250836e-05
"109" -0.000949975567538938 -0.000881427251613924 -0.00123613131312225 -0.000130285414381723 -0.000599565586532787 -0.000349938312434362 -0.000532881305111861 -0.00069135435384934 0.00032560794019598 -0.000694453478502322 0.00081903941677835 0.000515986046494918 -0.000244907357700219 0.00112368694941797 0.000613318433888701 8.89922785098856e-05
"110" -0.000933639972961021 -0.00088131268074492 -0.00124000865346266 -0.000128563799845464 -0.000597709469518057 -0.000347942774919539 -0.000527770696436556 -0.000690739846508799 0.000323811778809462 -0.000708823173222703 0.000816334028423692 0.000517151214140221 -0.000246596526239107 0.00112347994028928 0.000609441186996445 8.77717156128424e-05
"111" -0.000916539220003969 -0.000879849768289669 -0.001242260232755 -0.000126584851161695 -0.000595096975090801 -0.00034537862035841 -0.000522080115668361 -0.000689508634072199 0.000321973233277507 -0.000723098260147793 0.000812906390319542 0.0005182682472591 -0.000247127732857351 0.00112238648089369 0.000605285654124809 8.70997084933952e-05
"112" -0.000898680327096356 -0.000876868010787492 -0.0012428501721694 -0.000124266827076683 -0.000591663369827818 -0.000342198301902144 -0.000515761313394372 -0.000687584534895876 0.000320056864197692 -0.000737108158481414 0.000808743128953371 0.000519337571136715 -0.000246472480623871 0.0011203368690063 0.000600846199874753 8.70276601007388e-05
"113" -0.000880062528564294 -0.000872199441351532 -0.00124173387998244 -0.000121529734073746 -0.000587354598752449 -0.00033835944996642 -0.000508769749046525 -0.000684890390282502 0.000318023271675073 -0.000750683208883122 0.000803831136755692 0.00052036583208521 -0.000244601337017755 0.00111726968525085 0.000596118185050557 8.75905811980103e-05
"114" -0.000860677675682701 -0.000865690210866609 -0.00123886571458155 -0.000118293826343658 -0.000582112151887567 -0.000333820534165971 -0.000501059282959104 -0.000681344949270113 0.000315834308889791 -0.000763651366357156 0.000798164858912613 0.000521355125014232 -0.00024149446710496 0.00111312888179435 0.000591096990356427 8.88240705333754e-05
"115" -0.000840506867982578 -0.000857195280483593 -0.00123419223988019 -0.000114480249137654 -0.000575875329245819 -0.000328539915811762 -0.000492591026970733 -0.000676871410293211 0.00031345633351626 -0.000775842875775703 0.000791735371874521 0.000522318869117806 -0.000237137658429673 0.00110785901525466 0.00058577551860258 9.07556019317642e-05
"116" -0.000819530098981541 -0.000846586233406678 -0.00122765647528174 -0.000110014192334096 -0.000568595017763607 -0.000322476350117521 -0.000483326622985123 -0.000671383056378161 0.000310853209816704 -0.00078710020734531 0.000784534646339045 0.000523253545843503 -0.000231522581936434 0.0011014068479831 0.000580149075811009 9.34011507302691e-05
"117" -0.000797722569673281 -0.000833750109598971 -0.00121920311538467 -0.000104829278502469 -0.000560212084063272 -0.000315597557689651 -0.00047324085938536 -0.000664804395299482 0.000308003304868178 -0.000797264259940485 0.000776562255089769 0.000524173313195182 -0.000224639158531411 0.00109373592914805 0.000574215955313816 9.67734821874621e-05
"118" -0.000775049243927045 -0.000818584924660826 -0.00120876665895413 -9.88532854124884e-05 -0.000550683068427512 -0.000307867387334224 -0.00046230445031711 -0.000657052835879229 0.000304874571920145 -0.000806189345955133 0.000767815666159403 0.000525086421456906 -0.000216493567292345 0.0010848015811904 0.000567964925911501 0.0001008773687218
"119" -0.000751476213831433 -0.000801010312215722 -0.00119628611101991 -9.20270378758105e-05 -0.000539965591209618 -0.000299259990944206 -0.000450501757779026 -0.000648050351548375 0.000301441774098711 -0.000813741053711484 0.000758294342347218 0.000525996713365311 -0.000207093910589988 0.00107457380913542 0.000561391536907313 0.00010570670956395
"120" -0.000726969216220071 -0.000780958321657227 -0.00118169617517304 -8.42983908453357e-05 -0.00052801745399165 -0.000289747900647437 -0.00043781599555024 -0.000637722475039001 0.00029769609704367 -0.000819786709044862 0.000748007168218933 0.000526918852012325 -0.000196449834782364 0.00106303148564235 0.00055449460185127 0.000111256031090674
"121" -0.000701489813996622 -0.000758388920503995 -0.00116493558852412 -7.56209960408594e-05 -0.000514810692654191 -0.000279310627676425 -0.000424248636693448 -0.000626001512628037 0.000293620083905804 -0.000824219384171054 0.000736958329425359 0.000527860761274729 -0.000184583558460854 0.00105015319807892 0.000547268728279701 0.000117503792915579
"122" -0.000675004025242354 -0.00073327222016012 -0.00114593860513903 -6.59544648328033e-05 -0.000500314856317732 -0.000267933731962822 -0.000409791369658265 -0.000612817582304885 0.000289202757560724 -0.000826930214422254 0.000725160431413809 0.00052883599214283 -0.0001715147989779 0.00103593566610955 0.000539709922879081 0.000124430782800931
"123" -0.00064747951651388 -0.000705604838756386 -0.00112464886368369 -5.52695300391794e-05 -0.00048451327430841 -0.000255609321543509 -0.000394459100191143 -0.000598115425177789 0.000284448187528933 -0.000827834550774801 0.000712626277774578 0.000529854057318791 -0.000157275007480152 0.00102037827693519 0.000531820754069016 0.000132006608026238
"124" -0.000618887317050221 -0.000675399834833725 -0.00110101127850641 -4.35493812299755e-05 -0.000467401574999945 -0.000242331043915402 -0.0003782669676648 -0.000581838439932535 0.000279354885761799 -0.000826858517572323 0.000699375397832138 0.000530929770207959 -0.00014189711054031 0.00100348879776033 0.000523598599169275 0.000140197264786346
"125" -0.000589195389667488 -0.000642693010821764 -0.00107497355338853 -3.07759290671851e-05 -0.000448972725426596 -0.000228099711681954 -0.000361238171823769 -0.000563945307381454 0.000273929465883142 -0.000823944711516879 0.000685426857361324 0.000532075732332825 -0.000125425642119729 0.000985286161440923 0.000515046718618517 0.000148962415002375
"126" -0.000558393669344109 -0.000607537476827462 -0.00104649454646855 -1.69509154181406e-05 -0.0004292326267094 -0.000212925337276452 -0.000343406411846454 -0.000544399199913605 0.000268193153856801 -0.000819053578905103 0.000670807288214558 0.000533311053286419 -0.000107899969251052 0.000965800111409011 0.000506171808291998 0.000158258923199174
"127" -0.000526465823802571 -0.000570012685523807 -0.00101553926147197 -2.08664822321084e-06 -0.000408205501763914 -0.000196823595290639 -0.000324808777612041 -0.000523169651083698 0.000262159085890238 -0.000812153912045451 0.000655546941896961 0.000534648530868115 -8.93715765726397e-05 0.00094506675347678 0.000496978273944474 0.000168037818798309
"128" -0.000493408316296105 -0.000530214119240121 -0.000982082764846711 1.38049890247894e-05 -0.000385913880001892 -0.00017981306874097 -0.000305489247155364 -0.000500244916643049 0.000255858061304126 -0.000803237079718322 0.000639676355418248 0.000536106597616883 -6.98916557053311e-05 0.00092313489031872 0.000487477493601414 0.000178251744158739
"129" -0.000459230352867369 -0.000488254244048219 -0.000946109474894799 3.06908140925107e-05 -0.000362390231791674 -0.000161921277340337 -0.000285508397285018 -0.000475612493933077 0.000249319160846544 -0.000792311706708169 0.000623235670195067 0.000537707780133287 -4.95215195458482e-05 0.000900060242714795 0.000477679917213149 0.000188847171547994
"130" -0.000423941893734693 -0.000444267672573144 -0.000907618048361163 4.85352518269491e-05 -0.000337687623167897 -0.00014318440859179 -0.00026492109914227 -0.000449282288003514 0.000242576656996187 -0.000779399491652893 0.00060626723163257 0.000539461851960936 -2.83223862547247e-05 0.000875906655061529 0.000467601619152736 0.000199763092074632
"131" -0.000387573624890255 -0.000398409223870776 -0.000866620410433109 6.72909904125391e-05 -0.000311858318071036 -0.000123640721130973 -0.000243794462527377 -0.000421268853570002 0.000235671592649086 -0.000764540839101565 0.000588812360802807 0.000541396980902976 -6.36057221179107e-06 0.000850748135666362 0.000457259149365275 0.000210944372665527
"132" -0.000350154871354779 -0.000350843695090266 -0.00082313727810584 8.68992552996756e-05 -0.000284967351193994 -0.000103337401709473 -0.00022219871803209 -0.000391598231249918 0.000228650155322498 -0.000747787849518968 0.000570921780285454 0.000543530622220885 1.62929587964961e-05 0.000824667316166958 0.000446673069769638 0.000222333682064416
"133" -0.000311745101126302 -0.000301756540639652 -0.000777214398525599 0.00010729640166756 -0.000257088903408389 -8.23282519335225e-05 -0.000200218871372273 -0.000360316106711778 0.000221558011015076 -0.000729210794499953 0.000552648851376635 0.000545886344531949 3.95685215782682e-05 0.000797753174145805 0.000435865752010261 0.000233870000103995
"134" -0.000272397125434095 -0.000251353157821951 -0.000728903989742166 0.000128405156739367 -0.00022831351848291 -6.06715417396265e-05 -0.00017793022824367 -0.000327469925854216 0.000214454035130606 -0.000708894186181908 0.000534053684080953 0.000548485822560868 6.3387269596567e-05 0.000770107261226602 0.000424863724933848 0.000245498218518766
"135" -0.00023218335951152 -0.000199836194638847 -0.000678282113179039 0.00015014906880686 -0.000198727840022782 -3.84306453345459e-05 -0.000155419939268844 -0.000293131414730249 0.000207387190529595 -0.000686936924064554 0.000515191789499444 0.000551353753226686 8.76720783638084e-05 0.000741826800134861 0.000413694781848181 0.000257157164935566
"136" -0.000191188236150449 -0.000147435254636603 -0.00062544024753579 0.000172436187286478 -0.000168434960305896 -1.56757615924245e-05 -0.000132779414847785 -0.000257378347866579 0.000200420190489984 -0.000663445883842164 0.00049612661239813 0.000554509305864703 0.000112340269289223 0.000713026185073198 0.000402392350253867 0.000268790866325343
"137" -0.000149506877410055 -9.43769107669579e-05 -0.000570487407984012 0.000195177491430939 -0.000137546944390961 7.5192782515502e-06 -0.000110101201528867 -0.000220298509285956 0.000193604115431578 -0.000638547011849355 0.000476926300536245 0.000557978930253707 0.000137310996495933 0.000683815535524463 0.000390983421047392 0.000280343009567413
"138" -0.000107244830381179 -4.09040038704291e-05 -0.000513549264831518 0.000218271321349112 -0.000106172518795327 3.10774961069046e-05 -8.74767587110016e-05 -0.000181999755923513 0.000187008458860695 -0.000612370966980158 0.000457657115820597 0.000561780740280229 0.000162497192256184 0.000654316075467985 0.000379506853521672 0.000291760225483584
"139" -6.45199818473348e-05 1.27400137239737e-05 -0.000454773305883774 0.000241618460807306 -7.44403475308792e-05 5.49170806137642e-05 -6.49997790199186e-05 -0.000142596972109201 0.000180686656659524 -0.000585059425352725 0.0004383909026736 0.000565942911239208 0.000187812288011808 0.00062464745344297 0.000367999635152158 0.00030298988671586
"140" -2.14554230817201e-05 6.63079531534154e-05 -0.00039432081495596 0.000265111628116969 -4.24702555957384e-05 7.89527574206654e-05 -4.27662122298346e-05 -0.000102216533802769 0.000174700283101155 -0.000556761182406665 0.000419196727209172 0.000570481086444069 0.000213169060634197 0.00059493289227366 0.000356498059798805 0.00031398498749816
"141" 2.18142456287974e-05 0.000119550488551375 -0.000332378005813212 0.000288644723091899 -1.03986973207354e-05 0.00010309917526153 -2.0870894344161e-05 -6.09945704964601e-05 0.000169109063274413 -0.000527631603519838 0.00040014888789418 0.000575419494473723 0.000238481629451907 0.000565295400276576 0.000345039244730518 0.000324695897789079
"142" 6.51422924068858e-05 0.00017221780929662 -0.000269141309564078 0.000312108729495866 2.1641847022716e-05 0.000127265736381336 5.96191388672498e-07 -1.90851084690351e-05 0.000163970248026486 -0.000497832611354655 0.000381321386885509 0.000580777601177382 0.000263661556658568 0.000535863782666707 0.000333668774972677 0.000335086091657357
"143" 0.000108389982475022 0.000224072610640837 -0.00020482387450707 0.000335397762054396 5.35210507200911e-05 0.000151367451930383 2.1550678216631e-05 2.33637922749721e-05 0.000159336527844963 -0.000467527980083733 0.000362785290100398 0.000586569245157393 0.000288622278169864 0.000506760992010411 0.000322418862566481 0.000345110080252175
"144" 0.00015139614750882 0.000274872522090867 -0.000139657686124647 0.000358404477229554 8.50962689962472e-05 0.000175310849708538 4.18978116390384e-05 6.61760534131552e-05 0.000155258797498098 -0.000436882076270202 0.000344616570691089 0.000592811686291682 0.000313272229427028 0.000478103447390203 0.000311335434838157 0.000354736308933963
"145" 0.00019400891357921 0.000324389245517505 -7.38887957155624e-05 0.00038102668094788 0.000116234815792098 0.000199008637012334 6.1564166022728e-05 0.000109186430702452 0.000151783955379954 -0.000406061469523102 0.000326881066950958 0.000599517298727902 0.000337528601510036 0.000450013629789589 0.000300453040898282 0.000363926772925216
"146" 0.000236065323281025 0.000372404272159191 -7.77151541368687e-06 0.000403162947173637 0.000146801913550947 0.000222373544210394 8.04664349494622e-05 0.000152212163019761 0.00014895785283516 -0.000375233266012596 0.0003096530150047 0.000606692821518039 0.00036130379123732 0.000422607927927957 0.000289809519065583 0.000372655022809749
"147" 0.000277413270665421 0.000418706208746304 5.84263339761758e-05 0.000424717969023901 0.000176665122350208 0.00024531956894102 9.85447844365316e-05 0.000195073840685309 0.00014681558264432 -0.000344553312010301 0.000292998242622517 0.000614350962920026 0.000384518259564047 0.000395996064796675 0.000279443864059382 0.000380894458686101
"148" 0.000317883829187274 0.00046310786105527 0.00012442605715445 0.000445599493938027 0.000205701240533161 0.000267765809794014 0.000115722474987873 0.000237581065465256 0.000145388318974678 -0.000314183286317883 0.000276985824192359 0.000622489792066265 0.000407094594616412 0.000370280999319449 0.000269393079590273 0.000388627158360593
"149" 0.000357333493747098 0.000505434657780739 0.000189947891432456 0.000465723770259873 0.000233786133986252 0.000289630194426058 0.000131951209291495 0.000279550801199053 0.00014470090135217 -0.000284270210112715 0.000261671523797611 0.000631112717273551 0.000428949581128937 0.00034556144536255 0.000259683519796889 0.000395828477145018
"150" 0.000395606891399513 0.000545522864988348 0.000254707894326356 0.000485015042176933 0.000260805124016767 0.000310841430372097 0.00014717987185532 0.000320790792465352 0.000144777463052319 -0.000254959527808486 0.000247117165203457 0.000640214405480369 0.000450012115582546 0.000321928329118417 0.000250348177051748 0.000402483911059746
"151" 0.000432557254603881 0.000583234650151208 0.000318413910939534 0.000503397793324289 0.000286653877852454 0.000331325986239744 0.00016136277425113 0.000361119209001542 0.000145623788026565 -0.000226384426620034 0.000233378268290994 0.000649785635695656 0.000470212706061242 0.000299463160680716 0.000241413976327116 0.000408585691709839
"152" 0.000468054722215703 0.000618453730880327 0.000380786289857208 0.000520814056871979 0.000311233215098543 0.000351021309022552 0.000174470235965009 0.000400354343331155 0.000147250339664099 -0.00019866812172242 0.000220501221480429 0.000659814845067639 0.000489485871932333 0.000278240614944121 0.000232903602452071 0.000414118161109047
"153" 0.000501963132855784 0.000651082375166816 0.000441534046919921 0.000537208238363312 0.000334451569525117 0.000369868403121483 0.000186473982498035 0.000438316972533388 0.000149649263882029 -0.000171924781298645 0.00020853194032679 0.000670285556404119 0.000507767903204314 0.000258322943793171 0.000224838712151226 0.0004190788361928
"154" 0.000534172514175346 0.000681045936907824 0.000500392269829764 0.00055253252784829 0.000356238656019145 0.000387813185147431 0.000197356382417791 0.000474837772746082 0.000152814351482311 -0.00014625229748667 0.000197509689101749 0.000681172609138808 0.000525001139368133 0.000239766100459334 0.000217232048676834 0.00042346255306941
"155" 0.000564576439501439 0.00070829086148482 0.000557090299073892 0.000566751156851894 0.000376520586097593 0.000404810427080633 0.000207113810237649 0.000509760285987892 0.000156727249020897 -0.000121739783201764 0.000187467168586958 0.000692456309889721 0.000541141672444722 0.000222612113983843 0.000210097073393319 0.000427266275477652
"156" 0.000593085959172303 0.000732792541452551 0.00061138121267466 0.000579839229874422 0.000395248626140075 0.000420824326946315 0.000215748011456566 0.00054293014795631 0.000161361276485558 -9.846035444366e-05 0.000178434206324531 0.000704100910799715 0.000556136298849446 0.000206892754203737 0.000203441644167065 0.000430492243247004
"157" 0.000619621980562623 0.000754537522637915 0.000663023981849518 0.000591774042114551 0.00041237992600933 0.000435819452253591 0.000223261741017644 0.000574213479955583 0.000166686179737703 -7.64730249557769e-05 0.000170429790999907 0.000716072810727812 0.00056994988803622 0.000192631741980523 0.000197269573784128 0.000433145727847761
"158" 0.000644125289267821 0.00077355069866571 0.000711803244617319 0.000602551294850171 0.00042788323904489 0.000449775339043653 0.000229679263211642 0.000603485605126283 0.000172657373858853 -5.58204773691027e-05 0.000163468783663899 0.000728335587379162 0.000582550219610668 0.000179840572199968 0.000191577227008225 0.000435225676706763
"159" 0.00066654400814389 0.00078986201213045 0.000757522528572342 0.000612163461248238 0.000441750662595267 0.000462674544660791 0.000235021165215772 0.000630634243105167 0.000179232570159221 -3.6536645322679e-05 0.000157559588149368 0.00074084412785565 0.000593909394353941 0.000168513849526727 0.000186360985301028 0.000436743405617857
"160" 0.000686856404083275 0.000803535979731759 0.000800005782560547 0.000620620840501097 0.000453971461683262 0.000474508182074274 0.000239323366788696 0.000655573500391185 0.000186354617441466 -1.86323811346346e-05 0.000152705032451055 0.000753551179454097 0.000604008066526198 0.000158644371740266 0.000181609312412247 0.00043770545968984
"161" 0.000705047962701643 0.000814651674511191 0.000839106976889067 0.000627936250685526 0.000464558839526367 0.000485272366608846 0.000242625219898823 0.000678224118400012 0.000193961135167191 -2.1124005769012e-06 0.000148895841168083 0.000766396949586563 0.000612830881352749 0.000150201556918036 0.000177306276105701 0.000438119434940892
"162" 0.000721123644855055 0.000823304481912241 0.000874704280375124 0.000634133880878611 0.000473543528136111 0.000494977693764211 0.000244975954623815 0.000698526856442689 0.00020198844372749 1.30396036634208e-05 0.000146120999174444 0.000779334515182043 0.000620373127023023 0.000143148855287189 0.000173430190715576 0.000437995095002708
"163" 0.000735100907989177 0.000829613532326347 0.000906704487198884 0.000639244158670431 0.000480950809003416 0.00050363236488427 0.000246426106104986 0.000716447105570181 0.000210360241060014 2.68501476539279e-05 0.000144358887289291 0.000792301012653558 0.00062663219272374 0.000137439603001907 0.00016995855219437 0.00043734443154739
"164" 0.000747012248524949 0.000833705443960469 0.000935039226841258 0.000643297132565984 0.000486834688518428 0.000511257104682419 0.000247029522311177 0.000731963140403682 0.000219001647576026 3.93547455950592e-05 0.00014358530488098 0.000805230929187095 0.000631616880085574 0.000133014027478484 0.000166859882801211 0.000436177092574003
"165" 0.000756918941533848 0.000835726638855907 0.000959679792123851 0.000646338359666818 0.000491252612057976 0.000517877179131808 0.000246857622286846 0.000745073990855306 0.000227825208981624 5.0605238266495e-05 0.000143765125108832 0.00081806225342445 0.000635339967691371 0.000129797928150559 0.00016409825698757 0.000434505727571538
"166" 0.000764881979960032 0.000835833431248042 0.000980618964570154 0.000648410126603642 0.000494273464539204 0.000523521739878231 0.00024596572613094 0.000755799965755771 0.000236744542911591 6.06654878835406e-05 0.00014485312737297 0.000830719945825685 0.000637814229536857 0.000127707229359246 0.000161636301849512 0.000432340585631769
"167" 0.000770976014139825 0.000834188713911108 0.000997880810899238 0.000649565368189693 0.000495974586192015 0.00052822931649241 0.000244430093004665 0.000764174960703224 0.000245674090773169 6.95990850086031e-05 0.000146806099432369 0.000843139106251748 0.000639071532474661 0.000126656228917954 0.000159433039664983 0.000429695650106705
"168" 0.000775304486916881 0.000830968392940478 0.00101152228575071 0.000649856616254536 0.000496443906432389 0.00053203938157907 0.000242317112588565 0.000770254824940841 0.000254517214351583 7.74866385229025e-05 0.000149566044751849 0.000855242078794211 0.000639137146753445 0.000126533716106357 0.000157439818478993 0.000426582523664515
"169" 0.00077796010479971 0.000826349682169995 0.00102162355525145 0.00064933730785496 0.00049577153152793 0.000534994054829042 0.000239698860302863 0.000774113049281557 0.000263176437811007 8.44124624411319e-05 0.000153072861834714 0.000866951359349035 0.000638041510019191 0.000127232424849786 0.000155605141270516 0.000423009699137664
"170" 0.000779063724817367 0.000820516525390958 0.00102829722172836 0.000648068495785237 0.000494057049485269 0.000537143036513275 0.000236646413795966 0.000775834502282808 0.000271556599433657 9.04612093022899e-05 0.000157257057149787 0.000878194947715013 0.000635829029027507 0.000128626449627956 0.000153876837568308 0.000418992463142769
"171" 0.000778732886490427 0.000813647026649762 0.00103167158923353 0.000646107561274242 0.000491404489020276 0.000538534268242402 0.000233229441733284 0.000775522549708167 0.000279559715778308 9.57256035006094e-05 0.000162048133735328 0.000888890425704359 0.000632537119600027 0.000130591810481454 0.000152196723840842 0.000414539929661789
"172" 0.000777095058592425 0.000805930104614169 0.00103190891621809 0.000643515298093822 0.000487916374217237 0.000539219902351857 0.000229518804016383 0.000773291957789724 0.000287093646759661 0.00010029529022074 0.000167367879715352 0.000898963500582903 0.000628213709797429 0.000132989853052706 0.000150507940687631 0.000409663424341572
"173" 0.000774283371075554 0.000797543535394633 0.00102918311531491 0.000640352535885954 0.00048370653091582 0.000539254509351686 0.000225584452642481 0.000769273642687267 0.000294054343710606 0.00010426463528298 0.000173130861619323 0.000908332391395737 0.000622904136721168 0.000135683398818077 0.000148746894029988 0.000404371005950132
"174" 0.000770436486550013 0.000788659345298338 0.00102368983052158 0.000636676244896603 0.000478876234838124 0.000538686560671327 0.000221485744504238 0.000763598657139183 0.000300355229147966 0.000107720672160238 0.000179252095908259 0.000916920914911423 0.000616658673709169 0.000138523490274469 0.00014685275361625 0.000398674737515579
"175" 0.000765685656772886 0.00077945177400742 0.0010156437182742 0.000632544239741047 0.000473539485176733 0.000537573544492055 0.000217282471909822 0.000756416617419183 0.000305900845893196 0.00011075083291168 0.00018564043948315 0.000924649744701217 0.000609526196418677 0.000141364354522803 0.000144759468157377 0.000392583701023033
"176" 0.000760177339389895 0.000770079214676887 0.00100526355430454 0.000628015088983228 0.000467797549507949 0.000535966216254279 0.000213032331850077 0.000747877103679148 0.000310602964256451 0.000113436949875399 0.000192200372610006 0.000931444237522385 0.000601560244212665 0.000144055098315417 0.000142403128391327 0.000386104766733933
"177" 0.000754036971192702 0.000760692967986548 0.000992783346511549 0.000623142551057215 0.000461753811995054 0.000533914074526868 0.000208784081644834 0.000738135492315467 0.000314383554867004 0.000115853931587987 0.000198840866071741 0.000937234719776689 0.000592813936533673 0.00014644519572127 0.000139720986500362 0.000379248364240052
"178" 0.000747401362470966 0.000751435493850039 0.000978440315485493 0.000617976450840135 0.00045550847188368 0.000531467272064267 0.000204589242599899 0.000727355003843506 0.000317158760363729 0.000118069471811186 0.000205459810010399 0.000941939597922984 0.000583332583779212 0.000148384808428289 0.000136647290309177 0.00037202067467279
"179" 0.000740402049144674 0.000742435972133241 0.0009624833406068 0.000612565833532656 0.000449150949189365 0.000528671011155662 0.000200481591235299 0.000715692871446423 0.000318858010796867 0.000120142001850842 0.000211962802852231 0.000945499650290784 0.000573171262355121 0.000149727935861932 0.000133120489687888 0.000364427434812238
"180" 0.000733153788175256 0.000733812108500903 0.000945151531819305 0.000606957103073081 0.000442767892633985 0.0005255704109612 0.000196497819899336 0.000703307414438629 0.000319417898316992 0.000122125431809651 0.000218248928963627 0.000947847897292392 0.000562370797734184 0.000150330620815113 0.000129079778036407 0.0003564780324457
"181" 0.000725776591225826 0.000725663993269125 0.000926689316796499 0.000601188798157824 0.000436438297618146 0.000522203973157731 0.00019266900680144 0.000690358447331699 0.000318777495058877 0.000124054144840094 0.000224226673836412 0.000948920966281255 0.000550987618626548 0.00015006006369965 0.000124469808785406 0.000348180376827146
"182" 0.000718376918550178 0.000718083982171447 0.000907334287732534 0.000595304805841304 0.00043023482760415 0.000518608778346356 0.000189010720993796 0.000676993192294943 0.000316883833440818 0.0001259615755391 0.000229799172235661 0.00094866243750942 0.00053905830647594 0.000148780921415037 0.000119231462818675 0.000339536363521707
"183" 0.000711048062968491 0.000711143228839208 0.000887320773700501 0.000589333577856163 0.000424219614369178 0.000514819068490994 0.000185541165666007 0.000663365527084334 0.000313699268892482 0.000127865475425599 0.00023487474698456 0.000947024422017882 0.000526626829716724 0.00014637718907888 0.000113319149740127 0.000330556565891313
"184" 0.000703875971115913 0.000704900334684332 0.000866867470955932 0.000583305691101187 0.000418447239120079 0.000510862836847422 0.000182270655441323 0.000649612030455369 0.000309186524539766 0.000129775349131246 0.000239368609797575 0.000943959198000743 0.000513730983852829 0.000142735248024513 0.000106684210352132 0.000321250416655767
"185" 0.000696943337390986 0.000699403716542385 0.000846189297410066 0.000577249748987838 0.000412965950319611 0.000506765167642367 0.000179201794420668 0.000635862797899259 0.000303324587460235 0.00013168412342979 0.00024319765057919 0.00093942956354759 0.000500405508290836 0.000137757138442317 9.9285575205979e-05 0.000311620472975063
"186" 0.000690314635707351 0.000694681756219898 0.000825481307622376 0.000571187728196121 0.000407807889389729 0.000502549394958712 0.000176332517749309 0.000622245437396758 0.00029609788498576 0.000133580859245867 0.000246283208168109 0.000933404129805416 0.000486681107047585 0.000131356726985066 9.10899245669969e-05 0.000301675905064928
"187" 0.000684041159752825 0.000690746615708569 0.000804935770099885 0.000565138937226578 0.000403003603391222 0.00049823023814838 0.000173655912600624 0.00060886941409563 0.000287498339652689 0.000135438587790586 0.000248556267143895 0.000925855578524664 0.000472586276302596 0.00012345905024999 8.20647303675043e-05 0.000291423553191678
"188" 0.000678169247073546 0.000687599173018935 0.000784717417748578 0.000559115736264615 0.00039857087371877 0.000493822148811947 0.000171152091386722 0.000595841321120648 0.000277537014732082 0.000137223748679407 0.000249954071685102 0.000916766287617787 0.000458148382624754 0.000114006437587273 7.21893597909201e-05 0.000280875372192309
"189" 0.000672729420818251 0.00068522730403277 0.00076497995371155 0.000553132193968985 0.000394516007304205 0.000489331964156818 0.000168812852669779 0.000583248462911237 0.000266220699555863 0.000138891306577232 0.000250419581599941 0.000906126584815281 0.000443383489570498 0.000102956201180801 6.14451563078123e-05 0.000270036910557022
"190" 0.000667746789934845 0.000683605854983222 0.000745861100933207 0.000547195550879302 0.000390840756075268 0.000484770644509372 0.000166614614466216 0.000571177899892585 0.000253579583427149 0.000140390641475406 0.000249904558480254 0.000893936005405345 0.000428313552375031 9.02757022232258e-05 4.98257209047061e-05 0.00025891783284128
"191" 0.000663224803639968 0.000682694720124212 0.000727478968440566 0.0005413085435058 0.000387541127948572 0.000480138492888342 0.000164526164275988 0.000559690753607229 0.000239645253302436 0.000141658791015278 0.000248374780220644 0.000880205123526246 0.000412950836235627 7.59578421998439e-05 3.73272882267409e-05 0.00024753196622842
"192" 0.00065916938279391 0.000682442497700955 0.000709938918514154 0.000535480611916208 0.000384599092444671 0.000475435272228946 0.000162526039862203 0.000548847769485036 0.000224462354475456 0.000142631894309971 0.000245793965322872 0.000864943346758273 0.000397310487831208 6.00030920163809e-05 2.39535719052747e-05 0.000235888287610696
"193" 0.000655568839415227 0.000682793268591356 0.00069331511389509 0.000529705673820185 0.000381995963894204 0.000470658367748331 0.000160583074609673 0.000538694253957678 0.000208082459231468 0.000143236877383381 0.000242145839726753 0.000848180211097169 0.000381398765609114 4.2435419569801e-05 9.7222679059402e-06 0.00022400173991833
"194" 0.000652404995884383 0.000683677554981866 0.000677681855206273 0.000523984659579736 0.000379696434602932 0.000465803986794486 0.000158663772521508 0.00052926056075108 0.000190565561882992 0.00014339606738639 0.000237420590265476 0.000829944736411437 0.000365220149024377 2.32855100020814e-05 -5.35103141208339e-06 0.00021188369537778
"195" 0.000649653381085321 0.000685015223213717 0.000663082202536586 0.00051831215920951 0.000377672130394999 0.000460864256592298 0.00015673560191754 0.000520572992611856 0.000171980414604102 0.00014303364751704 0.000231613749822876 0.00081028182601604 0.000348786191851472 2.60554397456064e-06 -2.12367271437518e-05 0.000199549263070379
"196" 0.000647273999520494 0.000686725337060137 0.000649546982352004 0.00051268488260244 0.000375884207659696 0.000455832298090811 0.000154763977192061 0.000512641804520318 0.000152403977911967 0.000142068330958181 0.000224736698311597 0.000789241706138643 0.000332094823429314 -1.95364043862966e-05 -3.79013627169854e-05 0.000187016871185803
"197" 0.000645235101112341 0.000688720771759096 0.000637095427922592 0.000507099317333527 0.000374286617084503 0.000450698571611757 0.000152717334023544 0.000505466392154965 0.000131917678832177 0.000140420470752339 0.000216806664492394 0.000766881297302933 0.000315148365142372 -4.30669522027191e-05 -5.53039119592192e-05 0.00017429741110325
"198" 0.000643487504875444 0.000690908600127858 0.00062572072890006 0.000501544007462819 0.00037283633753661 0.000445454328912747 0.000150560358539114 0.000499035285667134 0.000110607918932428 0.000138010053208587 0.00020784785122896 0.000743269253098886 0.000297949077907529 -6.78900691904511e-05 -7.3396956516896e-05 0.000161411610939582
"199" 0.000641980527963951 0.000693195588474911 0.00061540964073765 0.000496016798982589 0.000371484522028116 0.000440090993740917 0.000148268711079091 0.000493337600624387 8.85700659006348e-05 0.000134763579196873 0.000197900198981134 0.000718475268330744 0.000280497771272583 -9.39041058483891e-05 -9.21274679922925e-05 0.00014837971006098
"200" 0.000640659437488723 0.00069548523086132 0.000606132393345895 0.000490511414093935 0.000370179515149015 0.000434599227567275 0.000145808252695726 0.000488343821615993 6.58972486836481e-05 0.000130606323071697 0.00018700285184685 0.000692586276278292 0.000262793064065192 -0.000120995338667981 -0.000111434402600016 0.000135219009203105
"201" 0.000639473560489739 0.000697685620447315 0.000597852892798158 0.00048502107252037 0.000368872463182818 0.000428969168664423 0.000143155896153598 0.000484018908423367 4.2693269930315e-05 0.000125476953751562 0.000175211817957408 0.000665684608007134 0.000244835650684743 -0.000149042681652533 -0.000131258321479025 0.000121949079915308
"202" 0.000638364580118406 0.000699702152445857 0.000590517372349509 0.000479539819161427 0.000367514006335331 0.000423196292653945 0.000140285336588811 0.000480326680485242 1.90596488333076e-05 0.000119310810708743 0.00016258432863506 0.000637869352875524 0.000226630919489204 -0.000177913066890976 -0.000151529009635447 0.000108593449298768
"203" 0.000637277650395973 0.000701447692011369 0.000584065396720628 0.000474066867096249 0.000366057337448218 0.000417276248634224 0.000137182652401601 0.000477217268905949 -4.89900268485601e-06 0.000112059078134572 0.000149184616607971 0.000609232462002979 0.000208175576661236 -0.000207472855406951 -0.000172174272999918 9.5174828254372e-05
"204" 0.000636155270157078 0.000702837741847011 0.000578427707732104 0.000468598827754394 0.000364456019008242 0.000411202607984581 0.00013382798282636 0.000474643656308125 -2.90792855826941e-05 0.00010367982503882 0.000135085856794981 0.000579881694762088 0.000189476819975395 -0.000237578212627746 -0.000193123256523809 8.17139134635328e-05
"205" 0.000634945396925559 0.000703789323305866 0.00057352956666985 0.000463135018046614 0.000362662189621748 0.000404977667694254 0.000130210249465766 0.000472551925901459 -5.33730080139434e-05 9.41396194910979e-05 0.000120363612317111 0.000549921871878021 0.000170542542475724 -0.000268082683040311 -0.000214292657962671 6.82381758622568e-05
"206" 0.000633599641148879 0.000704238874906614 0.000569293995374494 0.000457674826449824 0.000360644409502125 0.00039860036144254 0.000126321328397796 0.000470885765126567 -7.76814148746738e-05 8.34175791058372e-05 0.000105098914107252 0.000519464091940063 0.000151377661641466 -0.000298842066544357 -0.00023560924680915 5.47638518122704e-05
"207" 0.000632069726124181 0.000704113242225291 0.000565635734558781 0.000452222217685299 0.000358362008885556 0.000392076581456804 0.000122160408056783 0.000469586941628429 -0.000101892813182017 7.15026961923959e-05 8.93738831323606e-05 0.000488620020033892 0.000132000406680288 -0.000329702908001012 -0.000256988984397669 4.13237152408328e-05
"208" 0.000630313782544511 0.000703366351130421 0.000562469030320273 0.000446786594791494 0.000355785143563428 0.000385412428306853 0.000117733012408889 0.000468594604366568 -0.0001259150073986 5.83989094477823e-05 7.32743334475163e-05 0.000457506734602995 0.000112418412340356 -0.000360523738960175 -0.000278352703754473 2.79396673071689e-05
"209" 0.000628296093668853 0.000701947039328315 0.000559714351480499 0.000441369838656414 0.000352889550217014 0.000378618987276676 0.0001130457295434 0.000467854021499687 -0.000149646847621907 4.41210179017685e-05 5.68941838878683e-05 0.000426234008639788 9.26512035253292e-05 -0.000391155153400144 -0.000299619359505772 1.46368606773777e-05
"210" 0.000625989680897787 0.00069982065013827 0.000557279028323158 0.000435983550065668 0.00034965798973657 0.000371709448214095 0.000108105861036075 0.000467304481002845 -0.000172994558942935 2.86951131957733e-05 4.03174887342332e-05 0.00039492179032889 7.27206941025458e-05 -0.0004214504156349 -0.000320707241054539 1.4437528033601e-06
"211" 0.000623363098998702 0.000696965237942508 0.0005550841548294 0.000430639803973447 0.000346073725607685 0.000364700441932423 0.000102934947252121 0.000466892784935613 -0.000195868355662248 1.21633618237626e-05 2.36371110673647e-05 0.000363685610298509 5.26532128842702e-05 -0.000451276022459109 -0.000341538253960037 -1.16146919366121e-05
"212" 0.000620408127683689 0.000693367564993468 0.000553051185620385 0.000425353122566305 0.000342132458052145 0.00035761037318671 9.75545195044026e-05 0.000466563908234235 -0.000218182954924858 -5.41926288457207e-06 6.94149340628039e-06 0.000332633053877269 3.24736859456383e-05 -0.000480493962699567 -0.000362036757282883 -2.45140899339561e-05
"213" 0.000617110580430369 0.000689022709251594 0.000551107374602318 0.000420135298744323 0.000337832621901798 0.000350462974578228 9.19883320704878e-05 0.000466270330672644 -0.000239855138528114 -2.39862798720642e-05 -9.67835017241167e-06 0.000301879436303661 1.22179804057191e-05 -0.000508977445573257 -0.000382123990222408 -3.72249411900308e-05
"214" 0.000613468092499873 0.000683942151437416 0.000549180435818092 0.00041500731986008 0.000333183307809513 0.000343281972094463 8.62721944649481e-05 0.000465970435295911 -0.000260812134514514 -4.34564418478408e-05 -2.61392423348651e-05 0.000271531811848727 -8.08222862783685e-06 -0.000536599574234549 -0.000401731385258653 -4.97193598609901e-05
"215" 0.000609487646287829 0.000678143707511697 0.000547211916797169 0.000409989570099656 0.000328194241691808 0.000336095734460735 8.04331003935257e-05 0.00046562003017267 -0.000280981189604993 -6.37410676346602e-05 -4.23535964981927e-05 0.000241705185051907 -2.8377236346681e-05 -0.000563251396007881 -0.000420783792431992 -6.19706464514436e-05
"216" 0.000605182506623371 0.000671661459769794 0.000545145700751213 0.000405098322785111 0.000322889121612941 0.000328936666734844 7.45136023144942e-05 0.000465185760874657 -0.000300302781879485 -8.47355614305267e-05 -5.82421610609679e-05 0.000212492538339639 -4.86322479055024e-05 -0.000588821459756087 -0.000439219253542326 -7.3950559622133e-05
"217" 0.000600571156920829 0.000664534747508337 0.000542933746461805 0.000400361893823555 0.000317291556634576 0.000321836688558639 6.85590496674908e-05 0.000464638918485866 -0.000318713494956297 -0.000106326488584908 -7.37268424214784e-05 0.000183996365735901 -6.87966694725186e-05 -0.000613216617272005 -0.000456974778320879 -8.5634779182416e-05
"218" 0.000595680132139142 0.000656815258266365 0.000540537987863932 0.000395795317787163 0.000311435335704949 0.000314828664134046 6.26063242077761e-05 0.000463958792265652 -0.000336166182011717 -0.000128388124718525 -8.8731348755407e-05 0.000156315837454993 -8.88156081106966e-05 -0.00063634209176975 -0.00047398885947883 -9.69924597792462e-05
"219" 0.000590540785379938 0.000648562867389573 0.000537926232536177 0.00039142862884671 0.000305357177077262 0.00030795021867598 5.67035100323465e-05 0.000463128456551322 -0.000352610179383933 -0.000150793113400169 -0.000103186433046566 0.000129540788620505 -0.000108637671570069 -0.000658116831659935 -0.000490206719100658 -0.00010799349068273
"220" 0.000585200111758648 0.000639850380059107 0.0005350803466961 0.000387284310645056 0.000299097171105837 0.000301238992466239 5.09023325924239e-05 0.000462134862230434 -0.000368010750133344 -0.000173398138393563 -0.000117027989331326 0.000103753442437928 -0.00012820354579259 -0.000678475493081225 -0.000505581883491724 -0.000118613646653163
"221" 0.00057969438075527 0.000630747918912222 0.000531986896962384 0.000383383651535441 0.000292706523796283 0.00029473247229929 4.52477850118892e-05 0.000460979611079873 -0.000382331387326279 -0.000196060028710644 -0.000130193386496506 7.90429121101281e-05 -0.000147451688355711 -0.000697350088948856 -0.000520062545983783 -0.000128821873601951
"222" 0.000574083712266933 0.000621343862719823 0.000528639332371706 0.000379754034397635 0.000286237754807247 0.000288469341335087 3.9792800419721e-05 0.000459664967118498 -0.00039554641425473 -0.000218623167975061 -0.000142631276464145 5.54783528704259e-05 -0.000166320161458067 -0.000714689807862121 -0.000533613011142915 -0.000138589691587012
"223" 0.000568412694687071 0.000611721855464124 0.000525045137728025 0.00037641782588071 0.000279739922249037 0.000282488045311014 3.45859467572919e-05 0.00045819725915571 -0.000407633100219435 -0.000240935967781292 -0.00015428773534584 3.31341315313043e-05 -0.000184742601251603 -0.000730454578759239 -0.000546192578593067 -0.00014788891889268
"224" 0.000562747826830318 0.000601978486166787 0.000521212010801475 0.000373395469836104 0.000273275154629278 0.000276826846820608 2.9675949772236e-05 0.000456592650685714 -0.000418581256465576 -0.000262840147428415 -0.000165124553246701 1.20734423880791e-05 -0.000202656074255726 -0.000744609076767754 -0.000557771299145732 -0.000156694448179798
"225" 0.000557145052439718 0.000592206357077589 0.000517162854669423 0.00037071029958173 0.000266898303384704 0.00027152315953981 2.51140191138033e-05 0.000454872699401873 -0.000428377348893859 -0.000284180118602212 -0.000175101512140865 -7.64001127848103e-06 -0.000219989996955213 -0.000757129562825135 -0.000568322722022482 -0.000164972599096911
"226" 0.000551672100759325 0.000582504125302707 0.000512921470123259 0.000368382849054889 0.000260671809956357 0.000266612114701189 2.09487271874019e-05 0.000453061125636217 -0.000437019679841995 -0.000304794449676484 -0.000184186103157773 -2.59543349790762e-05 -0.000236676441160966 -0.000768002329952709 -0.00057782328360542 -0.00017269702102203
"227" 0.000546390780806926 0.000572972734520813 0.000508525350683994 0.000366428953676087 0.000254660455621154 0.000262127756257844 1.72206174099659e-05 0.000451188370399908 -0.000444512082181306 -0.000324531836508037 -0.000192354647960359 -4.28280275174976e-05 -0.00025265118384705 -0.000777224181443945 -0.000586258742031886 -0.00017984315866288
"228" 0.000541364398236963 0.000563707024986399 0.000504007483248666 0.000364863907596375 0.000248919727429117 0.000258102082971884 1.39752701519441e-05 0.000449290915416401 -0.000450863394377062 -0.000343239379940055 -0.0001995861997236 -5.82113136854304e-05 -0.000267845458852597 -0.000784796079276305 -0.000593614222587639 -0.000186381545579308
"229" 0.00053665893223305 0.000554805270847865 0.000499409954507565 0.00036370382897771 0.000243508059102162 0.000254562876187792 1.12506181196935e-05 0.00044740326577179 -0.000456085099394362 -0.00036077019427602 -0.000205869037019712 -7.20700019498226e-05 -0.000282192589585273 -0.000790731075645239 -0.000599880528672568 -0.000192284140911542
"230" 0.000532335011654308 0.000546356291131325 0.000494774905385707 0.000362955029340365 0.00023848781304873 0.000251537475032798 9.08210512024737e-06 0.000445566713580309 -0.000460195536996471 -0.000376986793988314 -0.000211191571998354 -8.43709559931841e-05 -0.000295626989733757 -0.000795045618002792 -0.000605054788853171 -0.000197523901248202
"231" 0.000528457390968 0.000538457870043048 0.000490157221479438 0.00036262913086079 0.000233908298383081 0.000249049380152742 7.50534511870814e-06 0.000443825404652609 -0.000463216463065564 -0.000391754625928857 -0.000215556647752928 -9.50956000429345e-05 -0.000308093924833543 -0.000797770115414079 -0.000609138716491784 -0.000202077901551385
"232" 0.000525077911142959 0.000531188212198533 0.000485600266260851 0.00036273262694458 0.000229821364958033 0.000247117219490197 6.54324741198335e-06 0.000442214860286793 -0.000465176948653649 -0.000404953150187538 -0.000218963852541103 -0.000104222437930005 -0.000319526990340826 -0.000798938575354823 -0.000612136955764746 -0.000205918478221662
"233" 0.00052225099722218 0.000524624461843922 0.000481153216406248 0.000363261977776118 0.000226277019718565 0.000245754017924827 6.22378619657559e-06 0.000440785723289113 -0.000466105793403864 -0.000416468165528067 -0.000221427913306497 -0.000111745951524484 -0.000329876489490495 -0.000798590387559831 -0.000614059318348815 -0.000209024838554302
"234" 0.000520029709130719 0.000518838956601146 0.000476868086746662 0.000364218080229088 0.000223314804100476 0.000244971023278737 6.55755700665032e-06 0.000439574696532095 -0.00046604103273644 -0.000426196885496852 -0.000222959659349146 -0.000117652592201456 -0.000339090735879882 -0.000796772927483737 -0.000614920285519794 -0.000211374740574703
"235" 0.00051845569890198 0.000513895255918067 0.00047278719351845 0.000365596628706306 0.000220969066901526 0.000244776108215441 7.56416593738557e-06 0.000438625328765062 -0.000465020066699363 -0.000434051972710719 -0.000223582676411907 -0.000121948063293486 -0.000347126286423219 -0.000793540408817712 -0.000614735877245652 -0.000212946327330584
"236" 0.000517560804438765 0.000509843912829617 0.000468958534278486 0.000367383013309392 0.000219276679716617 0.000245167333999073 9.24911370551313e-06 0.000437976701913935 -0.000463083344369836 -0.000439957617246779 -0.000223318814237396 -0.000124636787696523 -0.000353938320525619 -0.00078894465167025 -0.000613523237347089 -0.000213720235046994
"237" 0.000517385828905885 0.000506732531993555 0.000465420151863702 0.000369570330589906 0.00021825844879824 0.00024614493281401 1.16163474161796e-05 0.000437665481318714 -0.000460279061354281 -0.000443851448984613 -0.000222199574849411 -0.000125737568812802 -0.000359496309409228 -0.000783054401847414 -0.000611312085139902 -0.000213682624239787
"238" 0.00051794761223981 0.000504589734000756 0.000462214982340656 0.000372140031961241 0.000217933741144027 0.000247696680037606 1.46559871673154e-05 0.000437726871011491 -0.000456651163585516 -0.000445684911783681 -0.000220257463964658 -0.000125265521557538 -0.000363771283413384 -0.00077593160790106 -0.0006081256618849 -0.000212816859324711
"239" 0.000519267350678771 0.00050343888963909 0.000459368258168089 0.000375069017810039 0.000218313543224725 0.000249813298667726 1.83680695244416e-05 0.000438186053221485 -0.000452251471525874 -0.000445426478710708 -0.00021753396514666 -0.000123251765988368 -0.000366740348922355 -0.000767645327813058 -0.000603994448506064 -0.000211110081364446
"240" 0.000521352978668824 0.000503292572913321 0.000456916527570743 0.000378336161437548 0.000219401460873382 0.000252473845918734 2.27291542822902e-05 0.000439067421558938 -0.000447132695512404 -0.000443057230417963 -0.000214069093952718 -0.000119729493906452 -0.000368391703863858 -0.000758268484433764 -0.000598953924764396 -0.000208555196951032
"241" 0.000524205396184201 0.000504146737846109 0.000454871038041341 0.000381911950417274 0.000221192465337273 0.000255656192729511 2.77242015046381e-05 0.000440394098748033 -0.00044134418744415 -0.000438579042276311 -0.000209903606251545 -0.00011472958595697 -0.000368712693872957 -0.000747871893038292 -0.00059303542391892 -0.000205140930329514
"242" 0.000527818878214681 0.000505985684864535 0.000453248967371229 0.000385763864591863 0.000223675606900072 0.000259331883028389 3.3325823348923e-05 0.000442175109859818 -0.000434944818505995 -0.000432003158222727 -0.000205092793313374 -0.000108305521174662 -0.00036770619167753 -0.00073653475348534 -0.000586278695912711 -0.000200865660795811
"243" 0.000532179238620023 0.000508787998587022 0.000452063786685865 0.000389857561830729 0.000226836591891633 0.000263468678715426 3.95062012082225e-05 0.000444418570975023 -0.000427991420655302 -0.000423359251463018 -0.00019968471185429 -0.0001005096142393 -0.000365383495283117 -0.000724331857331665 -0.000578725418997937 -0.000195732268365428
"244" 0.000537259902398642 0.000512512356829204 0.000451310267393155 0.000394153837182271 0.000230645958435588 0.000268028343320078 4.6231956856794e-05 0.000447126765860316 -0.000420532729963356 -0.000412691192142418 -0.00019373013088491 -9.1399807498506e-05 -0.000361757507203586 -0.0007113384618135 -0.000570414002084122 -0.000189742271677955
"245" 0.000543034248160677 0.00051710787999127 0.000450988105513615 0.000398610634020794 0.000235070992403527 0.000272972418747707 5.34556576592842e-05 0.000450295385604764 -0.000412635200610534 -0.000400062522487897 -0.000187286373637484 -8.10421788572514e-05 -0.000356850264736301 -0.000697633808740868 -0.000561390322189971 -0.000182900867335454
"246" 0.000549460054178277 0.000522512408724576 0.000451083652059771 0.000403186322943064 0.000240075108229977 0.000278254471068482 6.11398865410829e-05 0.000453909758363182 -0.000404348130911009 -0.000385546308604679 -0.000180406381788503 -6.95038616785076e-05 -0.00035069573442602 -0.00068329533750918 -0.000551696639118948 -0.000175223459444454
"247" 0.000556495583979327 0.000528647671223134 0.000451572435322339 0.000407825526540446 0.000245612641617701 0.000283825612860508 6.9239521984812e-05 0.000457954045315004 -0.000395729617287907 -0.000369232540175617 -0.000173152267229557 -5.68661097352525e-05 -0.000343335946575855 -0.000668396400091854 -0.00054137875758915 -0.000166721083867685
"248" 0.0005640829696196 0.000535430613832269 0.000452433622740538 0.000412487047768817 0.000251626533043058 0.000289634646648558 7.76984851828449e-05 0.000462402215377572 -0.00038683851862463 -0.000351221805598603 -0.000165576587506588 -4.32066325390699e-05 -0.000334812698822892 -0.000653013180309088 -0.000530484704589394 -0.000157413714511103
"249" 0.000572158446061169 0.000542763972146636 0.000453634407979998 0.000417112862182709 0.000258065351656271 0.000295628565894783 8.64680762099497e-05 0.000467218741415339 -0.000377727621462783 -0.000331632443305831 -0.000157738178504957 -2.86191983249177e-05 -0.000325183855683741 -0.00063721720347928 -0.000519061320444394 -0.000147325086865385
"250" 0.000580662492192918 0.000550539574380257 0.000455132908598863 0.000421651649156725 0.000264865670290689 0.000301750878040301 9.54899781830323e-05 0.00047236702324773 -0.000368450782089353 -0.000310588250823451 -0.000149697762890283 -1.31935665238782e-05 -0.000314511534722969 -0.000621083167313777 -0.000507158837480307 -0.000136487396006485
"251" 0.000589514758840528 0.000558639741797139 0.000456887528217746 0.000426047035196483 0.000271955704908722 0.000307943364906815 0.000104707819382941 0.000477801144536185 -0.000359064662113236 -0.000288230431653078 -0.000141510126431157 2.9661620331212e-06 -0.000302865800766396 -0.00060467917702268 -0.000494823765697046 -0.000124929798196695
"252" 0.000598641749156257 0.000566943284636419 0.000458849626809494 0.000430242074758332 0.000279266498856768 0.00031414395208205 0.000114063339383695 0.000483471790205468 -0.000349616904344074 -0.000264703776432357 -0.000133235130440926 1.97578555311845e-05 -0.000290323687031391 -0.000588074141555658 -0.000482106213043713 -0.000112694868372186
"253" 0.000607956370710797 0.000575315129311201 0.000460967264305412 0.000434184588051957 0.000286728474834771 0.000320298917866168 0.000123501193354157 0.000489325563589801 -0.000340158124988255 -0.000240165255659725 -0.000124922637436584 3.70757019355753e-05 -0.000276965189776705 -0.000571330196624523 -0.000469055579907019 -9.98191880275695e-05
"254" 0.000617371459114501 0.000583618211478929 0.000463183100751955 0.000437811609103779 0.000294263371463875 0.000326343563799679 0.000132954119543486 0.000495294957744373 -0.00033073711545363 -0.000214778939894644 -0.000116633451361265 5.4807809264383e-05 -0.000262878488492552 -0.000554511431368272 -0.000455720215941707 -8.63543297662035e-05
"255" 0.000626800498477137 0.000591706707186146 0.000465436845035932 0.00044106839884476 0.000301788721997745 0.000332219929485041 0.000142369766790187 0.000501321888278938 -0.000321398954477643 -0.000188712843339771 -0.00010841323628553 7.2839225661595e-05 -0.000248156956128501 -0.00053767877936492 -0.000442149381576287 -7.23480991260657e-05
"256" 0.000636152179185945 0.000599439675507596 0.000467668773071114 0.000443902195430248 0.000309233226076446 0.000337869881138757 0.000151688283450921 0.000507332799127422 -0.000312192012745828 -0.000162139991271551 -0.000100316635272922 9.10467669695342e-05 -0.000232899703041733 -0.000520888526965643 -0.000428393041947153 -5.78621646354133e-05
"257" 0.000645325245118043 0.000606664733886227 0.000469817411388533 0.000446255380130272 0.000316518863652184 0.000343236837396391 0.000160852978541197 0.000513257134902847 -0.000303153381666406 -0.000135238836558255 -9.23913163807265e-05 0.000109315193681322 -0.000217208649842258 -0.000504198799389938 -0.000414501439412677 -4.2953708182079e-05
"258" 0.000654228412295549 0.000613230796044873 0.00047182151853461 0.000448076401358715 0.000323562618687213 0.000348265275278424 0.000169808479810401 0.000519019627956371 -0.000294323929445596 -0.000108186859227807 -8.46815926855192e-05 0.000127517449454946 -0.000201186713753357 -0.000487656100079288 -0.000400518115829439 -2.76894614723402e-05
"259" 0.000662769792431254 0.000618994512304377 0.000473618417304798 0.000449313827196288 0.000330290869586553 0.000352903922731193 0.000178505721992327 0.000524546571198465 -0.000285742927184423 -8.11620427022709e-05 -7.72335550208316e-05 0.000145534196854227 -0.000184944046116254 -0.000471315940798392 -0.000386493818202884 -1.21355004461079e-05
"260" 0.000670858094671106 0.000623805917652658 0.000475151667748986 0.000449926793808564 0.000336633758623835 0.000357103649317043 0.000186896298816149 0.000529760003279115 -0.000277441753118595 -5.43405139924586e-05 -7.00823598981268e-05 0.000163238256563545 -0.000168589239082264 -0.000455223405435721 -0.000372473050180421 3.6309556413005e-06
"261" 0.000678393143074442 0.000627527485357932 0.000476362127642804 0.00044986192475214 0.000342516477753811 0.000360818808743865 0.000194927809780243 0.000534584400963316 -0.000269458008833106 -2.78992466039772e-05 -6.32704727795837e-05 0.000180506672249126 -0.000152233175569072 -0.0004394263609356 -0.0003585040591115 1.95386193456869e-05
"262" 0.000685293694279337 0.0006300190503051 0.00047719784235111 0.000449085036257395 0.00034787602515571 0.000364008679557339 0.000202562083697247 0.000538941894241032 -0.000261815980679955 -2.00550395905519e-06 -5.68299334966669e-05 0.000197216329197224 -0.000135985186103546 -0.000423961558115363 -0.000344630939574465 3.55075753142457e-05
"263" 0.000691475059731046 0.000631152637419031 0.000477606476178475 0.00044755818765109 0.00035264936803608 0.000366636923671667 0.000209762932750934 0.000542762963537079 -0.000254541732879589 2.31751021848565e-05 -5.07920149237796e-05 0.000213252015369183 -0.000119954765419977 -0.000408872840383642 -0.00033089549580207 5.14585383991002e-05
"264" 0.000696852146946831 0.000630807637495378 0.000477546328784472 0.000445247048980453 0.000356785457046976 0.000368670165041763 0.00021649235193948 0.000545972662164442 -0.00024765964231394 4.74853036381249e-05 -4.51862313411241e-05 0.000228492894975519 -0.000104248785048537 -0.000394194504355796 -0.000317340396012094 6.73080120560767e-05
"265" 0.000701353832802058 0.000628880481434188 0.000476977314469553 0.000442127567767289 0.000360227950959005 0.000370081923212915 0.00022272389665781 0.000548506624752077 -0.000241192286519318 7.07756309842953e-05 -4.00353221941711e-05 0.000242822804132829 -8.89759026465763e-05 -0.000379964451753871 -0.000304009271196147 8.29681637720871e-05
"266" 0.000704914366826074 0.000625269566724784 0.00047587212626507 0.00043817984648315 0.000362940400389822 0.0003708493040972 0.000228436097336087 0.000550298690245079 -0.000235158690100521 9.29071095122829e-05 -3.53613624525824e-05 0.000256130210725444 -7.4241108926786e-05 -0.000366216971894393 -0.000290939085499698 9.83542834452316e-05
"267" 0.000707466224114761 0.000619888920307777 0.000474197357232486 0.000433380880430687 0.0003648774727181 0.000370958505131456 0.000233600904527231 0.000551289382059067 -0.000229565874324574 0.00011375149867998 -3.11815924731116e-05 0.000268316705537064 -6.01359975881129e-05 -0.000352977296474278 -0.000278167718585022 0.000113382574152966
"268" 0.000708959009354195 0.000612671092818647 0.00047193816114448 0.000427728157438578 0.000366015981877187 0.000370399056797306 0.000238213521138815 0.00055142876641754 -0.000224431730885031 0.000133189731556644 -2.75116651941941e-05 0.000279284533685881 -4.67590571830529e-05 -0.000340275051510754 -0.000265729692257694 0.000127968360952053
"269" 0.000709343690875592 0.000603561167992653 0.000469087038069332 0.000421210745761248 0.000366333673770358 0.000369162152907481 0.000242258508968599 0.000550666704139046 -0.000219761449601759 0.000151116353947322 -2.43607311012842e-05 0.000288935892983123 -3.41948574334761e-05 -0.000328138428687829 -0.00025365919751263 0.000142024735978215
"270" 0.000708583220556647 0.000592517014999742 0.000465637162115683 0.000413831454361661 0.000365816083777588 0.000367252765261896 0.000245732309557889 0.000548966953372537 -0.000215556381420262 0.000167444166526645 -2.17383939325094e-05 0.000297192029886667 -2.25294690753837e-05 -0.000316585463447596 -0.000241987593054959 0.000155467758625023
"271" 0.000706645734595589 0.000579520805877488 0.000461594998489318 0.000405599436268638 0.000364455741690649 0.000364675144893854 0.000248637344185301 0.000546292914747762 -0.000211824919920855 0.000182090903772097 -1.96485514347919e-05 0.00030397651959647 -1.18318234024897e-05 -0.000305642345210138 -0.00023074580386423 0.000168217447528737
"272" 0.000703511952894299 0.000564562845517029 0.000456970186365708 0.000396524103756805 0.000362254296017241 0.000361441669013554 0.000250979688645091 0.000542622019253008 -0.000208559400267084 0.000195000088816783 -1.80896463565678e-05 0.000309220955473228 -2.17279335333465e-06 -0.000295319479347287 -0.000219958859541811 0.000180197302909758
"273" 0.000699169647991187 0.000547655186252249 0.000451787061099714 0.000386623351167631 0.000359222428211473 0.000357567391078257 0.000252772715871273 0.000537936654461287 -0.000205752923471487 0.000206120135621306 -1.70621882173724e-05 0.000312869560225978 6.39179126155987e-06 -0.000285637103902224 -0.000209650836824358 0.000191328519904615
"274" 0.000693612667868791 0.000528830113653214 0.000446067701720244 0.000375928172106553 0.000355375954087452 0.000353076734400214 0.000254025782664005 0.000532229434526873 -0.000203399747914079 0.000215421188576052 -1.65569645617527e-05 0.000314882055179911 1.38138805411074e-05 -0.000276603119872763 -0.000199837665595879 0.000201544168205914
"275" 0.000686851665930706 0.000508134055679193 0.000439854259026009 0.000364464752632968 0.000350740133785546 0.000347994432958333 0.000254759538275369 0.000525497353185338 -0.000201486671743295 0.000222885173142587 -1.65703023721069e-05 0.000315206588011222 2.00468955392607e-05 -0.000268234041161393 -0.000190546567433306 0.000210773163225794
"276" 0.000678898204195006 0.000485625881479025 0.00043318104244976 0.000352264507170736 0.00034534701640753 0.000342351428124476 0.000255002380647083 0.000517747756499496 -0.000199998623950395 0.000228513458374934 -1.7088683051635e-05 0.000313834347309769 2.50683965745954e-05 -0.000260526689435432 -0.000181784876610665 0.000218959246536588
"277" 0.000669775702582028 0.00046139058617233 0.00042609559335418 0.000339376208705021 0.000339228598240013 0.000336183788767751 0.000254779797983651 0.000509001588362031 -0.000198913248254269 0.00023232113011053 -1.80973087145891e-05 0.000310741193367583 2.8853603567509e-05 -0.000253491174534528 -0.000173567343100117 0.000226044928679239
"278" 0.000659515163664345 0.000435520612299195 0.000418657516075804 0.000325838907392693 0.000332435772383248 0.00032952952328362 0.000254121194209368 0.000499282997656883 -0.000198208602922577 0.000234335820785896 -1.95775229376132e-05 0.000305930467590063 3.1394461084739e-05 -0.000247125831438116 -0.000165901868736315 0.000231980167090794
"279" 0.000648159793551012 0.000408127565751457 0.000410918181940335 0.000311705784246509 0.000325016853637993 0.00032242928206704 0.000253058509037318 0.000488619726951532 -0.000197862831248506 0.000234602121625376 -2.15106726993198e-05 0.00029940663483282 3.26847500307746e-05 -0.000241427616049355 -0.000158796015902118 0.000236726085288603
"280" 0.000635751816380738 0.000379332142865724 0.00040294143183386 0.000297024616447513 0.000317020031994005 0.000314927730742564 0.000251632182253236 0.000477055814537382 -0.00019784632966388 0.000233179054041763 -2.38750422586537e-05 0.000291195415993788 3.27405445934622e-05 -0.000236390248426198 -0.000152245242697871 0.000240244028653428
"281" 0.000622348576741 0.000349269486085814 0.000394793042156048 0.000281857834573954 0.000308512254078798 0.000307073434545709 0.000249880317007651 0.000464639996830383 -0.000198128418539269 0.000230140035794052 -2.66465039705241e-05 0.000281322762196539 3.15763821611589e-05 -0.000232006603201826 -0.000146256702846239 0.000242507636764579
"282" 0.000608006026952667 0.000318086260092595 0.000386536843289961 0.000266262273227115 0.00029955256810674 0.000298910179422421 0.000247842185006622 0.000451422619095791 -0.000198678482093008 0.000225567785557289 -2.97983020383863e-05 0.000269836055385603 2.92220567599078e-05 -0.000228263575764898 -0.000140822433435711 0.00024349860259089
"283" 0.000592793829331173 0.00028593819377218 0.000378245046168256 0.000250298675880444 0.000290205207005112 0.000290488872070494 0.000245556797644808 0.00043746640803508 -0.000199456731346465 0.00021955866466725 -3.33031069666197e-05 0.000256785621295111 2.57146252006956e-05 -0.000225150777104764 -0.000135934426517155 0.000243203589552327
"284" 0.000576782812245145 0.000252987161289218 0.000369987441546109 0.000234033531448789 0.000280538668540396 0.000281860081163456 0.000243072610646461 0.000422840453767811 -0.000200432201028145 0.000212218700549878 -3.71299113848544e-05 0.000242238847345725 2.11023625199179e-05 -0.000222647824981947 -0.000131582337672315 0.000241615858066913
"285" 0.000560040880043539 0.000219399313877736 0.000361828511854383 0.000217527930200367 0.000270621008663605 0.000273071372114435 0.000240429411765535 0.000407609383090272 -0.000201563543164686 0.00020366438626204 -4.12482225836989e-05 0.000226269939166795 1.54412181259151e-05 -0.000220734722286775 -0.000127752505524019 0.000238747233774451
"286" 0.000542655600380759 0.000185353547596488 0.000353837151095676 0.000200851053709905 0.000260523167271087 0.000264174605432274 0.000237669785942876 0.000391852166001578 -0.000202812498647751 0.000194021062573978 -4.56250987725479e-05 0.000208960632428981 8.79139213662851e-06 -0.000219393185171413 -0.000124427877475855 0.0002346053829914
"287" 0.000524702047826051 0.000151017742793244 0.000346083365469285 0.000184066405696066 0.000250313386850455 0.000255215935156831 0.000234834580385697 0.000375647774793806 -0.000204139883689887 0.00018342302026865 -5.02303618591202e-05 0.000190404092928625 1.22518168604612e-06 -0.000218597127717384 -0.000121590299321613 0.000229208282128135
"288" 0.000506260525548957 0.000116575374333518 0.000338625491756924 0.00016723976623086 0.000240060125538937 0.000246241446708606 0.00023196465518819 0.000359074964749764 -0.00020550648174583 0.000172006863717145 -5.50276610324535e-05 0.000170698863781998 -7.18389084427871e-06 -0.000218319528260618 -0.000119220057172708 0.000222589716767387
"289" 0.000487419033044308 8.21973789350365e-05 0.000331525026039221 0.000150436414965909 0.000229831694377544 0.000237300660184496 0.000229101764773936 0.000342218699053072 -0.000206869539363823 0.00015991524745732 -5.99837056984302e-05 0.00014995836368603 -1.63479329918801e-05 -0.000218533192591735 -0.00011728934419894 0.000214786576455204
"290" 0.000468260260543465 4.80596073141432e-05 0.000324836906010584 0.000133718237572004 0.000219691566036986 0.000228432168440996 0.000226283174193357 0.000325163355794387 -0.000208193358401139 0.000147296801879851 -6.50689015134497e-05 0.000128289376464754 -2.61859738720368e-05 -0.000219209466841903 -0.000115776633707444 0.000205837553427612
"291" 0.000448868163819845 1.43311008864756e-05 0.000318612274950018 0.000117146428746656 0.000209705947001589 0.000219678889186408 0.000223541625023291 0.000307991212364649 -0.000209439230875975 0.000134298818885899 -7.02443469687716e-05 0.000105814656343368 -3.6604790414293e-05 -0.000220317606606202 -0.000114653070557208 0.000195797967838359
"292" 0.000429329010862962 -1.88215171540001e-05 0.000312894145964344 0.000100784061028435 0.000199931648963465 0.000211078006991658 0.000220915304688458 0.000290790537178351 -0.000210569381599873 0.000121074630504603 -7.54778697436041e-05 8.26564383867439e-05 -4.75123698501737e-05 -0.000221826869059821 -0.00011388966926928 0.00018472354872447
"293" 0.000409715355320184 -5.12440656370083e-05 0.000307725629929103 8.46812131429048e-05 0.000190426599149522 0.000202663326718214 0.000218425627711364 0.000273639552284211 -0.000211549301237602 0.000107772210428387 -8.07403599234794e-05 5.89428189301395e-05 -5.88123152548198e-05 -0.000223706039290383 -0.000113457954140372 0.000172676666300452
"294" 0.000390112017734256 -8.27851489518002e-05 0.000303138071508384 6.88909682725346e-05 0.000181236647698203 0.000194468842353253 0.00021610705112376 0.000256622212054263 -0.000212347570724403 9.45401590434895e-05 -8.59955792269381e-05 3.48018752316626e-05 -7.04053392788162e-05 -0.000225916687709268 -0.000113325409413235 0.00015973045713813
"295" 0.000370592872450993 -0.000113302737742208 0.000299155419179287 5.34698161918657e-05 0.000172418534230304 0.000186519073297732 0.000213980524708678 0.000239817524412458 -0.000212935194875208 8.15248280462795e-05 -9.12188515343171e-05 1.0362798420982e-05 -8.21993219574432e-05 -0.000228434169926332 -0.000113460976884865 0.000145953631088884
"296" 0.000351228093030374 -0.000142667969864666 0.000295805191583522 3.84539464426266e-05 0.000164004877741439 0.000178840191627562 0.000212066445121518 0.000223303672898079 -0.000213280206403073 6.88711395170921e-05 -9.63755961638479e-05 -1.42435025728595e-05 -9.40943927820867e-05 -0.000231218202198092 -0.000113833619305872 0.000131430022014067
"297" 0.000332092683388752 -0.000170757037347098 0.0002930927445488 2.38947966153062e-05 0.000156040405348576 0.000171452236240098 0.000210378262956348 0.00020714407135604 -0.000213364031070199 5.67131372048136e-05 -0.000101443178691238 -3.88837455651285e-05 -0.000105995766676529 -0.000234243139220882 -0.000114413698936899 0.000116239832513633
"298" 0.000313240864852344 -0.0001974663687721 0.000291025598365821 9.82099848267913e-06 0.000148547531086399 0.00016436960513379 0.000208928159796079 0.00019141498926306 -0.000213164574315807 4.51832666835877e-05 -0.000106395164448195 -6.3432363949406e-05 -0.000117811365898503 -0.000237471259695375 -0.000115168683830294 0.000100467502401169
"299" 0.000294737818037629 -0.000222694858588702 0.000289607323682369 -3.73020204684173e-06 0.000141561981683981 0.000157607652458129 0.000207725834171683 0.000176174835359038 -0.000212663581545175 3.44067720578654e-05 -0.000111205219799989 -8.77670155170165e-05 -0.000129451189205241 -0.000240872916722471 -0.000116066074743207 8.4202074271118e-05
"300" 0.000276638721546699 -0.000246361572345878 0.000288824620585983 -1.67311532109051e-05 0.000135097362762753 0.000151173944513831 0.000206778651677887 0.000161484463506379 -0.000211853653711516 2.4498045648714e-05 -0.00011585425449657 -0.000111760042396918 -0.000140829634344467 -0.000244420318912543 -0.000117078667082722 6.75349741604229e-05
"301" 0.000258991590702824 -0.00026839215364775 0.000288668687592356 -2.91584925544356e-05 0.000129169569645041 0.000145073572457814 0.000206080640425644 0.000147397579012566 -0.000210722057017783 1.55712224176064e-05 -0.00012032195648599 -0.000135296259565594 -0.000151864697175761 -0.000248081462827661 -0.000118175126742512 5.05557599234327e-05
"302" 0.000241835604864792 -0.000288732819268971 0.000289117143260805 -4.09950823203283e-05 0.000123791278583159 0.000139305966670751 0.000205631989021232 0.000133957002660121 -0.000209267354484705 7.71906453740759e-06 -0.000124593732363932 -0.000158268915142086 -0.000162484076706535 -0.00025182914773531 -0.000119333441281866 3.33543088374495e-05
"303" 0.000225212481988818 -0.000307338955704788 0.000290139689307577 -5.2225923543367e-05 0.000118961764934015 0.000133873040043922 0.000205427283609441 0.000121207709892203 -0.000207487534224826 1.03353133653908e-06 -0.000128654369943923 -0.000180565406589851 -0.000172612173521733 -0.000255636441228762 -0.000120519946741403 1.60239212882026e-05
"304" 0.000209153358660648 -0.000324178893862645 0.000291706682510676 -6.2840959272801e-05 0.000114679832158285 0.000128764188797632 0.00020545258146899 0.000109186084746892 -0.00020538382380032 -4.4062461497081e-06 -0.00013248761155734 -0.000202092613578814 -0.000182189270784827 -0.00025947600641918 -0.000121715670411247 -1.34551596176204e-06
"305" 0.000193690125210008 -0.00033923566923335 0.000293782296305295 -7.28383047696922e-05 0.000110942176765836 0.000123973357208312 0.000205694203639989 9.7920824842669e-05 -0.000202972998628215 -8.53117512434161e-06 -0.000136090727105125 -0.00022276269108802 -0.000191158378216911 -0.000263327951520674 -0.000122895489315977 -1.86692239543277e-05
"306" 0.000178834827202346 -0.000352505592417788 0.000296318644710322 -8.22194768714567e-05 0.000107732275616209 0.000119487440307262 0.000206137496761939 8.74349564671495e-05 -0.000200258144802777 -1.12883582191444e-05 -0.00013945079478043 -0.000242487262385879 -0.00019946569562101 -0.000267163745571013 -0.000124041153008238 -3.58577061702561e-05
"307" 0.000164610404994363 -0.000363998344014696 0.000299274534106856 -9.09865656174579e-05 0.000105033916241448 0.000115292490844471 0.000206758782100999 7.77454986469519e-05 -0.000197262936796347 -1.263083636989e-05 -0.00014256616757291 -0.000261198880975679 -0.000207071200618111 -0.000270967662399883 -0.000125130795235569 -5.28308047057961e-05
"308" 0.000151022832148509 -0.000373730538360201 0.00030260158076108 -9.91479144014607e-05 0.000102828982144771 0.000111371711592413 0.000207537649519099 6.88643015323705e-05 -0.000194006856056355 -1.25254324403798e-05 -0.000145434906914914 -0.00027883471078201 -0.000213939660262614 -0.000274721238068467 -0.000126152661350988 -6.95096724905073e-05
"309" 0.000138080221300387 -0.000381742563956947 0.000306240744385621 -0.000106722632367944 0.00010108968241932 0.000107706992739372 0.000208451123394662 6.0799167754807e-05 -0.000190507955980657 -1.0950886964357e-05 -0.000148055049195934 -0.000295337125714407 -0.000220044953293036 -0.000278403110682429 -0.000127089602194854 -8.5818010040157e-05
"310" 0.000125779327980139 -0.000388075418699472 0.000310136505258068 -0.000113723305643683 9.97917272838753e-05 0.000104275206362656 0.000209468823100813 5.35491452270707e-05 -0.000186797664871098 -7.89944494590454e-06 -0.000150430195639046 -0.000310664883950814 -0.000225360390267843 -0.000281997708128065 -0.000127928634616725 -0.000101681264466211
"311" 0.000114118979838077 -0.000392784559675809 0.000314234782783851 -0.000120172510905437 9.88992543007683e-05 0.000101054201834287 0.000210564979584855 4.71068413081005e-05 -0.000182906682671345 -3.37095012881524e-06 -0.000152566798037773 -0.000324789565937762 -0.000229881332396719 -0.000285493412235262 -0.000128663852590543 -0.000117037584621104
"312" 0.000103085609940404 -0.00039593817020046 0.000318480530963401 -0.000126097029955868 9.83800079589568e-05 9.80213611538033e-05 0.000211708768486793 4.14656549449446e-05 -0.000178862252186153 2.61686975756918e-06 -0.000154469508164667 -0.000337683906270659 -0.000233598185417713 -0.000288873806671504 -0.000129285247989144 -0.000131826390627047
"313" 9.26682311907251e-05 -0.000397609280459626 0.000322806399717967 -0.000131518995223521 9.81965874977609e-05 9.5152312226513e-05 0.000212870862068518 3.66038819618417e-05 -0.000174702906674679 1.00387546420074e-05 -0.000156149064840353 -0.000349337501829867 -0.000236516748317004 -0.000292132619392102 -0.000129790772581724 -0.000145993011341357
"314" 8.28451662510314e-05 -0.000397885227977349 0.000327156945126065 -0.000136475927889623 9.83104657776354e-05 9.24207380482076e-05 0.00021401404783532 3.25043307818294e-05 -0.000170462881895386 1.88562327194019e-05 -0.000157616986969862 -0.000359752842324275 -0.000238647006283523 -0.0002952588159943 -0.000130176258560084 -0.000159487730354519
"315" 7.35991803514145e-05 -0.000396854278095583 0.000331476430917234 -0.000140996580971775 9.86810276452971e-05 8.98024244421623e-05 0.000215116725262175 2.91423865860015e-05 -0.000166182324554951 2.90231467291088e-05 -0.000158883264164135 -0.000368939544656687 -0.000240005279620068 -0.000298243976771497 -0.000130443877294592 -0.000172267778907986
"316" 6.49065174996365e-05 -0.000394614801903784 0.000335705652818455 -0.000145114523369574 9.92713151917771e-05 8.72712267207961e-05 0.000216141144609404 2.64835091270403e-05 -0.000161898626897953 4.04796833097247e-05 -0.000159964401290316 -0.00037691566003299 -0.000240614053020562 -0.000301084856223548 -0.0001305957609052 -0.000184299332780165
"317" 5.67327672880267e-05 -0.000391277057433648 0.000339791303004306 -0.000148868868130376 0.000100037226090201 8.48032549200316e-05 0.000217055261854039 2.45030234103659e-05 -0.000157647995782177 5.31526253543117e-05 -0.000160876147383521 -0.000383708747707641 -0.000240503364946409 -0.000303771665934979 -0.000130632965190409 -0.000195546825162349
"318" 4.90542020654725e-05 -0.000386946870166394 0.000343677433388302 -0.000152298454459861 0.000100937175895949 8.23730100561839e-05 0.000217834440635538 2.31568216218599e-05 -0.000153473131206516 6.6967146618221e-05 -0.000161634940736859 -0.000389363257317728 -0.000239708678417321 -0.000306303284162825 -0.00013056443885977 -0.000205994093254949
"319" 4.18355329348921e-05 -0.000381738426230263 0.00034731930218409 -0.000155437875571651 0.000101927254792647 7.99599823931485e-05 0.000218443055995919 2.24074731243488e-05 -0.000149412473873912 8.18325989190419e-05 -0.000162259171828306 -0.000393924301106926 -0.000238269735124297 -0.000308678342697044 -0.0001303976472322 -0.000215620771672913
"320" 3.50414863560718e-05 -0.000375768629265852 0.000350665467629828 -0.000158329222056998 0.000102974266110888 7.75399679846259e-05 0.000218861398360983 2.22160935528221e-05 -0.000145502172963987 9.76502458581211e-05 -0.000162765494296941 -0.000397446170949027 -0.000236233412654739 -0.00031089401803396 -0.000130140684027844 -0.000224417602320154
"321" 2.86372860370059e-05 -0.000369156642002326 0.000353676836631072 -0.000161011772581897 0.000104033043480345 7.50938403511629e-05 0.000219058664184377 2.25324563713755e-05 -0.000141780803191571 0.000114321244833688 -0.000163176753200299 -0.000399996463473864 -0.000233653022598887 -0.000312955150675116 -0.000129810731264852 -0.000232381651410302
"322" 2.25884996020295e-05 -0.000362020102864264 0.000356315234119512 -0.00016352215259657 0.000105072282718297 7.2599841562258e-05 0.000219012108075322 2.33121623509855e-05 -0.000138285838585187 0.000131729687919856 -0.000163512346613861 -0.000401649618576923 -0.000230578878615616 -0.000314859722872093 -0.000129416363360876 -0.000239517323993164
"323" 1.68566142770833e-05 -0.000354479638250193 0.000358546321528156 -0.000165900904849849 0.000106049239030864 7.0043413926737e-05 0.000218700023688028 2.45070678788943e-05 -0.000135046766799017 0.000149758810961958 -0.000163791737503188 -0.000402475329341221 -0.00022706661278551 -0.000316610513256022 -0.000128972065162509 -0.000245829561809234
"324" 1.1405780868445e-05 -0.000346650898357491 0.000360338836188518 -0.000168181750743612 0.000106935501372923 6.74092304041137e-05 0.000218105635689148 2.60681701809836e-05 -0.000132096858186322 0.000168285498402968 -0.000164033707370092 -0.000402560700069355 -0.000223178033003624 -0.000318212616099132 -0.000128494184566196 -0.00025133627927641
"325" 6.1953829791208e-06 -0.000338649944626578 0.000361671436389744 -0.000170403708153328 0.000107700476392491 6.46847664599994e-05 0.000217207300719256 2.79465430574289e-05 -0.000129467417774308 0.000187181787564198 -0.000164260220648723 -0.000401992006650166 -0.000218973447557604 -0.000319667381716123 -0.000127999483865748 -0.000256056601348675
"326" 1.19127489803875e-06 -0.000330592949815341 0.000362522124834346 -0.000172599138332936 0.000108308481344586 6.18559699614015e-05 0.000215996829735282 3.00892187846837e-05 -0.000127183187393361 0.000206316731638678 -0.00016448877351128 -0.000400855242360424 -0.000214516421902963 -0.00032098079028679 -0.000127503118603523 -0.000260016365129651
"327" -3.63945550206778e-06 -0.000322581413339127 0.00036288004711883 -0.000174798804848308 0.000108746787582766 5.89169249943209e-05 0.000214457169086406 3.24486537901351e-05 -0.000125264101680701 0.000225555078671883 -0.000164742194271569 -0.000399250341758493 -0.000209870758869324 -0.000322160500461701 -0.000127024868605038 -0.000263247441752164
"328" -8.33508010049046e-06 -0.000314720394050856 0.000362733818325179 -0.000177033392642359 0.000108980948098005 5.58600029563624e-05 0.000212577578202957 3.4974011028494e-05 -0.000123733960156754 0.000244761780151484 -0.000165036404995862 -0.000397265767590435 -0.000205099803097314 -0.000323207906326014 -0.000126580053263876 -0.00026578404444735
"329" -1.29284631317267e-05 -0.000307106891952126 0.000362078039686655 -0.000179331206048483 0.000108997713959189 5.26821182906326e-05 0.000210363237006058 3.76151224569732e-05 -0.000122604852816091 0.000263795324903135 -0.000165387003198814 -0.000394994939868513 -0.000200263247504614 -0.000324132584373023 -0.00012618612073815 -0.000267660205372589
"330" -1.74499433245273e-05 -0.000299829579036098 0.000360917820453326 -0.000181711978357649 0.000108784001101511 4.93802134516326e-05 0.000207800407975115 4.03253066422663e-05 -0.000121892620984346 0.000282523401643743 -0.000165813155935525 -0.000392536836463636 -0.000195428956068689 -0.000324939479698672 -0.000125861097275162 -0.000268926105344804
"331" -2.19263380744975e-05 -0.000292967413819937 0.000359257123844143 -0.000184197682763951 0.000108322396852465 4.59543110517101e-05 0.000204894612492452 4.3058066703737e-05 -0.000121603960382049 0.000300805385924743 -0.000166329301771155 -0.000389979089815623 -0.000190652118384391 -0.000325632741947451 -0.000125624742251198 -0.000269621370958764
"332" -2.63871251889136e-05 -0.000286595591371012 0.000357107386115276 -0.000186807042657523 0.000107604261283015 4.24084432499453e-05 0.000201647810165708 4.57669145187117e-05 -0.000121745503931817 0.000318507568309012 -0.000166949216516047 -0.000387411869534132 -0.000185993124272734 -0.000326224309979488 -0.000125489337312591 -0.000269792504305767
"333" -3.08550313049852e-05 -0.000280777944786438 0.000354483955530815 -0.000189555097314128 0.000106625202833331 3.87442282052288e-05 0.000198062184046728 4.84107302532856e-05 -0.000122317133179712 0.000335498515929461 -0.000167683901487706 -0.000384927791190982 -0.000181509556397219 -0.000326713939519424 -0.00012547541309676 -0.000269495854786735
"334" -3.53554410504085e-05 -0.000275566410536278 0.000351404156054504 -0.000192450379186795 0.000105383825362766 3.49699096476625e-05 0.000194152308993898 5.09471989472219e-05 -0.000123313876643181 0.000351646603889609 -0.000168547577704053 -0.000382602783836726 -0.000177249897553226 -0.000327113944082922 -0.000125595665150476 -0.000268775723359412
"335" -3.99069238073575e-05 -0.000271008431727957 0.000347892636250137 -0.00019550104408967 0.000103874984968029 3.10915826937969e-05 0.000189919895893309 5.33396355072834e-05 -0.000124733461521505 0.000366831488438268 -0.000169545773009786 -0.000380511709924136 -0.000173263855962219 -0.000327426340477819 -0.000125861794481053 -0.000267684319177535
"336" -4.45229381445829e-05 -0.000267140043479035 0.00034397226258981 -0.000198714066721636 0.00010210302969022 2.71195682543037e-05 0.000185382023340943 5.55496330944562e-05 -0.00012655974023484 0.00038093003594631 -0.000170688260022869 -0.000378731925831855 -0.000169597991033359 -0.000327657816830195 -0.000126290416975285 -0.000266277661872075
"337" -4.92204699424164e-05 -0.000263977540461362 0.000339677232886687 -0.000202083127565922 0.000100078480439434 2.30631944326138e-05 0.000180552037619582 5.7547914049618e-05 -0.00012878138672786 0.0003938346452354 -0.00017198066805575 -0.000377328272199501 -0.000166291927576811 -0.000327813739573864 -0.000126891711212927 -0.000264605569371996
"338" -5.40097003516288e-05 -0.000261545381197295 0.000335039129976287 -0.000205613380167458 9.78065537797474e-05 1.89364321700142e-05 0.000175447111720847 5.92997345814251e-05 -0.000131381008129837 0.000405433833034789 -0.000173426789398689 -0.000376352288073066 -0.000163381104907801 -0.000327894940277285 -0.00012767539699829 -0.000262719199489531
"339" -5.89011442939195e-05 -0.00025983803680555 0.000330089841416332 -0.00020928954020337 9.52978825372713e-05 1.47484002475086e-05 0.00017008254808782 6.0782980297046e-05 -0.000134336386064399 0.000415635654417723 -0.000175027900705211 -0.000375865520362085 -0.000160897212983229 -0.000327911600140051 -0.000128650635952302 -0.0002606702464962
"340" -6.39001170781869e-05 -0.000258854063269681 0.000324862023016948 -0.000213111353429726 9.25607925404443e-05 1.05157851474527e-05 0.000164479288385004 6.19717519770203e-05 -0.000137620276496485 0.000424345308870085 -0.000176785139216826 -0.000375898464143342 -0.000158864426368498 -0.000327862150536948 -0.000129823348761541 -0.000258506789018007
"341" -6.90092765488012e-05 -0.000258575970318923 0.000319400776572378 -0.000217060393415568 8.96193906285233e-05 6.24959986676131e-06 0.000158656432308157 6.28425147112821e-05 -0.000141209806517047 0.00043148627495297 -0.000178698968089924 -0.000376493135524088 -0.000157307258765312 -0.000327751311980393 -0.000131198958502039 -0.000256275290449451
"342" -7.42289513736442e-05 -0.0002589736009943 0.000313737380937894 -0.000221123928336654 8.64761983549998e-05 1.96427511390202e-06 0.000152640644083555 6.33794090197391e-05 -0.00014507444204226 0.000436988298239617 -0.000180762989748293 -0.000377678637219999 -0.000156240647672756 -0.000327582933930107 -0.0001327842381235 -0.000254022761636897
"343" -7.95587649494101e-05 -0.000260015213172353 0.000307913174704676 -0.000225283016137829 8.31606318047618e-05 -2.32511547898052e-06 0.000146445286490422 6.35701401116293e-05 -0.000149181818859513 0.000440791051332595 -0.000182974169915076 -0.00037946908484796 -0.000155673646904334 -0.000327357231723362 -0.000134576281642979 -0.000251789022017778
"344" -8.49994848203238e-05 -0.000261659995483658 0.000301961591802336 -0.000229520330224901 7.96796975412838e-05 -6.60646040484284e-06 0.000140096790816829 6.33979255507201e-05 -0.00015349621916568 0.000442842048539244 -0.000185326956031966 -0.000381871507193334 -0.000155612422522118 -0.000327073601945587 -0.000136578372968447 -0.000249610268553608
"345" -9.05420579508198e-05 -0.000263854997706048 0.00029592712111025 -0.000233812658207779 7.60576462634512e-05 -1.08651775900884e-05 0.000133618596223106 6.28599395719206e-05 -0.000157982883625425 0.00044310719610554 -0.000187814227181877 -0.000384895841049879 -0.000156059005482796 -0.000326733315345809 -0.000138786995587924 -0.000247528746640831
"346" -9.61806086265332e-05 -0.000266541488869014 0.000289842186765228 -0.000238137917654426 7.23104734625016e-05 -1.50903532074726e-05 0.000127029499818923 6.19466034079478e-05 -0.000162604442584829 0.000441557816123465 -0.000190427457976063 -0.000388529596989511 -0.000157004512072234 -0.000326341101101141 -0.000141198565151363 -0.000245575306840609
