"V1" "V2" "V4" "V5" "V7" "V8" "V10" "V11" "V13" "V14" "V15" "V17" "V18" "V20" "V21" "V23"
"1" -5.03602619393768e-06 -6.05039710723518e-06 -3.75483012462455e-06 -5.68549049095515e-06 -9.28115618906433e-07 -5.09549018682461e-06 3.4416363654867e-07 2.92686321044664e-07 2.25873147467684e-07 -4.87545190301864e-06 -5.59087600710237e-07 1.36862358053642e-06 -2.00518337785131e-06 -7.64559276894756e-07 -3.90007620083339e-07 -3.67790989327044e-06
"2" -1.4101923436452e-06 -3.36708312858708e-06 -9.33312289384032e-07 -4.16534745367921e-06 -2.90950120016052e-06 -1.21262282840733e-05 -6.52555331678036e-06 -1.6830809756779e-06 -1.0596820388814e-05 -1.17884264370857e-05 -7.22750996935649e-06 1.73490074957079e-06 6.39038685674568e-07 -2.4624577638462e-05 -1.4560967221961e-05 2.61030347757935e-08
"3" 2.2012725101904e-06 -6.97145479243852e-07 1.87806602412162e-06 -2.63352955883162e-06 -4.88881927333359e-06 -1.90905514740458e-05 -1.33755926866684e-05 -3.6761622162608e-06 -2.13814907563985e-05 -1.863480525834e-05 -1.38736727901201e-05 2.02203282597488e-06 3.20264640907854e-06 -4.83859492328353e-05 -2.86710958523493e-05 3.656148953393e-06
"4" 5.78805430632187e-06 1.94055830784098e-06 4.66581622794855e-06 -1.0921674760636e-06 -6.85134212565005e-06 -2.59418192827493e-05 -2.01930602108484e-05 -5.70355555854528e-06 -3.20922376821974e-05 -2.53602512779972e-05 -2.04767073768358e-05 2.15511323171038e-06 5.6091180435365e-06 -7.19588121287265e-05 -4.26642145944805e-05 7.15376701110591e-06
"5" 9.34121737148225e-06 4.53668170806122e-06 7.42577341313578e-06 4.66392599649704e-07 -8.78897931728857e-06 -3.26264483997695e-05 -2.69583583901593e-05 -7.77526587020183e-06 -4.26959986691075e-05 -3.19083375140581e-05 -2.70183133191133e-05 2.06686300633376e-06 7.77919599398081e-06 -9.52426296231677e-05 -5.64777472366327e-05 1.04420159896724e-05
"6" 1.28453224554535e-05 7.07576977268706e-06 1.0144827313146e-05 2.04411729658283e-06 -1.06965698805452e-05 -3.91000271263957e-05 -3.36623920053929e-05 -9.90902959198558e-06 -5.31616191779068e-05 -3.82299319145264e-05 -3.34815514697572e-05 1.68653793275282e-06 9.64755930504001e-06 -0.000118162850971763 -7.00684046482848e-05 1.34635915273904e-05
"7" 1.62987309199e-05 9.5494464032885e-06 1.28219841334369e-05 3.64961946251809e-06 -1.25525109813411e-05 -4.53127950057211e-05 -4.02802150684986e-05 -1.21116178666915e-05 -6.34525064880005e-05 -4.42735747095103e-05 -3.9847324009611e-05 9.6024298668253e-07 1.11554342140852e-05 -0.000140625939521757 -8.33746763376656e-05 1.61679799102902e-05
"8" 1.96809640106413e-05 1.19469211797913e-05 1.54409910998303e-05 5.27893450570925e-06 -1.4359948414969e-05 -5.12296490682742e-05 -4.68069314106107e-05 -1.43984462830423e-05 -7.35402474417357e-05 -4.99978561834989e-05 -4.61003367330815e-05 -1.6946007418528e-07 1.22374897243926e-05 -0.000162549666126848 -9.63472504285479e-05 1.8498955784756e-05
"9" 2.29883938336028e-05 1.42564624940846e-05 1.80032779972747e-05 6.93674955930834e-06 -1.61041009744693e-05 -5.68068915594774e-05 -5.32251154402042e-05 -1.67799718524022e-05 -8.33998744071634e-05 -5.53640045200224e-05 -5.22267692928931e-05 -1.74948776123139e-06 1.28522181699913e-05 -0.000183864825112812 -0.000108942422552786 2.04142900514378e-05
"10" 2.6205369103894e-05 1.64682013811653e-05 2.04973432114656e-05 8.6258818461079e-06 -1.77732184952708e-05 -6.20098303780851e-05 -5.9521986346419e-05 -1.92622707291609e-05 -9.30060659907663e-05 -6.0331657491472e-05 -5.82123289153723e-05 -3.82083898816585e-06 1.29481160972477e-05 -0.000204505635957852 -0.000121118132791859 2.18728296591209e-05
"11" 2.9317515109188e-05 1.85707935572231e-05 2.29159670817627e-05 1.03391972500544e-05 -1.93510727521655e-05 -6.68103369692214e-05 -6.56846601408139e-05 -2.18489431721855e-05 -0.000102329840754186 -6.48713467951971e-05 -6.40434096406957e-05 -6.41731766383664e-06 1.24846038134348e-05 -0.000224396633901013 -0.000132828761114602 2.28386317866187e-05
"12" 3.23188764202427e-05 2.05574152688056e-05 2.52508483991041e-05 1.20777458883039e-05 -2.08374072352561e-05 -7.1182430113306e-05 -7.17035078413469e-05 -2.45511383814076e-05 -0.000111353013980611 -6.8958469361898e-05 -6.9711276275345e-05 -9.55101969829164e-06 1.14490806522643e-05 -0.000243493182295551 -0.000144045355849154 2.32959323764879e-05
"13" 3.5186441190662e-05 2.24163864550742e-05 2.74915071143769e-05 1.38346729832367e-05 -2.22223556591941e-05 -7.51041768575623e-05 -7.75735437880086e-05 -2.73714066404132e-05 -0.00012006462590883 -7.25789009614211e-05 -7.52088965753397e-05 -1.3247933407924e-05 9.80675553388383e-06 -0.000261747755011147 -0.000154741431081564 2.32201194618376e-05
"14" 3.7910234379327e-05 2.41428453136806e-05 2.96394795488237e-05 1.56062361252226e-05 -2.34849071475859e-05 -7.85581383899276e-05 -8.32803787455581e-05 -3.03076388343155e-05 -0.000128443410559698 -7.57126341133536e-05 -8.05267711576747e-05 -1.75011986163842e-05 7.55789325215946e-06 -0.000279111651320375 -0.000164880812786467 2.26101833346087e-05
"15" 4.04852347255643e-05 2.57304378379439e-05 3.16839865684334e-05 1.73950647637331e-05 -2.46130351013013e-05 -8.15280990460388e-05 -8.88127397355459e-05 -3.33561150190238e-05 -0.000136476711855431 -7.83488532940312e-05 -8.56571085329995e-05 -2.22991501346222e-05 4.70853196082453e-06 -0.000295558709055633 -0.000174446116796752 2.14652339713363e-05
"16" 4.28851725640146e-05 2.71714077888017e-05 3.36187977994028e-05 1.91851414766661e-05 -2.56015159981752e-05 -8.40140756614745e-05 -9.41694260003179e-05 -3.65155725597455e-05 -0.000144162778254889 -8.04938963097986e-05 -9.05991177570785e-05 -2.76304460683875e-05 1.25702598697909e-06 -0.000311059334511483 -0.000183424079923512 1.97922779666081e-05
"17" 4.510372493193e-05 2.84613801097987e-05 3.54398715995664e-05 2.09691413950896e-05 -2.64423546276739e-05 -8.60087127599815e-05 -9.93440850086545e-05 -3.97846643126669e-05 -0.000151490522200176 -8.21508192247087e-05 -9.53501115075074e-05 -3.34617609731792e-05 -2.76232295646207e-06 -0.000325601836154952 -0.000191801218099884 1.76168575665848e-05
"18" 4.71244841980059e-05 2.95976417443133e-05 3.71409226198579e-05 2.27411067740463e-05 -2.71000081754192e-05 -8.75161341501843e-05 -0.00010432254577803 -4.31459706919322e-05 -0.000158457003059307 -8.33205517041403e-05 -9.99073026634598e-05 -3.97556840118817e-05 -7.33273973659129e-06 -0.00033917290559451 -0.000199564760495928 1.49606823994839e-05
"19" 4.89299895835644e-05 3.05686663865968e-05 3.87143751982319e-05 2.44860011924618e-05 -2.75946829695581e-05 -8.8544841326184e-05 -0.000109111435959498 -4.65984785338204e-05 -0.000165072931544893 -8.40369594885341e-05 -0.000104281295743176 -4.64643870273727e-05 -1.24084196984597e-05 -0.000351779530344013 -0.000206723383143049 1.18585141794923e-05
"20" 5.0514282800069e-05 3.13850747375191e-05 4.01659362864617e-05 2.6200763285111e-05 -2.7882677321614e-05 -8.9102018747776e-05 -0.00011369788999462 -5.01228131432816e-05 -0.000171327858477241 -8.4306460287144e-05 -0.000108460227029829 -5.35209044480454e-05 -1.79325904407983e-05 -0.000363418251479424 -0.000213267207965452 8.36525080166003e-06
"21" 5.18578732931196e-05 3.20352326411683e-05 4.14779996645799e-05 2.78641115007044e-05 -2.79672685226232e-05 -8.92081810819832e-05 -0.000118080946908727 -5.37065295532831e-05 -0.000177234877170483 -8.41607672629375e-05 -0.000112458453737228 -6.08672280955893e-05 -2.38653919139389e-05 -0.000374109340823861 -0.000219210785946209 4.51624158533987e-06
"22" 5.29533477848428e-05 3.2518860149006e-05 4.26568806941787e-05 2.9473252219204e-05 -2.78345311909338e-05 -8.88792394765659e-05 -0.000122256166618332 -5.73337687962194e-05 -0.000182807492754091 -8.3637635369359e-05 -0.000116280418930316 -6.84330943202892e-05 -3.01410740238254e-05 -0.000383878364580739 -0.000224561553097906 3.69346823629989e-07
"23" 5.37808280195332e-05 3.28374260001857e-05 4.36992014360656e-05 3.10088836855685e-05 -2.74714103304031e-05 -8.81425960201438e-05 -0.000126224673970818 -6.09878909439548e-05 -0.000188052896752811 -8.27697155763847e-05 -0.000119930644940764 -7.61319514708178e-05 -3.66832841766399e-05 -0.000392752670106459 -0.000229339110864868 -4.00248718777123e-06
"24" 5.43323720012018e-05 3.29875285056394e-05 4.45934056750417e-05 3.24559343349524e-05 -2.68713194187846e-05 -8.70226226994411e-05 -0.000129982602767955 -6.46507974743076e-05 -0.000192992970949755 -8.16053211368783e-05 -0.000123420790099966 -8.38867278118412e-05 -4.34309280604979e-05 -0.00040077468940771 -0.000233562122707583 -8.5488933036839e-06
"25" 5.45991320054519e-05 3.29767043842576e-05 4.53475173552913e-05 3.38018238278941e-05 -2.60128970214683e-05 -8.55518977716103e-05 -0.000133525182432704 -6.82955746892245e-05 -0.000197635050617427 -8.01838228318347e-05 -0.000126758890821069 -9.16068249006743e-05 -5.0298814851974e-05 -0.000407974233602423 -0.000237248487809407 -1.31867690362667e-05
"26" 5.45643338549529e-05 3.27957395553188e-05 4.59568052490341e-05 3.50303276453078e-05 -2.49021984439993e-05 -8.37656994824866e-05 -0.000136858904850699 -7.19101712608456e-05 -0.000202009590998911 -7.85629240526151e-05 -0.000129957442780657 -9.92014036792964e-05 -5.72115174885385e-05 -0.000414410511648746 -0.000240431089975953 -1.78535103435849e-05
"27" 5.42352747979179e-05 3.2457916008004e-05 4.64253200972867e-05 3.61415460122554e-05 -2.35074249371699e-05 -8.16864480736479e-05 -0.000139967950245897 -7.54595706681166e-05 -0.000206119162817305 -7.67760069121508e-05 -0.000133018909956241 -0.000106572382321537 -6.40816570088114e-05 -0.000420119156358833 -0.000243120022137802 -2.24691466228122e-05
"28" 5.35894777041282e-05 3.19572252337595e-05 4.6743427412072e-05 3.71057072450182e-05 -2.18407806345059e-05 -7.93627069871568e-05 -0.000142864738576424 -7.89318174189249e-05 -0.000210000863840754 -7.48939281772523e-05 -0.000135962608660697 -0.000113638212449541 -7.08397215517952e-05 -0.000425172575620728 -0.000245364666186954 -2.69683928271857e-05
"29" 5.26349390992168e-05 3.13035473101928e-05 4.69241992364014e-05 3.79238252685949e-05 -1.98790630181961e-05 -7.68241308390851e-05 -0.000145534529397225 -8.22937953326465e-05 -0.000213666088165808 -7.29585303361302e-05 -0.000138792756101838 -0.00012029780580898 -7.73887742609597e-05 -0.000429610744372973 -0.000247177887697143 -3.12659353400359e-05
"30" 5.13590955276648e-05 3.0491507117951e-05 4.69572930400294e-05 3.85745906430076e-05 -1.76304139436507e-05 -7.41116964290457e-05 -0.000147984891417955 -8.55312883956039e-05 -0.000217145277222159 -7.10321123681283e-05 -0.000141527449765956 -0.000126473345372293 -8.36661150658507e-05 -0.000433504870826129 -0.000248605701057584 -3.53069843889802e-05
"31" 4.97613958803022e-05 2.95298865321157e-05 4.68503703506635e-05 3.90479156709731e-05 -1.50862232790282e-05 -7.12662998229136e-05 -0.000150209812027851 -8.86150295147004e-05 -0.000220457374097893 -6.91692185583729e-05 -0.000144172709004611 -0.000132070452423565 -8.95850840857775e-05 -0.000436908034360646 -0.000249672304882336 -3.90091547359319e-05
"32" 4.78473783036004e-05 2.84209794180978e-05 4.66056006481857e-05 3.93380871120795e-05 -1.22432262284896e-05 -6.83192221640829e-05 -0.000152206844753822 -9.15240178500969e-05 -0.000223626068830405 -6.74192235100578e-05 -0.000146741774791574 -0.000137016952458483 -9.50818313496463e-05 -0.00043988717099161 -0.000250412147869433 -4.23174504350556e-05
"33" 4.56185286176555e-05 2.71706795866903e-05 4.62236231539947e-05 3.94331575019149e-05 -9.10148826258394e-06 -6.53110273450806e-05 -0.000153974399100207 -9.42375064677334e-05 -0.000226675770820936 -6.58380426259474e-05 -0.000149244184892071 -0.00014123559019028 -0.000100086747230879 -0.000442498801128713 -0.000250857518124192 -4.51684797827702e-05
"34" 4.30803740630363e-05 2.57815685628594e-05 4.57115205798637e-05 3.93309018640619e-05 -5.65958400833079e-06 -6.22738307557123e-05 -0.000155505189541351 -9.67330339974232e-05 -0.000229619870507439 -6.44659184778485e-05 -0.000151683102980386 -0.000144654608094959 -0.000104531526299125 -0.000444798164871498 -0.000251035503816649 -4.75015625981947e-05
"35" 4.0238842912281e-05 2.42608728588409e-05 4.50738816421618e-05 3.90235916847448e-05 -1.9238557984091e-06 -5.92424944397986e-05 -0.000156793625407776 -9.89926245061406e-05 -0.000232485054357031 -6.33587893893069e-05 -0.000154072664567188 -0.000147228860867696 -0.000108375357560711 -0.000446850219942242 -0.000250980290326283 -4.92782709542475e-05
"36" 3.71063908909225e-05 2.26078002131223e-05 4.43176790811923e-05 3.85093800755687e-05 2.10400636415002e-06 -5.62456284247221e-05 -0.000157836137819282 -0.000100993619871258 -0.000235282930612155 -6.2550130068929e-05 -0.000156411891931948 -0.000148894474462348 -0.000111565376898646 -0.000448693587253162 -0.00025071144662275 -5.0453072181108e-05
"37" 3.3693363202904e-05 2.0830119623681e-05 4.34404128112604e-05 3.77822103865959e-05 6.40806420061062e-06 -5.33136616345153e-05 -0.000158632092213531 -0.000102727855551551 -0.000238034982295755 -6.20824829716909e-05 -0.000158713240484675 -0.000149623615599752 -0.000114065603712105 -0.000450390027846301 -0.000250265405889008 -5.09953737666605e-05
"38" 3.00129367838727e-05 1.89292007839954e-05 4.24511525274182e-05 3.68456067266629e-05 1.09843286969101e-05 -5.04692228775919e-05 -0.00015917004118632 -0.000104177354500819 -0.000240756674873062 -6.1987198950406e-05 -0.000160978625800259 -0.000149389691832655 -0.000115860216028827 -0.000451980730761232 -0.000249658310286878 -5.08879564926717e-05
"39" 2.60907738332773e-05 1.69170158516258e-05 4.13624612994936e-05 3.57065626736293e-05 1.58238709137427e-05 -4.77324537909022e-05 -0.000159442937564778 -0.000105330752861582 -0.000243450617842634 -6.22864674046961e-05 -0.000163203561842205 -0.000148165121651732 -0.000116918539561517 -0.000453493118849241 -0.000248900659230344 -5.01037736951809e-05
"40" 2.19370528489426e-05 1.479107106429e-05 4.01742290279529e-05 3.43643608082674e-05 2.089897120696e-05 -4.51218510497462e-05 -0.00015944948988123 -0.000106185998244059 -0.000246136193442886 -6.300647946328e-05 -0.00016539489145357 -0.000145957562377308 -0.000117242386868637 -0.000454980621108682 -0.000248032402494587 -4.86478367588234e-05
"41" 1.75799743638326e-05 1.25606858489492e-05 3.89024484715705e-05 3.2831035168955e-05 2.62166439242082e-05 -4.26482180308023e-05 -0.000159171209967082 -0.000106723527020519 -0.000248805535030828 -6.41487208206272e-05 -0.000167541959151244 -0.000142767829441842 -0.000116831079022551 -0.000456449690014319 -0.000247038934044264 -4.65148151386795e-05
"42" 1.30384309648761e-05 1.02292152562031e-05 3.75431182764187e-05 3.11120388319943e-05 3.17262019377034e-05 -4.03212301371573e-05 -0.000158612758679809 -0.00010695897486327 -0.000251474669962647 -6.57362996169172e-05 -0.000169651456305374 -0.00013862562545109 -0.000115708801687776 -0.000457940022169189 -0.000245954945965959 -4.37336015572459e-05
"43" 8.34547666026279e-06 7.79845935513914e-06 3.61141687510405e-05 2.92254425199944e-05 3.74267058062588e-05 -3.81454087843719e-05 -0.000157757748181027 -0.000106879742569162 -0.000254129350131129 -6.77506022868447e-05 -0.000171704639522295 -0.000133553846171699 -0.000113896277575358 -0.000459447709091858 -0.000244768581488219 -4.03174900695688e-05
"44" 3.52544541125416e-06 5.2788913020657e-06 3.46214908377559e-05 2.71821849917176e-05 4.32943774521487e-05 -3.61202789160396e-05 -0.000156599376387168 -0.000106493507719897 -0.000256772358565552 -7.01899431566579e-05 -0.000173699882406732 -0.000127615666309447 -0.000111439913839623 -0.000460984638157243 -0.000243487700159215 -3.63106378769681e-05
"45" -1.39673036003572e-06 2.66796932309543e-06 3.30715192899788e-05 2.4996764058589e-05 4.92891850388252e-05 -3.42405228037062e-05 -0.000155132398814851 -0.000105810499935137 -0.000259393817623082 -7.30411258488009e-05 -0.00017562414788297 -0.000120866789205286 -0.000108395007270873 -0.000462549800354769 -0.00024210845269985 -3.17639578294355e-05
"46" -6.38180877756604e-06 -2.49621420121436e-08 3.14781225140774e-05 2.26935855463664e-05 5.53977088863944e-05 -3.24962493903318e-05 -0.00015334556663549 -0.000104833894411395 -0.000261977694045737 -7.62700247483849e-05 -0.000177465020389692 -0.000113381512946378 -0.000104813479651832 -0.000464130046461359 -0.000240625565282757 -2.67234242439759e-05
"47" -1.1405289744056e-05 -2.79919621729466e-06 2.98416780143218e-05 2.02813408121332e-05 6.15793816217947e-05 -3.08816525180076e-05 -0.000151234916152594 -0.000103584572837907 -0.000264516386747236 -7.98570361746275e-05 -0.000179211248147445 -0.000105259598918097 -0.000100788099984993 -0.000465713179059883 -0.000239035233764465 -2.12716148805674e-05
"48" -1.64247671352565e-05 -5.64045053296563e-06 2.81863750222898e-05 1.78031703761307e-05 6.78100424292721e-05 -2.93646998428394e-05 -0.000148785416382083 -0.000102073500569936 -0.000266979864381241 -8.37449337580601e-05 -0.000180836742333662 -9.65874418203999e-05 -9.63885761955507e-05 -0.000467262333032505 -0.000237311133632302 -1.54756178666349e-05
"49" -2.14129052856675e-05 -8.55493524211445e-06 2.65042033077047e-05 1.52638418498251e-05 7.40468152487085e-05 -2.79367896025046e-05 -0.000145998461033454 -0.000100325951986623 -0.00026935728065915 -8.79013348263683e-05 -0.000182331527431382 -8.74995087008401e-05 -9.17285789299917e-05 -0.000468761595991476 -0.000235451673679007 -9.4378716666263e-06
"50" -2.63304358696819e-05 -1.15327305108635e-05 2.48197966971099e-05 1.27058125959423e-05 8.02632148640273e-05 -2.65653564857897e-05 -0.000142862952478085 -9.83601709721334e-05 -0.000271611693615971 -9.22613614844237e-05 -0.000183669068120398 -7.81092908232257e-05 -8.69104603243089e-05 -0.000470156058874846 -0.00023342359308367 -3.24635451521998e-06
"51" -3.114341851098e-05 -1.45678868385232e-05 2.31355637205909e-05 1.01492427075831e-05 8.64250111836276e-05 -2.52246846139185e-05 -0.000139375954701778 -9.62026154862077e-05 -0.000273717119324624 -9.67629333725548e-05 -0.000184829917464853 -6.85574695346592e-05 -8.20471378352277e-05 -0.000471402181186659 -0.000231205848607169 2.99129553204993e-06
"52" -3.58202935373937e-05 -1.76561967876708e-05 2.14581073410181e-05 7.61942233875769e-06 9.24787035162281e-05 -2.38863414781473e-05 -0.000135537166642083 -9.38903739769823e-05 -0.000275646953540021 -0.000101348062082759 -0.000185793788617186 -5.89988509743048e-05 -7.72754167654174e-05 -0.000472459233414815 -0.000228785833351314 9.15203945850739e-06
"53" -4.03224933977827e-05 -2.07947197379083e-05 1.9797470403581e-05 5.15385459480169e-06 9.84054480695362e-05 -2.25126232885562e-05 -0.000131337490117586 -9.14437895170927e-05 -0.000277356744722526 -0.000105932324672422 -0.000186531955583657 -4.95846035752696e-05 -7.27259115459481e-05 -0.000473252225049679 -0.000226117290949673 1.51171220360853e-05
"54" -4.4620042000843e-05 -2.3975714390175e-05 1.81666224721466e-05 2.77905291852625e-06 0.00010415730179135 -2.10714677472329e-05 -0.000126779454954012 -8.89020953601283e-05 -0.000278815966760497 -0.000110441510282123 -0.000187021811674998 -4.04845786682788e-05 -6.85411670709295e-05 -0.000473725429021264 -0.000223179910823006 2.07610287715417e-05
"55" -4.86759618912602e-05 -2.71897340447123e-05 1.65744025310079e-05 5.26532395972749e-07 0.000109702251019201 -1.95244533534053e-05 -0.000121861308910379 -8.62971327051473e-05 -0.000279980460149654 -0.000114789097552221 -0.000187233722875708 -3.1867654740711e-05 -6.48633153218793e-05 -0.000473808450244048 -0.000219936999195481 2.59485638380706e-05
"56" -5.2460861447364e-05 -3.04405294441643e-05 1.50185855230264e-05 -1.57062052881164e-06 0.000114991564915867 -1.78324920481524e-05 -0.000116588689014609 -8.36712383690476e-05 -0.000280819947312892 -0.000118892930962967 -0.00018714926579345 -2.39132134981623e-05 -6.18560640637981e-05 -0.000473442583178649 -0.000216369335455516 3.0535461411384e-05
"57" -5.59393453388371e-05 -3.37066317188934e-05 1.35248192187072e-05 -3.47636911089186e-06 0.000120004587727436 -1.59569848208236e-05 -0.000110960871838445 -8.10538005659953e-05 -0.000281272687182485 -0.000122652438694276 -0.000186729855530182 -1.67914147334566e-05 -5.96504122878531e-05 -0.00047252778256816 -0.000212424261906911 3.43957192554761e-05
"58" -5.9094306862228e-05 -3.69953967882738e-05 1.20833675197703e-05 -5.17085541403998e-06 0.000124678635492615 -1.38664429497092e-05 -0.000104992759070296 -7.84980241370646e-05 -0.000281318662762339 -0.000125990700698861 -0.000185961757177784 -1.06869680955492e-05 -5.84087160638736e-05 -0.000471013530206263 -0.00020808990445089 3.73895329189857e-05
"59" -6.1890097585854e-05 -4.02897543707861e-05 1.07125961391225e-05 -6.61262705418541e-06 0.000128999512383543 -1.15161407415181e-05 -9.86846224674041e-05 -7.60316962697074e-05 -0.000280900696382391 -0.000128800613980698 -0.000184815146674717 -5.77592360935908e-06 -5.82786026814379e-05 -0.000468814114835809 -0.00020332688339982 3.93753252353421e-05
"60" -6.43113347435473e-05 -4.35909368571063e-05 9.41185257367257e-06 -7.78046681715257e-06 0.000132924425012297 -8.87245353366516e-06 -9.20516383035114e-05 -7.37034462502141e-05 -0.000279980542759129 -0.000130995829812736 -0.000183266374962504 -2.23389454907255e-06 -5.94121332229027e-05 -0.000465852390771212 -0.000198098215903008 4.02180047703856e-05
"61" -6.6329826436082e-05 -4.68815486213991e-05 8.18891954468083e-06 -8.6395611999966e-06 0.000136420119766746 -5.90223856865044e-06 -8.51075480704516e-05 -7.15470921324927e-05 -0.000278516504599259 -0.0001324809982021 -0.000181290632182993 -2.25254836849068e-07 -6.19394877436067e-05 -0.000462055721576765 -0.000192383025282694 3.97935610206881e-05
"62" -6.79289265605356e-05 -5.01581962355555e-05 7.05410362106601e-06 -9.16405494046696e-06 0.000139455575333759 -2.56967549442068e-06 -7.78655600209115e-05 -6.96087698039494e-05 -0.000276467350581665 -0.000133166176712231 -0.000178869474616105 9.04916283057197e-08 -6.59941846287126e-05 -0.000457348900011884 -0.000186156054700046 3.79816099555623e-05
"63" -6.90966167127609e-05 -5.34112435603702e-05 6.00675673265579e-06 -9.32902747417217e-06 0.000142004037530788 1.15313569038902e-06 -7.03429229253929e-05 -6.79222311676197e-05 -0.000273795024086055 -0.000132962692174646 -0.000175982502244505 -1.43668571738952e-06 -7.17035394566915e-05 -0.00045167075238164 -0.000179389743610432 3.46639941436085e-05
"64" -6.98218026223688e-05 -5.66319624296671e-05 5.04950325060857e-06 -9.11475979917888e-06 0.000144033179527821 5.29197656695654e-06 -6.25659869071118e-05 -6.65312704429437e-05 -0.000270465659524351 -0.000131788368794531 -0.000172614063032413 -4.94546113801488e-06 -7.91762622730329e-05 -0.000444948690099981 -0.000172068201206455 2.97404357416742e-05
"65" -7.00982942266879e-05 -5.98144133906969e-05 4.18716759285608e-06 -8.50199030137423e-06 0.000145522169509431 9.86687651495898e-06 -5.45555551435684e-05 -6.54664900826462e-05 -0.000266447549935277 -0.000129563399427511 -0.000168752411091343 -1.05557135670164e-05 -8.8506595569065e-05 -0.000437133489227219 -0.000164178876573974 2.31218183380851e-05
"66" -6.99215067536527e-05 -6.29446881473956e-05 3.42127354234984e-06 -7.46908089204732e-06 0.000146446148187155 1.49022949449478e-05 -4.6338881186408e-05 -6.47639635126029e-05 -0.000261710986375492 -0.000126215468946356 -0.000164383804159653 -1.83685816218029e-05 -9.97721138642406e-05 -0.000428165797952052 -0.000155707318129148 1.47347327321563e-05
"67" -6.92826229893694e-05 -6.60161166508172e-05 2.76165899158635e-06 -5.99602059238242e-06 0.000146793192396617 2.0412282360308e-05 -3.79394794542876e-05 -6.44555742817545e-05 -0.00025622840577739 -0.000121673655058576 -0.000159501794658215 -2.84736654985537e-05 -0.000113041675559083 -0.000418004594701716 -0.000146652967382018 4.51638829567232e-06
"68" -6.8195569682297e-05 -6.90132305098967e-05 2.20007038746353e-06 -4.0798386844704e-06 0.000146543150360473 2.64040918274282e-05 -2.93912778561614e-05 -6.45698038013155e-05 -0.000249980043668498 -0.000115880895371265 -0.000154101739280839 -4.09285572221277e-05 -0.000128341575232415 -0.00040661126727554 -0.000137006302944685 -7.56391514751155e-06
"69" -6.6657172801896e-05 -7.19292239376899e-05 1.7451434820128e-06 -1.69913750291506e-06 0.000145692955816912 3.28895909595768e-05 -2.07275138425651e-05 -6.51292377183567e-05 -0.000242953928472259 -0.000108783595431867 -0.00014818239036484 -5.57783248273269e-05 -0.000145708627656498 -0.000393961124504488 -0.000126780606437126 -2.15408677305898e-05
"70" -6.46854159367555e-05 -7.47535141850037e-05 1.39114389365859e-06 1.14402750038872e-06 0.000144225009532053 3.98635645495067e-05 -1.19821614070626e-05 -6.61597941939782e-05 -0.000235136318789881 -0.000100344286079311 -0.000141749782938068 -7.30471206795344e-05 -0.000165139450154055 -0.000380038916257053 -0.000115984476801637 -3.74135479138716e-05
"71" -6.22968219599537e-05 -7.7479661416684e-05 1.13448545662326e-06 4.45010178834197e-06 0.000142134912648293 4.73208757079451e-05 -3.19539058235292e-06 -6.76812519223561e-05 -0.0002265286787332 -9.05291374233587e-05 -0.000134814223146069 -9.27286568449712e-05 -0.000186619043649238 -0.000364835868131939 -0.000104641519402836 -5.51707505929539e-05
"72" -5.95021116159255e-05 -8.00935416949893e-05 9.81671263451589e-07 8.22441503503678e-06 0.000139429947583242 5.52577731443024e-05 5.59965938390356e-06 -6.97017531505383e-05 -0.000217128983995153 -7.93168665670727e-05 -0.00012738351101825 -0.000114794639740446 -0.000210099468976534 -0.000348357155573458 -9.27684566341941e-05 -7.47713288560824e-05
"73" -5.63257585046834e-05 -8.25827166444731e-05 9.27659059368676e-07 1.24622660202117e-05 0.000136115061002565 6.36568995108496e-05 1.4358497227244e-05 -7.22350546191409e-05 -0.000206943129454021 -6.66959586660369e-05 -0.000119476736374403 -0.000139188925615286 -0.000235513419068469 -0.00033061511528408 -8.03966256373869e-05 -9.61619232457529e-05
"74" -5.27951581382368e-05 -8.49436893150154e-05 9.66777595465177e-07 1.71524741972247e-05 0.00013218943460404 7.2497928617897e-05 2.3045122902708e-05 -7.5285563439824e-05 -0.000195991294332688 -5.26696028217807e-05 -0.000111114861918633 -0.000165839765189653 -0.000262781473948423 -0.000311639061902068 -6.75594568461624e-05 -0.000119268775908419
"75" -4.89326093701332e-05 -8.71588518600859e-05 1.10277127928745e-06 2.22912757982172e-05 0.000127670210582773 8.17584940661626e-05 3.16127364084967e-05 -7.88541838534971e-05 -0.000184295013293629 -3.72496773886019e-05 -0.000102323075058103 -0.000194645317028211 -0.000291789537820546 -0.000291474035286137 -5.43078915028904e-05 -0.000143992247149293
"76" -4.47735124911589e-05 -8.92235185880145e-05 1.32912115335e-06 2.78597959084697e-05 0.000122573666100183 9.14100382312389e-05 4.00221138553615e-05 -8.29380631987845e-05 -0.000171875515691726 -2.04590719140483e-05 -9.31323837165753e-05 -0.000225485390992396 -0.000322414932613708 -0.000270156568183451 -4.06789170151045e-05 -0.000170223905564834
"77" -4.03484024065728e-05 -9.11312276793989e-05 1.63857034619332e-06 3.38416067267942e-05 0.000116919634711647 0.000101415868264654 4.82301850968219e-05 -8.75252912888026e-05 -0.000158770522058496 -2.33659530457734e-06 -8.35734954490016e-05 -0.000258216043820902 -0.000354505838085776 -0.00024775258647572 -2.67282359032886e-05 -0.000197830422447115
"78" -3.56945155055582e-05 -9.28676804637502e-05 2.03131497452944e-06 4.0217567484346e-05 0.000110727415557844 0.000111739274678644 5.61893762690047e-05 -9.2607656408919e-05 -0.000145027060998065 1.70638545406791e-05 -7.36897496887357e-05 -0.000292679797134726 -0.000387903362855773 -0.000224344918680033 -1.25196978316322e-05 -0.000226666276842296
"79" -3.08517588349957e-05 -9.44316258032242e-05 2.5012668525518e-06 4.69593672433459e-05 0.000104029983026353 0.000122337658110669 6.38654240588121e-05 -9.81623140200488e-05 -0.000130684727111319 3.76871156624493e-05 -6.35208468530048e-05 -0.000328699270705843 -0.000422431799179827 -0.000200008523516798 1.88957115511255e-06 -0.000256575330614233
"80" -2.58530264091733e-05 -9.58132345545027e-05 3.0407243641231e-06 5.40486076254424e-05 9.68536605140031e-05 0.000133168360758069 7.12108249139932e-05 -0.000104167514918228 -0.000115800627404891 5.94568579245498e-05 -5.31110378344372e-05 -0.000366083066669031 -0.000457901048083332 -0.000174836729314302 1.64295537386208e-05 -0.000287392320682691
"81" -2.07475500012553e-05 -9.70070694097189e-05 3.64630703286304e-06 6.14472530422361e-05 8.922763498053e-05 0.000144176425120368 7.81861837915253e-05 -0.000110599607127145 -0.000100435102441189 8.2284851079973e-05 -4.25131607871243e-05 -0.000404627782687284 -0.000494109463185295 -0.000148933656514398 3.10318524635784e-05 -0.000318928646063582
"82" -1.55701689290816e-05 -9.80049409350403e-05 4.31473230562137e-06 6.91289543794836e-05 8.11973919801499e-05 0.000155315912242103 8.47565576253156e-05 -0.000117420451240218 -8.46487876502227e-05 0.000106082376149203 -3.17761470350191e-05 -0.000444116037840119 -0.000530840060216327 -0.000122409363773531 4.562549135681e-05 -0.000350993086444846
"83" -1.0364670181634e-05 -9.88074816371151e-05 5.04066337188068e-06 7.70606485353198e-05 7.27958782863013e-05 0.000166530831637747 9.08787800944324e-05 -0.000124600287400752 -6.85164842650777e-05 0.000130734911247682 -2.09561294528495e-05 -0.000484329718077768 -0.000567881408881767 -9.53846537414362e-05 6.01298304764096e-05 -0.000383397207428048
"84" -5.16859287838666e-06 -9.94055904678804e-05 5.81784879231702e-06 8.52093653396064e-05 6.40748760201402e-05 0.000177768344360346 9.65253872676734e-05 -0.000132094745311514 -5.21042548497024e-05 0.000156139639131996 -1.01067148092559e-05 -0.000525043205065299 -0.000605015364830999 -6.7979045357081e-05 7.44762460336918e-05 -0.000415943162506431
"85" -2.82168895926528e-08 -9.97977957830497e-05 6.64025194660385e-06 9.35371088398098e-05 5.50655553521995e-05 0.000188969632095593 0.000101659398082055 -0.000139864035856733 -3.54958413653678e-05 0.000182162208397506 7.11877712275853e-07 -0.000566030391989607 -0.000642019128248958 -4.0335100857557e-05 8.85826753468849e-05 -0.000448429348783011
"86" 5.01445636978937e-06 -9.99886307411338e-05 7.50057339428165e-06 0.000102002134803387 4.58159043477902e-05 0.000200078171879995 0.000106252462284335 -0.00014786442608199 -1.87722251096673e-05 0.00020867169750416 1.14367821400851e-05 -0.000607069143319374 -0.000678683199863401 -1.25750015546313e-05 0.000102373565802683 -0.000480671891068603
"87" 9.92579730778901e-06 -9.99704391179219e-05 8.3992110000612e-06 0.000110572051055758 3.63743732770152e-05 0.000211038333424437 0.000110279952539239 -0.000156040604173379 -2.01352196420791e-06 0.000235531361582454 2.20131474165046e-05 -0.000647929916258055 -0.000714780361161862 1.51523944751182e-05 0.000115773382455795 -0.000512463654628985
"88" 1.46699719365013e-05 -9.97420043020206e-05 9.33224554374316e-06 0.000119212093990995 2.67975325301134e-05 0.000221796552314051 0.000113723781581981 -0.000164342571388588 1.46969935717262e-05 0.000262604948622707 3.23823195978542e-05 -0.000688396296250761 -0.000750101480004657 4.27185854789717e-05 0.000128717890827797 -0.00054361745950764
"89" 1.91990977531389e-05 -9.93172446052836e-05 1.02847394088939e-05 0.000127870584465765 1.71154684607268e-05 0.000232292263605422 0.000116553551224105 -0.000172722833527136 3.12655967237749e-05 0.000289731236811018 4.24740308424258e-05 -0.000728267850285218 -0.000784456386643136 6.9973639895327e-05 0.000141116753770344 -0.000573960674437907
"90" 2.3491737554488e-05 -9.86871574371414e-05 1.12614667909193e-05 0.00013651825743452 7.39015019958114e-06 0.000242475265900599 0.000118765132020351 -0.000181122829428146 4.760876037942e-05 0.000316769442084575 5.2239690305902e-05 -0.000767333682188366 -0.000817639559017238 9.67816847000768e-05 0.000152919346730256 -0.000603309789045672
"91" 2.75162526599798e-05 -9.78604793095732e-05 1.22517226439061e-05 0.000145117492285617 -2.33309492936339e-06 0.00025229695450911 0.000120346535466025 -0.000189487800914399 6.36447281652566e-05 0.000343565522581115 6.16157632511022e-05 -0.000805412862330675 -0.000849480942114362 0.000123005505567764 0.000164054669675226 -0.000631510549528847
"92" 3.12368465446523e-05 -9.68466778616744e-05 1.3251046194058e-05 0.000153625186059668 -1.20224033591668e-05 0.000261708131262841 0.000121283655021559 -0.000197770904467805 7.92740372862779e-05 0.000369961452829416 7.05457882622212e-05 -0.000842326941194372 -0.000879805615152009 0.000148503683092501 0.000174457892547561 -0.000658408309858494
"93" 3.46370888437766e-05 -9.56451622753654e-05 1.42572607375291e-05 0.00016200999360524 -2.16158336195391e-05 0.000270664509937588 0.000121579062523958 -0.000205906364519699 9.44218010679445e-05 0.000395810910604594 7.89774586387682e-05 -0.00087791931274121 -0.000908466682008166 0.00017314983248672 0.000184077519556569 -0.000683868626648445
"94" 3.76980536527516e-05 -9.42687452418223e-05 1.52689255402622e-05 0.000170241783635491 -3.10742379251943e-05 0.000279131468141335 0.000121241521099569 -0.000213845048901207 0.00010900686509877 0.000420976060583621 8.68646473532935e-05 -0.000912038778363912 -0.000935322500444572 0.000196825998806617 0.000192872167416554 -0.000707765435875743
"95" 4.03984475910591e-05 -9.27197284591216e-05 1.62758485300467e-05 0.000178282347752145 -4.03570650260997e-05 0.000287068637535314 0.000120267207864164 -0.000221534265698396 0.000122948175899075 0.000445301522767631 9.41528497612263e-05 -0.000944553755240022 -0.000960244750590683 0.000219416241956071 0.000200795541843793 -0.000729980194996611
"96" 4.27275358689333e-05 -9.1014985470448e-05 1.72818415222833e-05 0.000186105722890737 -4.94279866417275e-05 0.000294448745371867 0.000118674213666727 -0.000228923445856033 0.000136170935808483 0.000468656445544068 0.000100805201369025 -0.000975351450061638 -0.000983122452266865 0.000240797358200388 0.000207808236270185 -0.000750418236450116
"97" 4.46748569730294e-05 -8.91582896038557e-05 1.82762998494022e-05 0.00019367956492234 -5.82518553771569e-05 0.000301242401404687 0.000116468822831942 -0.000235967396098594 0.000148595754440257 0.000490903215112549 0.000106772419748375 -0.00100433972824748 -0.00100387435321727 0.000260873646798579 0.000213875218517219 -0.00076899661084065
"98" 4.62370598509963e-05 -8.71678261819188e-05 1.92597275241668e-05 0.000200981993817737 -6.67897756846772e-05 0.000307435171664742 0.000113679154318218 -0.000242616178698587 0.000160168765919836 0.000511930143048495 0.000112027461332707 -0.00103143266995005 -0.00102241933472147 0.000279556340603752 0.000218983595295345 -0.000785651189636001
"99" 4.74163946837128e-05 -8.5050382340477e-05 2.02291650381685e-05 0.000207992085866356 -7.50167217345386e-05 0.000313010292741272 0.000110324520863567 -0.000248829190264762 0.000170819464573331 0.000531622676975036 0.00011653900345113 -0.00105656908580624 -0.00103870366213803 0.000296763373778159 0.000223114716136836 -0.000800325887549359
"100" 4.8211924960849e-05 -8.28205332491711e-05 2.11762381913393e-05 0.00021468735075593 -8.29066779891614e-05 0.000317959501376751 0.000106427906861298 -0.000254569086075564 0.000180495673430121 0.0005498720739493 0.000120279579662392 -0.00107970488471762 -0.00105268267935669 0.000312421977640458 0.000226254896819219 -0.000812983358413463
"101" 4.86384069030174e-05 -8.04897012242645e-05 2.21048888951998e-05 0.000221057553978907 -9.04402041615043e-05 0.000322284075711188 0.000102022847694294 -0.000259799907711863 0.000189146959616762 0.000566600757462974 0.000123232899192261 -0.00110080464527699 -0.00106433115856264 0.000326469774540117 0.000228407412339551 -0.000823597463537013
"102" 4.87007989952636e-05 -7.80774708622846e-05 2.30066553754027e-05 0.000227079153763531 -9.75952871859153e-05 0.00032598082232018 9.7138984933475e-05 -0.00026449340837698 0.000196730814466859 0.000581719216946881 0.000125378266780022 -0.00111986309174442 -0.00107364948041939 0.000338859913220822 0.000229572603555567 -0.000832160543831568
"103" 4.84183721521442e-05 -7.55918977886672e-05 2.38780335428281e-05 0.000232747332478371 -0.00010436398413885 0.00032906186802474 9.18140182027114e-05 -0.000268627755247348 0.000203207553442003 0.000595168921907803 0.000126712297699014 -0.00113687780056633 -0.00108063741974347 0.000349558039569194 0.000229763962805847 -0.000838677656788099
"104" 4.78128371680965e-05 -7.30503968605098e-05 2.47255139397278e-05 0.000238059269153076 -0.000110732531790569 0.000331543718438963 8.60895744744498e-05 -0.00027217293758946 0.000208557393726777 0.000606902442665997 0.000127230976729998 -0.00115186198431568 -0.00108531753434712 0.000358541027922628 0.000229007463855472 -0.00084316572183374
"105" 4.69040362695524e-05 -7.04643794879741e-05 2.55319029870957e-05 0.000243005808524903 -0.000116699991660945 0.00033344352661594 7.99956184402065e-05 -0.00027512526533919 0.000212746029625376 0.000616878227203733 0.000126932705700247 -0.00116485421456566 -0.00108773365830011 0.000365791837573917 0.000227315776856186 -0.00084565643114997
"106" 4.57139928633005e-05 -6.78530651838116e-05 2.63039991974704e-05 0.000247583513319813 -0.000122274151781567 0.000334782919404577 7.3577151809091e-05 -0.000277470583508421 0.000215763634754456 0.000625068664549651 0.000125828055913757 -0.00117589565975049 -0.00108793398060145 0.000371309910080392 0.000224723364927126 -0.000846190632961122
"107" 4.4278697554258e-05 -6.5231296159738e-05 2.70313301337647e-05 0.000251796488454656 -0.000127444018863518 0.00033559540677865 6.68805040542895e-05 -0.000279204644572515 0.000217607363189079 0.000631478129262966 0.00012393083729377 -0.00118504562173933 -0.00108598916053523 0.000375111275217698 0.000221271182982018 -0.000844828155576584
"108" 4.2632392274982e-05 -6.26046394616373e-05 2.77230102013404e-05 0.000255654376377685 -0.000132220354828695 0.000335914959654789 5.99492818686883e-05 -0.000280322282300801 0.000218277759389565 0.000636114334157598 0.000121265475493999 -0.00119236656896976 -0.00108196928765874 0.000377224245283751 0.000217004413217109 -0.000841627787631518
"109" 4.07993876351808e-05 -5.99958747828703e-05 2.8364932959841e-05 0.000259157065436292 -0.000136625615936283 0.000335776432986292 5.28192497144971e-05 -0.000280840642315244 0.000217775570556626 0.000638983590244287 0.000117849986811239 -0.00119794619882587 -0.00107597864356601 0.000377668736862446 0.000211959491827713 -0.000836678531044985
"110" 3.88202196946378e-05 -5.74185910050119e-05 2.89561935515718e-05 0.000262313484698167 -0.000140674095465013 0.000335217289944067 4.55391030523506e-05 -0.000280766557199403 0.00021612186099056 0.000640129269618215 0.000113714976662397 -0.00120186758206567 -0.00106811093744549 0.000376505783880172 0.000206193540147438 -0.00083005457677445
"111" 3.67304622561635e-05 -5.48838468507548e-05 2.94912330201737e-05 0.000265138932107948 -0.000144375067177199 0.000334284822266026 3.81578080638816e-05 -0.000280112287495497 0.000213341516039314 0.000639604263625748 0.000108902454677532 -0.00120423302617895 -0.00105849398312123 0.000373792260593652 0.000199770813463714 -0.000821867165341856
"112" 3.4572956676161e-05 -5.23994235957412e-05 2.99750154395343e-05 0.000267645838381021 -0.000147758480042276 0.000333022464036119 3.07110326648886e-05 -0.000278902839815728 0.000209457740352945 0.000637463609471791 0.00010344558343552 -0.00120514680037292 -0.00104723596251172 0.00036958411730213 0.00019273813724478 -0.000812207835798287
"113" 3.23848527238848e-05 -4.99813956425904e-05 3.04002562676995e-05 0.000269851726865919 -0.000150846950389279 0.000331478709983707 2.32468126281057e-05 -0.000277165139599533 0.00020451572794445 0.000633785159637151 9.73936886739898e-05 -0.00120471759823941 -0.00103447456149743 0.000363969640659246 0.00018516716769222 -0.000801196798362682
"114" 3.02046715269237e-05 -4.76424022999482e-05 3.07668130106781e-05 0.000271770578359378 -0.000153665829352399 0.000329699686394658 1.58023985045549e-05 -0.000274921007399432 0.000198557198144807 0.000628652375156969 9.07947956204476e-05 -0.00120306439780672 -0.00102035651871715 0.000357031104011324 0.000177128298257304 -0.000788950802807929
"115" 2.80653987096723e-05 -4.53871492123924e-05 3.10603017995176e-05 0.000273416222239512 -0.000156263107587684 0.000327730126703611 8.41157607620462e-06 -0.000272221968494383 0.000191621302917735 0.00062214735399041 8.36966588422508e-05 -0.00120031317319764 -0.00100502894327645 0.000348853760400351 0.000168671378943821 -0.000775599168251415
"116" 2.60206896075038e-05 -4.32264889188209e-05 3.12962997187693e-05 0.000274816922776369 -0.000158641482123326 0.000325625107259503 1.12515820437083e-06 -0.000269087559026616 0.000183780004396507 0.000614394850223347 7.61636793697594e-05 -0.00119657874215753 -0.000988641252931957 0.00033955189436189 0.000159888342328888 -0.000761269035813527
"117" 2.40973625734276e-05 -4.11653317205031e-05 3.14592833566713e-05 0.000275984987706356 -0.000160852719661663 0.000323425669258733 -6.03171013521817e-06 -0.000265568781730603 0.000175085964512201 0.000605496798007043 6.8251316151548e-05 -0.00119199004905752 -0.000971349251355188 0.000329226423069583 0.000150839833865434 -0.000746093624988602
"118" 2.23390699157896e-05 -3.92126653409469e-05 3.15556904059571e-05 0.00027694498809135 -0.000162925949152077 0.000321182648404618 -1.30215703976428e-05 -0.000261705452588289 0.000165611745983293 0.000595575582465922 6.00278168939591e-05 -0.00118667070326146 -0.0009533184108647 0.00031799647359605 0.000141604692564558 -0.000730210919404501
"119" 2.07771665376225e-05 -3.73700421456529e-05 3.15808697741945e-05 0.000277712043985379 -0.000164886937920567 0.000318936586174667 -1.98129250280866e-05 -0.00025753945792073 0.00015542541155909 0.000584754670844091 5.15497331206976e-05 -0.00118075502574705 -0.000934716565737917 0.000305973871532615 0.000132249443021312 -0.000713768065765285
"120" 1.94524318006089e-05 -3.56425644643251e-05 3.15353232585732e-05 0.000278312378594886 -0.000166777695883625 0.000316733583432248 -2.63788755368641e-05 -0.000253123759244131 0.00014460321590967 0.000573168807231701 4.28878434290982e-05 -0.00117435571354372 -0.000915706741422025 0.000293284909114327 0.000122852518429676 -0.000696901305869225
"121" 1.83888778511039e-05 -3.40332813796333e-05 3.14169349335034e-05 0.000278758179139085 -0.000168621715375014 0.000314609165432747 -3.26922166152512e-05 -0.000248505527182817 0.000133223317732609 0.000560947307726677 3.41120119283887e-05 -0.00116760292695736 -0.000896460296465551 0.00028005093993903 0.000113482490588 -0.000679753172226928
"122" 1.76245006898095e-05 -3.25358898995618e-05 3.12278043200167e-05 0.00027907851993452 -0.000170453443194042 0.00031260652262143 -3.87319860802618e-05 -0.000243730887687112 0.000121372119985932 0.000548234374287005 2.52878550395695e-05 -0.00116060352844733 -0.00087713094827847 0.000266399839402508 0.000104214127087624 -0.000662462377913854
"123" 1.71753913168609e-05 -3.11578705701557e-05 3.09681267581741e-05 0.000279280076913544 -0.00017230610581481 0.000310751789185647 -4.44752390985984e-05 -0.000238850783400489 0.000109130043982947 0.000535160418537304 1.64871298720964e-05 -0.00115347403065954 -0.00085788853095867 0.000252462802573033 9.511503982164e-05 -0.000645172665152707
"124" 1.70746510512676e-05 -2.98912234815655e-05 3.06386749564034e-05 0.000279383642679132 -0.000174203875416234 0.000309075744981659 -4.99089331266567e-05 -0.00023391839336626 9.65863557217723e-05 0.00052186098508345 7.77692722959417e-06 -0.00114631685478722 -0.000838888696647338 0.000238360497865345 8.6250366652618e-05 -0.000628012044615941
"125" 1.73464754152308e-05 -2.87315435666706e-05 3.02488117747882e-05 0.000279415515240742 -0.000176160896639699 0.000307613943822332 -5.50094695344853e-05 -0.000228973312747288 8.38346935340208e-05 0.000508488593008415 -7.70858675141261e-07 -0.00113922361066999 -0.000820277877416895 0.000224229033855542 7.76930387166825e-05 -0.000611115803615837
"126" 1.80019932694929e-05 -2.7675561634828e-05 2.97925665912592e-05 0.000279379854724002 -0.000178204326236824 0.000306377994900812 -5.97687891339107e-05 -0.000224064389726212 7.0957725393558e-05 0.000495164348776167 -9.08910903254362e-06 -0.00113229091392995 -0.000802212227767107 0.000210187780048877 6.95030067469674e-05 -0.000594614602669423
"127" 1.90596581742503e-05 -2.6716794255032e-05 2.92810297435203e-05 0.000279292703702804 -0.000180360062136327 0.000305392310855526 -6.41780985162381e-05 -0.000219238694158494 5.80453539616684e-05 0.000482019523511836 -1.71157668663511e-05 -0.00112559351219622 -0.000784824373381858 0.000196352154145133 6.17327609109422e-05 -0.000578620131914886
"128" 2.05353214788094e-05 -2.58416045433225e-05 2.8720171685675e-05 0.000279168858864559 -0.000182618596565748 0.00030466631879023 -6.8224727811038e-05 -0.000214530458141889 4.51968096600661e-05 0.000469195134705488 -2.47781095558103e-05 -0.0011191930444096 -0.000768225522300896 0.000182853600986096 5.44550005578723e-05 -0.000563232676011805
"129" 2.24315460819334e-05 -2.50449216940969e-05 2.81114424174652e-05 0.000279015381935238 -0.000185006112224027 0.000304212611800531 -7.1909267140291e-05 -0.000209986235075528 3.24905992176028e-05 0.00045680134074199 -3.20183885448595e-05 -0.00111314757861906 -0.00075253818437645 0.000169796473605472 4.77073628042671e-05 -0.000548559373342954
"130" 2.47612659572549e-05 -2.43137121130122e-05 2.74681518758931e-05 0.000278848993160953 -0.000187520409119152 0.000304037200369631 -7.52237759878924e-05 -0.000205636343591403 2.00165089699565e-05 0.000444958917003516 -3.87762566121928e-05 -0.00110750500515831 -0.000737872908390078 0.000157289246058891 4.15422939704182e-05 -0.00053469209351723
"131" 2.75174711689985e-05 -2.36392991220829e-05 2.67949148573122e-05 0.000278664354466776 -0.000190166885313035 0.000304138034314744 -7.81689278036711e-05 -0.000201514391585318 7.86083418129302e-06 0.000433771761092574 -4.49982302301511e-05 -0.00110229606331348 -0.000724312434430018 0.000145431063267416 3.60019691966767e-05 -0.000521706955241988
"132" 3.07004033664786e-05 -2.30079257451506e-05 2.61003294451761e-05 0.000278473626834184 -0.000192935091451851 0.00030451337933535 -8.07469810090941e-05 -0.000197645783918447 -3.90081792919546e-06 0.000423342089456282 -5.06331905501089e-05 -0.00109754317386512 -0.000711935104147819 0.000134310789680181 3.1119465333978e-05 -0.000509675644579738
"133" 3.43146286830804e-05 -2.24002873781032e-05 2.54036831686943e-05 0.000278287155243101 -0.00019581103867315 0.000305158852156463 -8.29534929861085e-05 -0.000194053143804376 -1.51774979515647e-05 0.000413768173685556 -5.56249509981902e-05 -0.00109324253532987 -0.000700790387621386 0.000124026448802251 2.69425192333484e-05 -0.000498642830527909
"134" 3.83435229889309e-05 -2.18098717871363e-05 2.47062949187251e-05 0.00027809568626224 -0.00019879313013781 0.000306060744567111 -8.48033811347345e-05 -0.000190759955201717 -2.59078138588617e-05 0.00040512323220077 -5.99396157746616e-05 -0.00108939827284769 -0.00069092793443685 0.000114638515002928 2.34804927651629e-05 -0.000488651400126557
"135" 4.27761935598897e-05 -2.12172183454636e-05 2.40237305056583e-05 0.000277906082363171 -0.000201845772078794 0.000307205091288961 -8.62911655110511e-05 -0.000187771128249369 -3.60115597329176e-05 0.000397486318824955 -6.35319346259906e-05 -0.00108598993417084 -0.000682387396983947 0.000106224250881332 2.0769850995524e-05 -0.000479734193987275
"136" 4.76079106786675e-05 -2.06087596469997e-05 2.33763879958583e-05 0.000277720943680596 -0.000204949568559505 0.000308576666158461 -8.74258353721235e-05 -0.000185097312282056 -4.54197206581182e-05 0.000390925589775164 -6.63659857360536e-05 -0.00108297690870614 -0.000675156602538612 9.88460993934636e-05 1.88244789784373e-05 -0.000471888473507804
"137" 5.28073914966624e-05 -1.99695675750713e-05 2.27676689133997e-05 0.000277527475679659 -0.000208085181319627 0.00031015212771729 -8.82215607027161e-05 -0.000182751002201871 -5.40898864141682e-05 0.000385475389539504 -6.84253218830553e-05 -0.00108032851473206 -0.000669248699634103 9.2528833350612e-05 1.76385587980616e-05 -0.000465125417890083
"138" 5.83666880827611e-05 -1.92875007698877e-05 2.22161419363762e-05 0.000277329414033635 -0.000211209855245219 0.000311909978636007 -8.86761093006563e-05 -0.000180718602291841 -6.19480824212582e-05 0.000381191561875239 -6.96734281795639e-05 -0.00107798236387122 -0.000664639728094914 8.73280823892095e-05 1.72346170875518e-05 -0.000459429629795612
"139" 6.42638275141217e-05 -1.85403041044598e-05 2.17398873523367e-05 0.000277123884964574 -0.000214282322767463 0.000313824990785523 -8.88045296772435e-05 -0.000178998667946811 -6.89518360151407e-05 0.000378099793938461 -7.00980721018945e-05 -0.00107587065393385 -0.000661284170920989 8.32652484245046e-05 1.76077600496492e-05 -0.00045476241069966
"140" 7.04735241757614e-05 -1.77142220619047e-05 2.13601454934409e-05 0.000276904435027831 -0.000217269148600373 0.000315871777895028 -8.86137685753764e-05 -0.000177579488443697 -7.50587185688718e-05 0.000376217129827884 -6.96894833775555e-05 -0.00107392032027914 -0.000659134244614116 8.03486230592923e-05 1.87460133613622e-05 -0.000451081832485852
"141" 7.6968368178078e-05 -1.68000680569174e-05 2.10837267386187e-05 0.000276662070391165 -0.000220116028183708 0.000318016107131392 -8.81163683604631e-05 -0.000176443709840996 -8.0228695085756e-05 0.000375549946977792 -6.84368095106714e-05 -0.00107204483523857 -0.000658112215445587 7.85813092650133e-05 2.06368206784231e-05 -0.000448326677168552
"142" 8.37273482101201e-05 -1.57750471227336e-05 2.09357182136106e-05 0.000276395039404521 -0.000222782421332474 0.000320233287211705 -8.73167788225609e-05 -0.000175571620915432 -8.44310554251211e-05 0.000376096545031339 -6.63442705797094e-05 -0.00107014981391329 -0.000658149163681134 7.79664271022511e-05 2.32669858645062e-05 -0.000446438130835045
"143" 9.07125913500315e-05 -1.46402255070811e-05 2.09231313192704e-05 0.000276088850960279 -0.000225218583485571 0.000322487330698658 -8.62304764609911e-05 -0.000174939430252996 -8.76509080702153e-05 0.000377833449701345 -6.34206231853613e-05 -0.00106814467912955 -0.000659152519058219 7.84699507174528e-05 2.66025038588924e-05 -0.000445336018034094
"144" 9.79028078625449e-05 -1.3371552799284e-05 2.10750616977123e-05 0.000275742045324651 -0.000227360534314156 0.000324749084021921 -8.48645896759045e-05 -0.000174512691620997 -8.98613641509816e-05 0.000380743966486909 -5.96715604746569e-05 -0.001065912190508 -0.00066099979024407 8.00748982172739e-05 3.06241266380343e-05 -0.000444917614616172
"145" 0.000105261232594396 -1.19628958308827e-05 2.13994701934141e-05 0.000275339918452519 -0.000229172278883065 0.000326984714227119 -8.32322146310224e-05 -0.000174268039850855 -9.10586414320209e-05 0.00038477539207382 -5.51223545717441e-05 -0.0010633552504672 -0.000663588686771827 8.27349883972158e-05 3.5291325713986e-05 -0.000445093515808847
"146" 0.000112761090113762 -1.04055336698733e-05 2.19161237017366e-05 0.000274881590601279 -0.000230581342468538 0.000329163825484691 -8.13387453334555e-05 -0.000174163282884518 -9.12378861071811e-05 0.000389892989586332 -4.97905636149288e-05 -0.00106035370198559 -0.00066678760303225 8.64051159472048e-05 4.05667222429963e-05 -0.000445751051565193
"147" 0.000120376814109125 -8.68612237368906e-06 2.2647511136716e-05 0.000274363199988341 -0.000231534572612821 0.000331258848166613 -7.91928078157691e-05 -0.000174159728608211 -9.04011291999142e-05 0.000396035808114181 -4.37038430842523e-05 -0.00105679418355606 -0.000670462834829744 9.10241295265069e-05 4.6411632507873e-05 -0.000446779200498003
"148" 0.000128067011745345 -6.80639478287554e-06 2.35989670659729e-05 0.000273765969556395 -0.000231982964048014 0.000333230126363748 -7.6809378233811e-05 -0.000174221265715689 -8.85617911257528e-05 0.000403130104450929 -3.69024271481594e-05 -0.00105256726248135 -0.000674472838400548 9.65271820109977e-05 5.27750150422346e-05 -0.000448047801816923
"149" 0.000135802339511055 -4.75400773100639e-06 2.47888294714545e-05 0.000273088173083704 -0.000231873737168192 0.000335054985994748 -7.41948491970685e-05 -0.000174303601497725 -8.57378307581873e-05 0.000411101639212916 -2.94233193780884e-05 -0.00104756004237393 -0.000678682013514208 0.000102837706540376 5.96052076935455e-05 -0.000449445138418052
"150" 0.000143555554519788 -2.53235283083036e-06 2.62295900806506e-05 0.000272323745816451 -0.000231145651697997 0.000336703836445057 -7.1355747911415e-05 -0.000174364085565969 -8.19520734432356e-05 0.000419870102708844 -2.13086692838259e-05 -0.00104166626120617 -0.000682945602464407 0.000109877730727422 6.68527395521132e-05 -0.000450841414564496
"151" 0.000151301981486877 -1.2851629934318e-07 2.79425279892032e-05 0.000271476654175107 -0.000229742757740544 0.000338152810220227 -6.82968243226876e-05 -0.000174354893135405 -7.72266146332858e-05 0.000429345719630476 -1.26035028736012e-05 -0.00103476862880082 -0.000687098495638173 0.000117558792180776 7.44689673827254e-05 -0.000452095224133747
"152" 0.000159003224690268 2.44546473388011e-06 2.99309945999259e-05 0.000270528976955879 -0.000227628228408047 0.000339373812769458 -6.50344411854023e-05 -0.000174236237002143 -7.16077673338338e-05 0.000439426070449325 -3.36631487918483e-06 -0.00102677926566153 -0.000691014677555169 0.000125786164066707 8.23866493116843e-05 -0.000453097053627139
"153" 0.000166631333352008 5.18798685419697e-06 3.22028972399405e-05 0.000269479270440416 -0.000224757843413901 0.000340343334334315 -6.15739454357913e-05 -0.000173968242910759 -6.51348711549742e-05 0.000450003039877838 6.34892605565547e-06 -0.00101759962070082 -0.000694539344497057 0.000134454111497325 9.05418902663693e-05 -0.000453707328761019
"154" 0.000174163150153092 8.10468846788927e-06 3.47758459468077e-05 0.000268329693873388 -0.0002210794982048 0.000341045723758738 -5.79198142275865e-05 -0.000173503384641201 -5.78497288228872e-05 0.000460979597362985 1.64860542424995e-05 -0.00100714056112244 -0.000697526443554919 0.000143469703239655 9.88870459310945e-05 -0.000453803274346102
"155" 0.000181574446516025 1.1182575153122e-05 3.76514298873796e-05 0.000267075913161189 -0.0002165627853987 0.000341458434231945 -5.40804618681075e-05 -0.000172802563306342 -4.98039600326708e-05 0.000472236751402312 2.69836538314114e-05 -0.000995320802412311 -0.000699843445972651 0.000152733468112426 0.000107359277643373 -0.000453261969022576
"156" 0.000188839541853274 1.4409923510538e-05 4.08295201125889e-05 0.000265720123968959 -0.00021117351584987 0.000341571229204482 -5.00649092347453e-05 -0.000171827030833434 -4.10566119743448e-05 0.00048366314831037 3.77771769411991e-05 -0.000982075569872382 -0.000701362125041254 0.000162123265674103 0.000115893952450547 -0.000451980227841859
"157" 0.000195934674185162 1.77880072871913e-05 4.43221356301702e-05 0.000264258576170021 -0.000204883206648227 0.000341363948047949 -4.58779546245079e-05 -0.000170541227885588 -3.16640306037439e-05 0.000495143464891982 4.88028758454985e-05 -0.000967336102363058 -0.000701946438092723 0.00017154998319988 0.000124432215052978 -0.000449829066585987
"158" 0.000202846074129709 2.12993602344379e-05 4.81284637344868e-05 0.00026270150697879 -0.000197661716569705 0.000340835216115792 -4.15202732442707e-05 -0.000168905956292003 -2.16821122684089e-05 0.000506569517720247 6.00013072967988e-05 -0.000951050324197737 -0.00070148166092743 0.000180905920104104 0.000132924318516811 -0.000446712715605585
"159" 0.000209547737834274 2.49338073098766e-05 5.22479913231533e-05 0.000261042044820398 -0.000189509800203284 0.000339970724824859 -3.70091333060083e-05 -0.000166900195781102 -1.11920241311876e-05 0.000517809439328953 7.12936144001291e-05 -0.00093318773581858 -0.000699864809540403 0.000190070548180544 0.000141298146183521 -0.000442539443600234
"160" 0.000216026799648202 2.86716491453113e-05 5.66728898182135e-05 0.000259288146387876 -0.000180407785547548 0.000338765038189864 -3.23468951613462e-05 -0.00016449648975959 -2.45938025800281e-07 0.000528762543720158 8.26255874428949e-05 -0.000913707295568234 -0.000696991613538822 0.00019895575792407 0.000149507843525262 -0.000437216922385081
"161" 0.000222266546725525 3.25018834580454e-05 6.14035196851516e-05 0.000257442736558668 -0.000170346377105785 0.000337214153055577 -2.75397382441689e-05 -0.000161666515337356 1.10771207516675e-05 0.000539314535329393 9.39242036665074e-05 -0.000892594002800601 -0.000692772368825258 0.000207461827065293 0.000157497781081268 -0.000430669906888491
"162" 0.000228250672746393 3.64055318953804e-05 6.64309589709273e-05 0.000255512046389972 -0.000159338435776915 0.000335320698108248 -2.25977612024754e-05 -0.0001584009567782 2.27059810419847e-05 0.000549351221001893 0.000105126355504085 -0.000869844401733626 -0.000687129272494305 0.000215481324463038 0.000165211843154768 -0.00042282377411069
"163" 0.000233974516747274 4.03649216826314e-05 7.17422460009864e-05 0.000253503774497319 -0.000147390949423059 0.000333082597350652 -1.75268110135396e-05 -0.000154683530985068 3.45714491438898e-05 0.000558774933557276 0.000116169273630593 -0.000845458033223345 -0.000679997679183942 0.000222934243723539 0.000172607383431481 -0.00041363004914983
"164" 0.000239423760286182 4.43591889205946e-05 7.7329631503662e-05 0.000251422033253755 -0.0001345239267143 0.000330505104157335 -1.23370084948766e-05 -0.000150508670724889 4.6594356667405e-05 0.000567478396333525 0.000126987919287025 -0.000819451322786685 -0.000671324909204617 0.000229726610126686 0.000179635130231478 -0.000403040538285175
"165" 0.000244597322755777 4.83677698962457e-05 8.3185203334402e-05 0.000249278400270063 -0.000120747167710382 0.000327595339068062 -7.02924769902434e-06 -0.000145865448492884 5.87121621248127e-05 0.000575379577579132 0.000137529588315021 -0.00079185292036534 -0.000661061269404096 0.000235785977886756 0.000186256914939386 -0.000391011378567357
"166" 0.000249477161293233 5.23697563789399e-05 8.92830783189231e-05 0.000247070726342058 -0.00010610931559465 0.000324353246428584 -1.62656791483662e-06 -0.000140768234752618 7.08403192172632e-05 0.000582375108799947 0.000147728945730931 -0.000762704670748874 -0.000649186504089298 0.000241030317899476 0.000192428468374801 -0.000377529483654855
"167" 0.000254069692695213 5.63447693043782e-05 9.56075369691666e-05 0.000244818725612401 -9.06263728764554e-05 0.000320796504100714 3.87615824424685e-06 -0.000135213834131912 8.29138145091129e-05 0.000588400724779935 0.000157538307416032 -0.000732053479486672 -0.000635681302093516 0.000245397267305773 0.000198122818003216 -0.000362580503688234
"168" 0.000258366328974981 6.02662338243484e-05 0.000102147734236399 0.000242522400654001 -7.43564288744307e-05 0.00031692652359378 9.45692822694822e-06 -0.000129218962008217 9.48588931367922e-05 0.000593373631079093 0.000166903608456699 -0.000699959341237527 -0.000620536943692545 0.000248826204265993 0.000203301478048716 -0.000346160522715065
"169" 0.000262361999531893 6.41095326490196e-05 0.000108865458693253 0.000240186182816496 -5.73540312073304e-05 0.000312756675783149 1.51047560947226e-05 -0.00012280579070825 0.000106600366812267 0.000597224668511561 0.000175776330345447 -0.000666502043560391 -0.00060377651177905 0.000251261024842018 0.000207930742456116 -0.000328293375955804
"170" 0.000266061888949911 6.78562594297204e-05 0.000115749539599226 0.000237823531049354 -3.96606625142029e-05 0.000308300675625213 2.08116997193722e-05 -0.000115992476682283 0.000118075839693545 0.000599899779969105 0.000184114113774238 -0.000631756941734574 -0.000585415239093674 0.000252658658073506 0.000211995793695337 -0.000308997097613079
"171" 0.000269468027741848 7.14878482652947e-05 0.000122781271316417 0.000235445790310349 -2.13372424594024e-05 0.00030357402891706 2.65678017625809e-05 -0.000108801246145643 0.000129227487585733 0.00060136162313485 0.000191885055292612 -0.000595810378736116 -0.000565479143392856 0.000252991795139757 0.000215483652657551 -0.000288306471639712
"172" 0.000272581747678397 7.49767236020781e-05 0.000129925475165069 0.000233054042074667 -2.45289867277177e-06 0.000298587647444072 3.23572651797215e-05 -0.000101269650070694 0.00013998351596932 0.000601559498090556 0.000199045864917173 -0.000558768393396757 -0.000544029875476323 0.000252226897316418 0.000218371031601793 -0.000266275899325814
"173" 0.000275398745630531 7.82943842624342e-05 0.000137152466105843 0.00023065185526807 1.69165115753549e-05 0.000293355161900517 3.8161561848572e-05 -9.34315584306722e-05 0.000150285530645913 0.000600465231753418 0.000205570369619419 -0.000520742076669982 -0.000521129674876851 0.000250337744882077 0.00022064307217527 -0.000242971749196165
"174" 0.000277929639059978 8.14301902428993e-05 0.0001444439996448 0.000228249537392001 3.67055179921188e-05 0.00028789208406733 4.39699966800281e-05 -8.53251203003985e-05 0.000160080071958473 0.000598058359375647 0.000211432056547537 -0.000481846919437523 -0.000496847569991151 0.00024732558904139 0.000222295666387976 -0.000218462723069724
"175" 0.000280170188390022 8.43540348759775e-05 0.000151759647839596 0.000225847993209922 5.68206863032966e-05 0.000282212880435299 4.97626110759481e-05 -7.69995846381359e-05 0.000169307135786196 0.000594317891992242 0.000216605853913806 -0.000442207553781707 -0.000471273906700464 0.000243176488765359 0.000223322110566594 -0.000192842908089593
"176" 0.000282133862377898 8.70551413668897e-05 0.00015907969061146 0.00022345493834547 7.71949241807445e-05 0.000276335160297377 5.55269028256729e-05 -6.8491047575211e-05 0.000177928731132269 0.000589252141657968 0.000221083060065509 -0.000401949570855887 -0.000444498823796589 0.000237907116451157 0.000223726415227688 -0.000166202292091324
"177" 0.000283823741827581 8.95064326573011e-05 0.000166370221756103 0.000221070427538056 9.77312948422537e-05 0.000270274193144893 6.12469141215429e-05 -5.98583710492254e-05 0.000185889728007111 0.000582857516421767 0.000224844548724275 -0.000361213975699252 -0.000416639779645301 0.000231519079170821 0.000223510775752854 -0.000138655160907017
"178" 0.000285241419538881 9.16943735514286e-05 0.00017359717135702 0.000218698438116624 0.000118350578592403 0.000264045988868369 6.69017426963992e-05 -5.11447905854377e-05 0.000193153749751448 0.000575150917866169 0.000227886738592329 -0.000320141880387239 -0.000387819821609104 0.000224044689702026 0.000222681907123768 -0.000110326465736811
"179" 0.000286391341126839 9.36021339404221e-05 0.000180733977011302 0.000216335746869247 0.000138955730718716 0.000257662654669536 7.24748030903539e-05 -4.24094152352846e-05 0.000199680252517825 0.000566150637186188 0.000230204677889088 -0.000278878542813256 -0.0003581603502466 0.000215504628606157 0.000221246632713221 -8.13397538355019e-05
"180" 0.000287288983828115 9.52159717287644e-05 0.000187754178513333 0.000213989526162412 0.000159469334096758 0.000251145511722568 7.79544335786752e-05 -3.37014606026829e-05 0.000205443730849649 0.000555892010794734 0.00023180391506779 -0.000237565086759802 -0.000327800552126458 0.000205942364060232 0.000219226445763366 -5.1833540034312e-05
"181" 0.000287933782867245 9.65234773369632e-05 0.000194623825715836 0.000211656238616661 0.000179790521846413 0.000244507627098066 8.33117944172566e-05 -2.50765994818623e-05 0.000210412823877056 0.000544407163528648 0.000232689638128534 -0.000196353973253127 -0.000296882157763251 0.000195398819052677 0.000216635329250688 -2.19496783409538e-05
"182" 0.000288335877961796 9.75138964937842e-05 0.000201319511062987 0.000209333446635507 0.000199840228279257 0.000237767421135579 8.85413245495778e-05 -1.65893352183832e-05 0.000214565209160763 0.000531745395324977 0.000232870697336362 -0.000155398349181853 -0.000265566255052504 0.000183922208149034 0.000213496945021615 8.14903009383878e-06
"183" 0.000288489352726958 9.81668071069982e-05 0.000207796216209104 0.000207011725744837 0.000219506199322402 0.00023093515109896 9.36099493921687e-05 -8.301837866137e-06 0.000217870877333859 0.000517941913235384 0.000232356042718662 -0.000114857266181422 -0.000234026053180937 0.000171558877692366 0.000209816119858177 3.82893215666814e-05
"184" 0.000288414501220439 9.84906987324345e-05 0.000214045333716661 0.000204695247277554 0.000238714170891799 0.000224031608622402 9.85111878519855e-05 -2.6462155501513e-07 0.000220327349005321 0.000503066434433453 0.000231167301741595 -7.48657933453462e-05 -0.000202402814241211 0.000158381981495153 0.000205634482846316 6.83273881211227e-05
"185" 0.000288113210424316 9.84720504195628e-05 0.0002200339518581 0.00020237897889705 0.00025738997900074 0.000217072515162713 0.000103229158692114 7.4782258783799e-06 0.0002219295833315 0.000487188164512236 0.000229330718435049 -3.55810301294851e-05 -0.000170882043933526 0.000144464971525894 0.000200985686531614 9.80748046095304e-05
"186" 0.000287592284071036 9.81153742567518e-05 0.000225737000411216 0.000200057953484145 0.000275429093130734 0.000210075330326808 0.00010774061978648 1.48633130790989e-05 0.000222660164771455 0.000470362809933891 0.00022686334726633 2.85786667223603e-06 -0.000139620555584548 0.000129859770499887 0.000195882387635147 0.000127374575834741
"187" 0.00028684945954372 9.74016555272793e-05 0.000231130057665207 0.000197716891975844 0.00029276425325467 0.000203048962040482 0.000112031935267493 2.18440103950457e-05 0.000222523425395403 0.000452663252108639 0.000223791459414271 4.0297733954433e-05 -0.000108809138852182 0.000114649717323246 0.000190364324416314 0.000156033441655403
"188" 0.000285900563703615 9.63499128682234e-05 0.000236190834804366 0.00019535709553333 0.000309304859984021 0.00019601884966587 0.000116085100842181 2.83743352090611e-05 0.000221516635868163 0.000434164543988097 0.000220143724801592 7.66068166402079e-05 -7.86166124482319e-05 9.89097382431475e-05 0.000184454896356511 0.000183881613533831
"189" 0.000284744389230664 9.49505988795573e-05 0.000240902262660667 0.000192968397755492 0.000324998145537512 0.000188995703205178 0.000119891421048986 3.44143718641133e-05 0.000219660190651678 0.000414958846786175 0.000215956222759459 0.000111652045187875 -4.92103221462655e-05 8.27277407436799e-05 0.000178201611711533 0.000210747102563812
"190" 0.000283392795555483 9.32155756173313e-05 0.000245246047219667 0.000190545777216683 0.000339759376859816 0.000181999601513918 0.000123434425859402 3.99186788569534e-05 0.000216959060634516 0.000395118871102695 0.000211258480598499 0.000145313778229822 -2.07555340094347e-05 6.61817619172746e-05 0.000171633248521658 0.000236462936479985
"191" 0.000281848744046455 9.11496741972589e-05 0.0002492109747577 0.000188082089205887 0.000353533343753741 0.000175049284354311 0.000126706587849111 4.48527749393797e-05 0.000213433883840503 0.000374736232288622 0.000206089427918131 0.000177471241526177 6.58280727738374e-06 4.9361206237028e-05 0.000164788580267998 0.000260859310255319
"192" 0.000280116432287711 8.87615852614972e-05 0.000252774816062139 0.000185564660255336 0.000366258604495026 0.000168158212204304 0.000129691074452256 4.91834914416108e-05 0.000209099975333884 0.00035389594882516 0.000200479308218337 0.000208010769371593 3.26401697907038e-05 3.23530709578971e-05 0.000157702581157411 0.000283777615631798
"193" 0.000278201293515982 8.60601827321061e-05 0.000255931994096392 0.000182988297989243 0.000377886386382413 0.000161347578119463 0.000132382744709145 5.2881669680478e-05 0.000203984707250415 0.000332688947911972 0.000194467945492024 0.000236828765561082 5.72609802223589e-05 1.52414496610767e-05 0.000150411634094424 0.000305053838200042
"194" 0.000276107626294086 8.30561477620739e-05 0.000258670459025131 0.00018034380954248 0.000388364071304968 0.000154633936765271 0.000134770828394247 5.59238686324606e-05 0.000198118585833956 0.000311208346327655 0.000188095242612524 0.000263836685832367 8.03102522026434e-05 -1.88327322834198e-06 0.000142954649624095 0.000324558187561402
"195" 0.000273840459327216 7.97657620151976e-05 0.000260983434029502 0.000177623107810143 0.000397657759987425 0.000148038172987223 0.000136850663278376 5.82882870974712e-05 0.000191530392401805 0.000289540992257771 0.000181394583735666 0.000288948676965347 0.000101652813909601 -1.89334961028629e-05 0.000135369539050595 0.000342151536612283
"196" 0.00027141071005722 7.62048731381753e-05 0.000262868930099023 0.000174822483487732 0.000405730426091953 0.000141578367223314 0.000138616755209352 5.99640376171556e-05 0.000184257186368006 0.000267784514343185 0.000174407523724926 0.00031209042334439 0.00012116782552357 -3.58243575544366e-05 0.000127691227817474 0.0003577159123667
"197" 0.000268817543597573 7.23859125089139e-05 0.00026432067178576 0.00017193427562887 0.000412560026589356 0.000135276856820143 0.00014007191109226 6.09383701410056e-05 0.000176339915333358 0.000246030530874749 0.000167172518917281 0.000333201769325714 0.000138743635965517 -5.24638077255999e-05 0.000119962433778734 0.000371136627622268
"198" 0.000266072203719077 6.83333216309944e-05 0.000265343369421631 0.000168955272035911 0.000418123342011559 0.000129151065710911 0.000141208577831362 6.12078188635519e-05 0.000167819380469473 0.000224374274046059 0.000159729488352221 0.000352232698541559 0.000154292986211128 -6.87678334386985e-05 0.000112218315331427 0.000382337377073466
"199" 0.000263176774527961 6.40621763126602e-05 0.000265935849025054 0.000165877280452432 0.000422407888093605 0.000123222065998786 0.000142029804228242 6.07723912616554e-05 0.000158743027381156 0.000202901647869209 0.000152112095718481 0.000369139826493027 0.000167727964211005 -8.465650460197e-05 0.000104489548378467 0.000391228697986237
"200" 0.000260138023522254 5.95894993505711e-05 0.00026610497386737 0.000162696780985794 0.000425414235952259 0.000117512088300131 0.000142539662432377 5.96399765295582e-05 0.000149153595370515 0.000181704147832789 0.00014435806565511 0.000383884774139992 0.000178976498699985 -0.000100045999485437 9.68175066897599e-05 0.000397751399652592
"201" 0.000256962008335906 5.49411146188387e-05 0.000265856521390838 0.000159413394572894 0.000427135153992212 0.000112039432876959 0.00014273926881084 5.78171310870435e-05 0.000139107075762794 0.00016087132448967 0.000136502159131659 0.000396455680259966 0.000187999744538315 -0.000114862046609515 8.92314369539548e-05 0.000401864875888297
"202" 0.000253651133514834 5.01324130329468e-05 0.000265188885502863 0.000156021763470999 0.000427566849356528 0.000106823716661138 0.000142630524213229 5.53107077622936e-05 0.000128645699206547 0.00014047974110822 0.000128575468917745 0.000406832636958612 0.000194746221283983 -0.00012904484209951 8.17570202457443e-05 0.000403533458587344
"203" 0.000250221255817482 4.51952884083813e-05 0.000264128291156888 0.0001525317397095 0.000426754696730412 0.000101890900450122 0.000142230990508404 5.21533193687679e-05 0.000117841247040737 0.000120632877766954 0.000120622053523052 0.000415031444810795 0.000199218256500965 -0.00014249456870015 7.44426954925902e-05 0.000402767211158581
"204" 0.000246669900566375 4.01393797801666e-05 0.000262673790324517 0.000148934506681742 0.000424688624870508 9.72564503240132e-05 0.000141537075344238 4.83553860495503e-05 0.000106730871270586 0.000101394187913487 0.000112661639409115 0.000421044323676603 0.000201396671358628 -0.000155172250286545 6.72959010022229e-05 0.000399562576504355
"205" 0.000243008853864556 3.49943838211229e-05 0.000260843863709048 0.00014523883537334 0.000421407003898293 9.29430114435599e-05 0.000140569873330287 4.39517825915618e-05 9.53863631955216e-05 8.28518883626781e-05 0.000104733165081856 0.000424901059842031 0.000201297139005548 -0.00016699708399279 6.03573148465251e-05 0.000393943922807888
"206" 0.000239240083094772 2.97774399738161e-05 0.00025865010843058 0.000141442802100464 0.000416940271546416 8.8964080700464e-05 0.000139329692081185 3.8966571964058e-05 8.38554590770719e-05 6.50734849489831e-05 9.68553817759358e-05 0.0004266189982729 0.000198949615764144 -0.000177929735075282 5.36450222473067e-05 0.000385960724187172
"207" 0.000235378525977189 2.45136298815172e-05 0.000256113361214196 0.000137561308670742 0.000411326485742274 8.53447928914569e-05 0.000137835288440877 3.34369360503424e-05 7.22062973396438e-05 4.81399257405276e-05 8.90669788360318e-05 0.000426246738935545 0.000194399933296702 -0.000187904982667633 4.71885899634198e-05 0.00037567517372997
"208" 0.000231427195808001 1.92270574798612e-05 0.000253247320115576 0.000133596601117401 0.000404605729522007 8.20969889122911e-05 0.000136098037194036 2.73960148416631e-05 6.04938549293414e-05 3.21101202634898e-05 8.13826477283562e-05 0.000423818310746518 0.000187707880462331 -0.000196884659308471 4.10005774629291e-05 0.000363160807029447
"209" 0.000227390339204738 1.39299037554361e-05 0.000250065742374568 0.000129555630612255 0.000396824113379083 7.92383458796039e-05 0.000134128296505758 2.08846354403215e-05 4.87776993199843e-05 1.70517745798923e-05 7.38307095228566e-05 0.000419384960855415 0.000178936895868977 -0.000204827437609276 3.50998500688402e-05 0.000348507109192595
"210" 0.000223276734034947 8.64783230661041e-06 0.000246590748557382 0.000125446585400634 0.000388031064839583 7.67806592140698e-05 0.000131941992311748 1.39397455347806e-05 3.71197947169009e-05 3.0225008460534e-06 6.64298950603003e-05 0.000413003975122094 0.000168175900866855 -0.00021169410404771 2.95052309704622e-05 0.000331822571830594
"211" 0.000219099002634107 3.40395409395941e-06 0.000242844359588045 0.0001212909822679 0.0003782916124156 7.47407245149008e-05 0.000129555869465859 6.61114513272791e-06 2.55816487825424e-05 -9.91837795270597e-06 5.92042587448715e-05 0.000404737756000091 0.00015552360796095 -0.000217459403029193 2.42286849370364e-05 0.000313220760747209
"212" 0.000214861958839019 -1.78859369588082e-06 0.000238841430809415 0.0001170933347297 0.000367655631275186 7.31263730536585e-05 0.000126982133283265 -1.05830071089702e-06 1.42196994030475e-05 -2.1720534672472e-05 5.21697398267209e-05 0.000394652335394299 0.000141082706621855 -0.000222090298403965 1.92847963063549e-05 0.000292830972044492
"213" 0.000210576760694323 -6.90760982424801e-06 0.000234604814686166 0.000112874514266556 0.000356190449519558 7.19481441620598e-05 0.00012424012220898 -9.02555841688959e-06 3.09818107349786e-06 -3.23362201919052e-05 4.53442566558694e-05 0.000382827055233481 0.000124974433999412 -0.000225576014757006 1.46801729556164e-05 0.000270796973805942
"214" 0.000206245013994176 -1.19440961436559e-05 0.000230150648861756 0.00010863942512871 0.000343953109846949 7.12071446191043e-05 0.000121342287444963 -1.7244479160502e-05 -7.73554539460462e-06 -4.1735198389145e-05 3.87385754284377e-05 0.000369323429379381 0.000107310676622242 -0.000227906917496531 1.04168688063204e-05 0.000247251200213147
"215" 0.000201877573376126 -1.68737610499469e-05 0.000225499050251444 0.000104412976582684 0.000331008423837596 7.09113953055873e-05 0.000118298190267406 -2.5671858282843e-05 -1.82216830740187e-05 -4.98749675945413e-05 3.23654350948225e-05 0.000354229288163223 8.82315700306373e-05 -0.000229077771017119 6.4965871103537e-06 0.000222355352652807
"216" 0.000197478511931518 -2.16866578549792e-05 0.000220671505896779 0.00010020391942761 0.000317429802762711 7.1057752820396e-05 0.000115124958941557 -3.42552191792012e-05 -2.83099173237142e-05 -5.67283444781606e-05 2.62401841733887e-05 0.000337615310965158 6.7865542033369e-05 -0.000229088057836099 2.92494672285637e-06 0.000196264114991727
"217" 0.000193059613450747 -2.63698888760483e-05 0.000215685982745337 9.60360007222473e-05 0.000303280107035277 7.16462788758674e-05 0.000111838877093904 -4.29532077486481e-05 -3.79472302756128e-05 -6.22669974244628e-05 2.03716964545172e-05 0.000319572147465488 4.63473960470695e-05 -0.000227943150362416 -2.99517561764896e-07 0.000169132318984898
"218" 0.000188620636509421 -3.09111081972765e-05 0.000210560023372541 9.19234202636185e-05 0.000288626910619383 7.26703646604451e-05 0.000108450831318745 -5.17189471224162e-05 -4.70829267552664e-05 -6.64754768807091e-05 1.47672927256474e-05 0.000300178692901707 2.3824628851703e-05 -0.00022565631245368 -3.18270327576838e-06 0.000141128632627498
"219" 0.000184176792748723 -3.52989390837066e-05 0.000205309121740818 8.78880118482168e-05 0.000273544631162117 7.41264801587909e-05 0.000104972122937305 -6.05089545185865e-05 -5.56758479723851e-05 -6.93407380228059e-05 9.43540719350677e-06 0.000279519886917344 4.29372606199127e-07 -0.000222249994388122 -5.73132697548524e-06 0.000112401356517987
"220" 0.000179730543808085 -3.95217042802173e-05 0.000199958593120009 8.39480114242297e-05 0.000258095517942315 7.59980272138213e-05 0.000101416210348853 -6.92797397370793e-05 -6.36815382896811e-05 -7.08537065598418e-05 4.38448209866789e-06 0.000257683128746181 -2.36845317080242e-05 -0.000217743719792315 -7.95102427453661e-06 8.31278619841976e-05
"221" 0.00017528467644704 -4.35760245410494e-05 0.00019452009312743 8.01199524228986e-05 0.000242356580952246 7.82720140247003e-05 9.77917380366587e-05 -7.79892865047465e-05 -7.10602746762026e-05 -7.10132907108253e-05 -3.84696948082276e-07 0.000234746474264176 -4.83931678776756e-05 -0.000212171257726126 -9.85276477505036e-06 5.34514918142863e-05
"222" 0.000170849914126286 -4.74516223215823e-05 0.000189007354188851 7.64226175225456e-05 0.000226381118189253 8.09321811161201e-05 9.41060928186435e-05 -8.66005463574901e-05 -7.77787982435881e-05 -6.98249050385527e-05 -4.86690798106315e-06 0.000210800240990941 -7.35498567951017e-05 -0.000205569414532692 -1.14525685353551e-05 2.35281238705094e-05
"223" 0.000166425294166666 -5.11457983237396e-05 0.000183440465751062 7.28748845788835e-05 0.000210249067735185 8.39552285821699e-05 9.03740566293016e-05 -9.50697227758654e-05 -8.38009567264085e-05 -6.72936975788554e-05 -9.05321953079993e-06 0.000185926914953932 -9.90267175931601e-05 -0.000197969023029809 -1.27530818542784e-05 -6.49261270646864e-06
"224" 0.000162016068639473 -5.46504528897265e-05 0.000177826507979939 6.94906851394624e-05 0.000194003894871302 8.73158261385023e-05 8.65902929681865e-05 -0.000103375596667424 -8.91126702654141e-05 -6.34525013580956e-05 -1.29523596326343e-05 0.000160206436765719 -0.000124692742656944 -0.000189439248324386 -1.378899737502e-05 -3.64686724405026e-05
"225" 0.000157630416632935 -5.79649144569722e-05 0.000172185553544305 6.62931832360783e-05 0.000177723498007133 9.09913209580034e-05 8.27705483021801e-05 -0.000111469837133066 -9.36716617831259e-05 -5.83033866720705e-05 -1.65519727803708e-05 0.000133726669701252 -0.000150427613156816 -0.000180004321202327 -1.45581512249912e-05 -6.62700367798205e-05
"226" 0.000153267450437089 -6.10838069304223e-05 0.000166528099483631 6.32981972543651e-05 0.000161457117660531 9.49498472148314e-05 7.89152071383253e-05 -0.000119328668022908 -9.74745429707964e-05 -5.18866386920754e-05 -1.98559123402589e-05 0.000106564033963047 -0.000176114227510126 -0.000169737890818476 -1.50885107001397e-05 -9.57692912558514e-05
"227" 0.000148925167237569 -6.40104677563478e-05 0.000160859671703703 6.0513140670226e-05 0.000145260556092217 9.91531739470479e-05 7.50250584129498e-05 -0.000126926928492976 -0.000100500830016645 -4.42363994754343e-05 -2.28656541957286e-05 7.88017677770628e-05 -0.00020164483073127 -0.000158689262043446 -1.53971194476535e-05 -0.000124849379789508
"228" 0.000144610004161362 -6.67411013623384e-05 0.000155196219566403 5.79573671235128e-05 0.000129188550984398 0.000103569205533818 7.11041542107201e-05 -0.000134234683532144 -0.000102744248379465 -3.53914674400584e-05 -2.55822836442313e-05 5.05167018958759e-05 -0.000226919252523396 -0.000146926905085336 -1.55056169108583e-05 -0.000153403922746942
"229" 0.00014032280177909 -6.92807572282506e-05 0.00014954369967427 5.56431699413804e-05 0.000113287221605785 0.000108160448344949 6.71529598757527e-05 -0.000141232164995626 -0.000104199411494644 -2.5396556270843e-05 -2.80033526213557e-05 2.17859577626026e-05 -0.000251838176817946 -0.000134518882373049 -1.5436188719892e-05 -0.000181333252030101
"230" 0.000136062996456245 -7.16233774754343e-05 0.000143913398726386 5.35831400667971e-05 9.7608991736559e-05 0.000112883812324774 6.31682009261702e-05 -0.000147896550949352 -0.000104862658086244 -1.43010286760978e-05 -3.01303678287657e-05 -7.30774368901263e-06 -0.000276314841388201 -0.000121527363344554 -1.52064125561177e-05 -0.000208548621061136
"231" 0.000131826145090841 -7.37767345557138e-05 0.000138308903455942 5.17838369804416e-05 8.21791742112611e-05 0.000117699256772204 5.91492421116917e-05 -0.000154216651099273 -0.000104750444387073 -2.17056652963464e-06 -3.19719573626509e-05 -3.66945731716666e-05 -0.000300279990884487 -0.000108039207075354 -1.48495133324345e-05 -0.000234975341000655
"232" 0.000127618168699094 -7.5741895237858e-05 0.000132745782735947 5.02564246679468e-05 6.70542651523885e-05 0.000122562859480422 5.50944329232431e-05 -0.000160170054569814 -0.000103859229611098 1.09454614338293e-05 -3.35216326379253e-05 -6.62923063664546e-05 -0.000323649936660338 -9.4107016588998e-05 -1.43703226684649e-05 -0.000260540719837692
"233" 0.000123425964239991 -7.75252857678686e-05 0.000127215397954976 4.89996932578876e-05 5.225168585664e-05 0.000127425599288536 5.099591533689e-05 -0.000165750835435927 -0.000102219206151084 2.4964772534304e-05 -3.47929854784891e-05 -9.60376799784898e-05 -0.000346380851163297 -7.98270857369004e-05 -1.38097927807259e-05 -0.000285198205476904
"234" 0.000119258525396546 -7.9125595013381e-05 0.000121739033304374 4.80326815051096e-05 3.7818073513628e-05 0.000132248675834782 4.68564461922759e-05 -0.000170941342095405 -9.98378048050266e-05 3.98299578893595e-05 -3.57781784259552e-05 -0.000125847873240446 -0.000368406741690345 -6.52694788232578e-05 -1.31806190362445e-05 -0.00030889344657102
"235" 0.000115104509477337 -8.05487159771739e-05 0.000116307944246703 4.73414156069024e-05 2.37661119903091e-05 0.000136979627568199 4.2661343883582e-05 -0.00017574341583049 -9.6749388149165e-05 5.54564471521512e-05 -3.649142330869e-05 -0.000155653598475606 -0.000389681651762799 -5.05152771269042e-05 -1.2512046717738e-05 -0.000331585002104391
"236" 0.000110964905527618 -8.17982959664088e-05 0.000110936131960241 4.69391885701804e-05 1.01276496215329e-05 0.000141574834790563 3.84135534372674e-05 -0.00018014496774522 -9.29736866685139e-05 7.17688820622164e-05 -3.692994205088e-05 -0.000185380742675649 -0.000410171933676999 -3.56342134967387e-05 -1.18140013968165e-05 -0.000353250175303931
"237" 0.000106836411854265 -8.2879561815486e-05 0.000105629043462394 4.68218015973755e-05 -3.07910132564356e-06 0.000145987541681016 3.41041928742463e-05 -0.000184143813631423 -8.85530229945359e-05 8.86835158366332e-05 -3.71025072381034e-05 -0.000214961731861747 -0.000429842139223638 -2.07165197101917e-05 -1.11180856105982e-05 -0.000373865822507535
"238" 0.000102706183989549 -8.38027182269344e-05 0.000100375527385131 4.69785901719567e-05 -1.5854668159433e-05 0.000150172326263301 2.97193942736367e-05 -0.000187745492835904 -8.35311298885691e-05 0.000106102662214119 -3.70190790362324e-05 -0.000244331175406449 -0.000448682458934578 -5.84733045882693e-06 -1.0456068913104e-05 -0.000393430809628106
"239" 9.85811969476499e-05 -8.45626793926029e-05 9.5196418264108e-05 4.74201342017318e-05 -2.81653473374328e-05 0.000154089348023813 2.52653050803696e-05 -0.000190938242779102 -7.79314028043937e-05 0.000123953746743401 -3.66754465523462e-05 -0.000273405752787618 -0.000466657094196598 8.9178345715121e-06 -9.82174692051748e-06 -0.000411931066153505
"240" 9.44457191576013e-05 -8.5171763332929e-05 9.00818246617578e-05 4.81231224673504e-05 -4.00217869132132e-05 0.000157689209889253 2.07242001236574e-05 -0.000193738614480099 -7.18216551732765e-05 0.000142126989248769 -3.60899589022452e-05 -0.000302129069959362 -0.000483768340609757 2.34739003484148e-05 -9.26519198650336e-06 -0.00042937837151255
"241" 9.03037274063647e-05 -8.56300779081574e-05 8.50426126277433e-05 4.90910908900895e-05 -5.14046433631173e-05 0.000160940829822659 1.60992149023079e-05 -0.000196136787806093 -6.5232918458057e-05 0.000160544111973384 -3.52607587489712e-05 -0.000330423062255218 -0.000500000484115733 3.77717985280058e-05 -8.78071638905645e-06 -0.000445778281512437
"242" 8.61371943489071e-05 -8.59531276819774e-05 8.00696216822954e-05 5.03013267458189e-05 -6.23346066954238e-05 0.000163798659472946 1.13721068842288e-05 -0.000198151791201213 -5.82377937816972e-05 0.000179089722661039 -3.42064548906602e-05 -0.000358234399085432 -0.000515368846817684 5.17153065151705e-05 -8.40720166004806e-06 -0.000461158172345751
"243" 8.19500095621359e-05 -8.61335003284904e-05 7.51752287861427e-05 5.1752279831089e-05 -7.27984260812544e-05 0.000166232483401359 6.54684405192e-06 -0.000199783698132564 -5.08798424388474e-05 0.000197679916642724 -3.29300323618948e-05 -0.000385483357595791 -0.000529854478744626 6.52409192816848e-05 -8.14976685664821e-06 -0.00047552721913513
"244" 7.77376111754302e-05 -8.61832264119215e-05 7.03607990368812e-05 5.34281045327018e-05 -8.27992960289886e-05 0.000168213560919152 1.61924033198488e-06 -0.000201033302142583 -4.32145578330719e-05 0.000216217211234862 -3.1437322692722e-05 -0.000412106897449562 -0.000543479343575264 7.82879715201606e-05 -8.02282481092842e-06 -0.000488919188302014
"245" 7.34926388749047e-05 -8.61021036987187e-05 6.56303271503542e-05 5.53125118146823e-05 -9.23553193309085e-05 0.000169713528912037 -3.41746748560479e-06 -0.000201920547114061 -3.53072033412068e-05 0.000234600608616767 -2.9742326829478e-05 -0.000438039346640672 -0.000556247393844147 9.07812562502614e-05 -8.04916276671258e-06 -0.000501364260734561
"246" 6.92047316442706e-05 -8.59020617930826e-05 6.09738009313619e-05 5.73830631329995e-05 -0.000101484481193666 0.000170704225888428 -8.57510708835813e-06 -0.000202455601057088 -2.72280824109665e-05 0.00025272443138717 -2.78633135887666e-05 -0.000463223655412212 -0.000568176632761143 0.000102656911229797 -8.24487894299279e-06 -0.000512895696742937
"247" 6.48798685160494e-05 -8.55803770489081e-05 5.64080780971955e-05 5.96333027266346e-05 -0.000110177070270085 0.000171175643507092 -1.38386825965982e-05 -0.000202636881513983 -1.9022738523e-05 0.00027050926698475 -2.58005554757927e-05 -0.000487581937304696 -0.000579267581312716 0.00011386676202843 -8.60915761230066e-06 -0.000523540944824244
"248" 6.05093541727006e-05 -8.51434903028358e-05 5.19296757051854e-05 6.20367937864481e-05 -0.000118470150239812 0.000171109712975717 -1.92232843994438e-05 -0.000202485821943775 -1.07676774936574e-05 0.000287850480165944 -2.35712400186869e-05 -0.00051106338882467 -0.000589543709124232 0.000124346930471777 -9.16284074980922e-06 -0.000533339975330814
"249" 5.60857822159469e-05 -8.45999859208187e-05 4.75395709146763e-05 6.45740736418903e-05 -0.000126370214233076 0.000170494459502384 -2.47234015298562e-05 -0.0002020093789834 -2.52744545165006e-06 0.000304653620086523 -2.11933840046582e-05 -0.0005336060759305 -0.000599022911369712 0.000134050637737477 -9.91839476774883e-06 -0.0005423365798706
"250" 5.16107049495852e-05 -8.39503757009209e-05 4.3242348146573e-05 6.722306335195e-05 -0.000133898589327337 0.000169328341982677 -3.03373852588116e-05 -0.000201219619157565 5.64229253586758e-06 0.00032083531398316 -1.86741412564957e-05 -0.000555146699913575 -0.000607716033033532 0.000142934793748479 -1.08737143202059e-05 -0.000550559357717116
"251" 4.70765719086123e-05 -8.3198136734066e-05 3.90373763205622e-05 6.99624250329023e-05 -0.000141082172742202 0.000167608661198172 -3.60693252431469e-05 -0.00020013324333036 1.36649599821044e-05 0.000336300584629856 -1.60366634811733e-05 -0.000575630810569702 -0.000615639486940766 0.000150942119376099 -1.20544985710979e-05 -0.000558046343498511
"252" 4.2494877261984e-05 -8.23475608646699e-05 3.4935458147771e-05 7.27782083741744e-05 -0.000147928914945692 0.000165347267807969 -4.19015214076807e-05 -0.000198753718001422 2.14937843341597e-05 0.000350980771778159 -1.32863829022649e-05 -0.000594990883598378 -0.000622794552002206 0.000158062124056171 -1.34435648742182e-05 -0.000564825842898734
"253" 3.78493311551314e-05 -8.14054371469206e-05 3.09289269745031e-05 7.56343196074333e-05 -0.000154473309137834 0.000162547120949877 -4.78436863002291e-05 -0.000197101914361641 2.90521470951088e-05 0.000364781915260901 -1.04471233529948e-05 -0.000613188194679103 -0.00062921117851058 0.000164238072032523 -1.50643758416218e-05 -0.000570936257996674
"254" 3.31475528208924e-05 -8.03749548666158e-05 2.70231499069197e-05 7.85159195026266e-05 -0.000160736481180569 0.000159226448458203 -5.38791814411989e-05 -0.000195186781232579 3.6289689223517e-05 0.00037763695814278 -7.53390155954423e-06 -0.000630161170908358 -0.00063489269343663 0.000169456877783834 -1.69132888137272e-05 -0.000576407904429617
"255" 2.83872028761497e-05 -7.92594675991875e-05 2.32243978120627e-05 8.13985446025533e-05 -0.000166734081157981 0.000155405546540955 -6.00042567254608e-05 -0.000193018199609869 4.31472969167339e-05 0.000389476786438525 -4.56195277150775e-06 -0.000645863168002524 -0.00063984366041518 0.000173693905796527 -1.89895114088748e-05 -0.000581260625247565
"256" 2.35796601412882e-05 -7.80611148317532e-05 1.9533161276052e-05 8.42628140192135e-05 -0.000172487187450245 0.000151110892809732 -6.62042638100838e-05 -0.000190608606294744 4.95739971992508e-05 0.000400243028287135 -1.54601841365436e-06 -0.000660240021588411 -0.000644068220030657 0.000176931191659288 -2.12938084470338e-05 -0.000585516165359253
"257" 1.87151971266851e-05 -7.67911954069551e-05 1.59492457394042e-05 8.70792458144005e-05 -0.000178036420762847 0.000146366201819624 -7.24748421020418e-05 -0.000187977688455878 5.55100695244026e-05 0.000409861784613925 1.48865568249646e-06 -0.000673256961534651 -0.000647582259435482 0.000179154334866645 -2.38328785491505e-05 -0.000589205955020696
"258" 1.38106974469134e-05 -7.5447673609806e-05 1.24834182568308e-05 8.98346960684454e-05 -0.000183378575900774 0.000141209803689764 -7.87949164222864e-05 -0.000185123035626777 6.09231101734264e-05 0.000418305949927557 4.53447800423964e-06 -0.00068485731781766 -0.000650367098752623 0.00018036638348237 -2.65906208408318e-05 -0.000592326750766262
"259" 8.85740306900117e-06 -7.40380802234954e-05 9.1254601506918e-06 9.2495717841763e-05 -0.000188553017477585 0.000135673329920574 -8.51630026958905e-05 -0.000182072672797565 6.57517426428539e-05 0.000425505672262516 7.55986918818971e-06 -0.000695016432369745 -0.000652432780281593 0.000180549159742906 -2.95822731091309e-05 -0.000594898600174241
"260" 3.8718136126828e-06 -7.25671471136194e-05 5.88376045396039e-06 9.50513589198955e-05 -0.000193567614152425 0.000129800484703003 -9.15480502255368e-05 -0.000178821768161576 6.99719283372992e-05 0.000431444364940574 1.05603738324128e-05 -0.000703691214339013 -0.000653771930791864 0.000179730387382551 -3.2777403941817e-05 -0.00059692903674684
"261" -1.14095333217439e-06 -7.10395729585005e-05 2.76678228301434e-06 9.74802441676286e-05 -0.000198442436800645 0.000123634415743413 -9.79418890111791e-05 -0.000175392008796931 7.35413122528622e-05 0.000436079557589428 1.35150782583235e-05 -0.000710847016245527 -0.000654370720047559 0.000177899890868586 -3.61866464132633e-05 -0.000598410263284014
"262" -6.17626007032594e-06 -6.9463276130478e-05 -2.35503313864049e-07 9.9758319663355e-05 -0.000203200829959232 0.000117215915095262 -0.000104327848780835 -0.000171790517725455 7.64288058810516e-05 0.000439386867764924 1.64009474587655e-05 -0.000716465124841162 -0.000654227810570577 0.000175074560719415 -3.97990645651654e-05 -0.000599351643160231
"263" -1.12190646692807e-05 -6.78400467257651e-05 -3.11383318641272e-06 0.000101876367534768 -0.000207845731937359 0.000110598983618654 -0.000110680049631772 -0.000168023207120307 7.86210541401017e-05 0.000441362328654063 1.92142725715846e-05 -0.0007205024255385 -0.000653316349572976 0.000171289156719352 -4.3589524115177e-05 -0.000599731023181307
"264" -1.62659235324299e-05 -6.61776854016839e-05 -5.86876928507171e-06 0.000103809791548955 -0.000212398298097012 0.000103827750126513 -0.000116986366161998 -0.000164107500270524 8.00798440053321e-05 0.000441978542278551 2.19231848052144e-05 -0.000722959096314736 -0.000651631990666182 0.000166543375048799 -4.75681220700024e-05 -0.000599548177251645
"265" -2.13043654921847e-05 -6.44854340098705e-05 -8.50340477761699e-06 0.000105545427794324 -0.000216863820885341 9.69525585425987e-05 -0.000123219267434216 -0.000160046389695119 8.08052236912092e-05 0.000441246011864518 2.45256074003993e-05 -0.000723805426540705 -0.00064915076921007 0.000160882446161695 -5.17043787620862e-05 -0.000598781769619892
"266" -2.63183955761383e-05 -6.2764294416668e-05 -1.10115547360515e-05 0.00010707292698499 -0.00022125316287045 9.00259212649048e-05 -0.000129363627888137 -0.000155853406007557 8.0781758804334e-05 0.000439164507922482 2.70035677199305e-05 -0.000723032078736777 -0.000645850261291812 0.000154330679536107 -5.59925551989691e-05 -0.000597409967042971
"267" -3.13011985035757e-05 -6.10261788915456e-05 -1.3393528083911e-05 0.000108375241663947 -0.000225571066447948 8.30985594307127e-05 -0.000135391668807989 -0.000151534140487499 8.00048088920258e-05 0.000435749554748458 2.93420794356718e-05 -0.000720634023680709 -0.000641712831841252 0.000146925788788734 -6.04101000504196e-05 -0.00059541267917928
"268" -3.62358540948667e-05 -5.92740455067225e-05 -1.56569961619895e-05 0.00010944447524721 -0.000229827262719544 7.62191019684419e-05 -0.000141287964482634 -0.000147101646090189 7.84756077346399e-05 0.00043101455703832 3.15292144053779e-05 -0.000716607160454363 -0.000636715804277631 0.000138707491211743 -6.49434379000147e-05 -0.00059276323774087
"269" -4.1109588900565e-05 -5.75187204482924e-05 -1.77925929192612e-05 0.000110271286455177 -0.000234010521931432 6.94375805792787e-05 -0.00014701909784222 -0.000142556691329384 7.62083275354471e-05 0.00042499837171547 3.35616834145826e-05 -0.000710951451648837 -0.000630832501581909 0.000129730973402692 -6.9566204621523e-05 -0.000589434570456794
"270" -4.59066462586742e-05 -5.57641850510279e-05 -1.98071310874818e-05 0.000110848770684069 -0.000238124569699845 6.28034672931043e-05 -0.000152569659057843 -0.00013791393400639 7.32134527917161e-05 0.000417725967810126 3.54261340494704e-05 -0.000703671451397229 -0.000624037330401223 0.000120036939555004 -7.42593376208754e-05 -0.000585387198133652
"271" -5.06160973278792e-05 -5.40220760845209e-05 -2.17000422604534e-05 0.000111168265462121 -0.000242168550952156 5.63597890909966e-05 -0.000157914179493603 -0.00013317742847743 6.95018196238871e-05 0.00040923532109629 3.71132782514473e-05 -0.000694785832051695 -0.000616309503238489 0.000109676572261929 -7.90057561688512e-05 -0.00058059690828904
"272" -5.52152116836369e-05 -5.22922773393763e-05 -2.3469511178327e-05 0.000111231906123984 -0.000246117282417351 5.01540762678971e-05 -0.000163026141895115 -0.000128349540722879 6.5108488836067e-05 0.000399584923995795 3.8624923188117e-05 -0.000684303407214249 -0.000607616899078568 9.87113780175569e-05 -8.37644382714558e-05 -0.000575017816619839
"273" -5.97012371875732e-05 -5.05910791968358e-05 -2.512348778151e-05 0.00011102626284768 -0.000249993854889843 4.4221318954375e-05 -0.000167892907127582 -0.00012344826844817 6.00506113685311e-05 0.000388809010221916 3.9950249028629e-05 -0.000672254915888765 -0.000597944372799537 8.71913012997707e-05 -8.85283103147153e-05 -0.000568624699974879
"274" -6.40451236758227e-05 -4.89187821698882e-05 -2.66600791757889e-05 0.000110562507261515 -0.000253754421797571 3.86048399095985e-05 -0.000172480285950091 -0.000118469870631066 5.43696590143697e-05 0.000376982540966751 4.10941793862828e-05 -0.000658658838219574 -0.000587267996764385 7.51849208557061e-05 -9.32575202471851e-05 -0.000561381526382108
"275" -6.82368037798686e-05 -4.72866684954001e-05 -2.80797742493562e-05 0.000109838624618076 -0.000257399160403096 3.3336839743031e-05 -0.000176770457491741 -0.000113422894220474 4.81055816429591e-05 0.000364162883482744 4.20559796559781e-05 -0.000643545973182285 -0.000575565254839894 6.27614049063044e-05 -9.79204848811534e-05 -0.000553247079241955
"276" -7.22581827363891e-05 -4.56990982557604e-05 -2.93855024025224e-05 0.000108855814017367 -0.00026090578539357 2.84480513528456e-05 -0.000180741368812063 -0.000108314939047654 4.1295211135215e-05 0.000350418259602443 4.28387603388882e-05 -0.000626957902750604 -0.000562814500215177 4.99806001870597e-05 -0.000102494361945146 -0.000544189695257414
"277" -7.61029347593446e-05 -4.41672675643051e-05 -3.05877268694509e-05 0.000107612730520272 -0.000264266799887475 2.39602676061961e-05 -0.000184378810161185 -0.000103150152429277 3.39884912051228e-05 0.000335819027370067 4.34439067482487e-05 -0.000608939428458325 -0.000549012723071291 3.69055216483166e-05 -0.000106944086661789 -0.000534182363810387
"278" -7.97486442227425e-05 -4.26923486471675e-05 -3.16836865247748e-05 0.000106122873672822 -0.000267452586237746 1.99018690520368e-05 -0.000187657060441462 -9.79369878222971e-05 2.62311084139394e-05 0.000320442179830268 4.38786031627276e-05 -0.000589534232007967 -0.000534144275568368 2.36127531922374e-05 -0.000111245424999904 -0.000523194991671426
"279" -8.31806297680794e-05 -4.12849963217686e-05 -3.26745529775344e-05 0.000104388287308019 -0.000270441252171669 1.62861816561252e-05 -0.00019056069935565 -9.26748625660789e-05 1.8085571644484e-05 0.000304368904526898 4.4154365615333e-05 -0.000568789679329173 -0.000518191623352847 1.01771721070353e-05 -0.000115350545062099 -0.000511191114704668
"280" -8.63861445449196e-05 -3.99474519336748e-05 -3.3563441278165e-05 0.000102422493658457 -0.000273207576041831 1.31273380310006e-05 -0.000193070100626478 -8.73708081254535e-05 9.60550181804785e-06 0.000287688265848575 4.42813619142994e-05 -0.000546765880798063 -0.000501162373583357 -3.33196902132264e-06 -0.00011922955962166 -0.000498157125570569
"281" -8.93540289391998e-05 -3.86868502230399e-05 -3.43573979927019e-05 0.000100231523686464 -0.000275733110625145 1.04338666127775e-05 -0.0001951747221284 -8.2031260404218e-05 8.50681064712489e-07 0.000270477229245516 4.42724267528239e-05 -0.00052352007483713 -0.000483045391165408 -1.68469473626717e-05 -0.000122857701648881 -0.000484068578623268
"282" -9.20660809533459e-05 -3.75046599533024e-05 -3.50541739546905e-05 9.78293555740968e-05 -0.000277977160746565 8.20889285578631e-06 -0.000196854381041776 -7.66543997966958e-05 -8.1097864374732e-06 0.000252836582373382 4.41441096524273e-05 -0.000499117280095075 -0.000463850073455284 -3.02779436390366e-05 -0.000126186047264537 -0.000468907764744411
"283" -9.4515988960264e-05 -3.64075890647878e-05 -3.56661639942042e-05 9.52252354323516e-05 -0.000279929466096606 6.4488758014912e-06 -0.00019810625975969 -7.12503467476051e-05 -1.72211275891273e-05 0.000234844499987936 4.3908704570346e-05 -0.00047363059678055 -0.000443596135016089 -4.35675978950423e-05 -0.00012918980368312 -0.00045267614124484
"284" -9.66912767220635e-05 -3.53968645570084e-05 -3.61864662627252e-05 9.24350203081218e-05 -0.000281554844316989 5.15143996142396e-06 -0.000198910610579126 -6.58183672485595e-05 -2.64109409367945e-05 0.000216597238662273 4.35860343900613e-05 -0.000447129677849024 -0.000422288345040517 -5.66331831663948e-05 -0.000131828638113091 -0.000435357562723123
"285" -9.85809106597628e-05 -3.44789074675919e-05 -3.66255760388554e-05 8.94723383701444e-05 -0.000282826704049974 4.30404554767118e-06 -0.000199262212203246 -6.03627234145247e-05 -3.56103163291839e-05 0.000198188699103097 4.31961351600594e-05 -0.000419688337239221 -0.000399954218883625 -6.9408536520311e-05 -0.00013407216352307 -0.000416963982867349
"286" -0.000100179042519787 -3.36484408460844e-05 -3.69860647763886e-05 8.63490726432888e-05 -0.000283720470831013 3.89158730876266e-06 -0.000199155513634446 -5.48893298421766e-05 -4.47595146510628e-05 0.000179705925648045 4.2758725872139e-05 -0.000391390646344868 -0.000376623693037314 -8.18171189143396e-05 -0.000135887405279834 -0.000397503438355032
"287" -0.000101475440654205 -3.29111628426565e-05 -3.72665388733821e-05 8.30852292714468e-05 -0.000284202680660846 3.89593152371694e-06 -0.000198589519216135 -4.93982144543498e-05 -5.37853836050242e-05 0.000161242718152632 4.22936847230369e-05 -0.00036231439785359 -0.000352319974886675 -9.37900497682822e-05 -0.000137239211551422 -0.000376980460397226
"288" -0.000102466207594303 -3.22649380079403e-05 -3.74710451020981e-05 7.96918383524222e-05 -0.000284249332257866 4.2912402185171e-06 -0.000197553208384749 -4.38892327753496e-05 -6.26179463762629e-05 0.00014289176140826 4.18284845005278e-05 -0.000332547719470706 -0.000327096547538135 -0.000105256745092762 -0.000138095725121808 -0.000355427374574039
"289" -0.000103140766714991 -3.17020521038967e-05 -3.76004701165755e-05 7.61953848062059e-05 -0.000283839404874753 5.05691391883334e-06 -0.000196051030145065 -3.83691054980015e-05 -7.11929152492961e-05 0.000124740520699708 4.13833736358775e-05 -0.000302168802175754 -0.000300987638268155 -0.00011615896544141 -0.000138433029141188 -0.000332869350613314
"290" -0.000103501523906296 -3.12270614603048e-05 -3.76629875133035e-05 7.26040917301613e-05 -0.000282945911323361 6.1578450368364e-06 -0.000194087385160285 -3.28404092702422e-05 -7.94506381826256e-05 0.000106873319309621 4.09787192760337e-05 -0.000271275082251476 -0.000274052433641424 -0.00012642763428615 -0.000138222501930537 -0.000309344890151149
"291" -0.000103544255707251 -3.08352419233084e-05 -3.76550588957759e-05 6.89361232388579e-05 -0.000281545110858301 7.56257404363756e-06 -0.00019166328575815 -2.73020764052943e-05 -8.73213215227114e-05 8.93758174650464e-05 4.06411445967814e-05 -0.000239955416141766 -0.000246351025199822 -0.000136005762369543 -0.00013743634132013 -0.000284900541473492
"292" -0.000103270587062534 -3.05231999473958e-05 -3.75800186675157e-05 6.52106757518797e-05 -0.000279616430268698 9.23370043301047e-06 -0.000188786542947814 -2.17570569759243e-05 -9.47481158237159e-05 7.23295249145546e-05 4.03922765536739e-05 -0.000208296125409875 -0.000217947988095638 -0.000144836792953542 -0.000136054006574624 -0.000259587521488883
"293" -0.000102677579582872 -3.02795335644349e-05 -3.74395865133109e-05 6.14441407357186e-05 -0.000277147404063471 1.11355947152406e-05 -0.000185464251152334 -1.62098495473154e-05 -0.000101671466616397 5.58114085396533e-05 4.02584680464532e-05 -0.000176386484509827 -0.000188907150392014 -0.00015287189607602 -0.000134061180008788 -0.000233461658869636
"294" -0.000101770887014918 -3.01011795380753e-05 -3.72358505647283e-05 5.7655352243381e-05 -0.000274121089217538 1.32282530324844e-05 -0.000181710099744849 -1.06620764225883e-05 -0.000108044953363872 3.98908001117493e-05 4.02525246518669e-05 -0.000144328349696098 -0.000159319032636429 -0.000160063717804612 -0.000131443177313048 -0.000206601023848064
"295" -0.000100551397461625 -2.99800048077391e-05 -3.69666425942586e-05 5.38626554216799e-05 -0.000270525097664502 1.54716805070765e-05 -0.000177535821753248 -5.11569098855317e-06 -0.000113808377094061 2.46423362774395e-05 4.04047894855964e-05 -0.000112196462294273 -0.000129250607648445 -0.000166365799112013 -0.000128185144933981 -0.000179069004211412
"296" -9.90221700098002e-05 -2.99032513813338e-05 -3.66310260126185e-05 5.00799986768503e-05 -0.000266336308401437 1.78222978073668e-05 -0.000172955939041851 4.32269262447099e-07 -0.000118918518090539 1.01290407821519e-05 4.07324120919561e-05 -8.00860093831236e-05 -9.87879152241259e-05 -0.00017174373983382 -0.000124275372627929 -0.000150943759447717
"297" -9.71936148786082e-05 -2.98665753496972e-05 -3.62318390687839e-05 4.63252981984298e-05 -0.000261569905168513 2.02396367329518e-05 -0.000167989868509138 5.96895272878014e-06 -0.000123339543242227 -3.59735366779722e-06 4.12489405624723e-05 -4.80903615800872e-05 -6.80370205066764e-05 -0.000176170723171778 -0.000119723045739037 -0.000122326970571343
"298" -9.50737944906054e-05 -2.98550472823348e-05 -3.57693557985757e-05 4.26140364744823e-05 -0.000256206674232022 2.26792020756129e-05 -0.00016265479067495 1.14991916323326e-05 -0.000127032394970816 -1.64803383012063e-05 4.19732448410437e-05 -1.62883301586901e-05 -3.70778611670025e-05 -0.00017962078140166 -0.000114521623713052 -9.33005234402061e-05
"299" -9.26704785232719e-05 -2.98579289902482e-05 -3.5242563196322e-05 3.89627993554794e-05 -0.000250253396652308 2.51019648874158e-05 -0.000156973993263904 1.701761241069e-05 -0.000129968730858573 -2.84748399724789e-05 4.29158312155583e-05 1.52337852389461e-05 -6.01808544807647e-06 -0.000182070460411787 -0.00010868113787924 -6.39720121682042e-05
"300" -8.99980702097247e-05 -2.98640735557156e-05 -3.46552659110582e-05 3.53800377523031e-05 -0.000243718908162229 2.74610055234073e-05 -0.000150974100445445 2.2518897552539e-05 -0.000132121247362559 -3.95445732839479e-05 4.40899943651586e-05 4.63953261043959e-05 2.50480767662925e-05 -0.000183509199115333 -0.00010221158499523 -3.44396645729231e-05
"301" -8.70584893613828e-05 -2.98580392922212e-05 -3.39928536096511e-05 3.1890967742874e-05 -0.000236599115118412 2.97250127718159e-05 -0.000144671429215137 2.80039289137215e-05 -0.000133467992563972 -4.96506270790025e-05 4.5504891223616e-05 7.71273959239901e-05 5.60217366970366e-05 -0.000183927637248026 -9.5125263900743e-05 -4.8095870168365e-06
"302" -8.38782100592555e-05 -2.98325244547623e-05 -3.32651522593347e-05 2.84972792909409e-05 -0.000228911349264899 3.1845909558064e-05 -0.000138096712335314 3.34668235491792e-05 -0.000133998540713195 -5.87699715836469e-05 4.71664665999544e-05 0.000107350954810394 8.67969007818595e-05 -0.000183323190101362 -8.74455054301397e-05 2.48097790081464e-05
"303" -8.0457671277361e-05 -2.97655820417032e-05 -3.24723112936147e-05 2.52202751917897e-05 -0.000220669567530222 3.37979210707898e-05 -0.000131279757903533 3.89023403647572e-05 -0.000133707087207563 -6.68830384257813e-05 4.90775639323106e-05 0.000136997698020747 0.000117266846180295 -0.000181712741279671 -7.91987595654835e-05 5.42954924483438e-05
"304" -7.6824292909739e-05 -2.96494468903344e-05 -3.16086676724915e-05 2.20624963319665e-05 -0.000211898131840802 3.55376469356191e-05 -0.000124252208913419 4.430452797315e-05 -0.0001325961236763 -7.39843735410443e-05 5.12336571526565e-05 0.000166001133651124 0.000147335289728556 -0.000179106062690514 -7.04237394115195e-05 8.35438653663826e-05
"305" -7.29876253513503e-05 -2.94654528014142e-05 -3.06704488360588e-05 1.90396993089872e-05 -0.000202613621744588 3.70393398541343e-05 -0.000117039994554385 4.96692698112919e-05 -0.000130664822264609 -8.00642978842687e-05 5.36347692464565e-05 0.000194309791130692 0.000176899856758779 -0.000175519789271546 -6.11465950941386e-05 0.000112437966662113
"306" -6.89687681763227e-05 -2.92078609408482e-05 -2.96681967664128e-05 1.61555897110172e-05 -0.000192847403668947 3.82696387283627e-05 -0.000109675141946392 5.49877893769379e-05 -0.000127930235533502 -8.51323897027056e-05 5.62704014471635e-05 0.00022185520645021 0.000205849745589269 -0.000170987597623197 -5.14172317962212e-05 0.000140854338472427
"307" -6.47811248446439e-05 -2.8853041677858e-05 -2.85922263135356e-05 1.34237368313871e-05 -0.000182628961471994 3.92093293076117e-05 -0.000102194266378171 6.02548492059226e-05 -0.000124409786785033 -8.91929322599094e-05 5.91331757633241e-05 0.00024860500226897 0.000234112654022322 -0.000165537595051317 -4.12778848833278e-05 0.00016869845298237
"308" -6.04472487401127e-05 -2.83937929779702e-05 -2.74424827356437e-05 1.08467993726819e-05 -0.000171986047660856 3.98316442130068e-05 -9.46243142423061e-05 6.54647933214355e-05 -0.000120124867685298 -9.22651932559217e-05 6.2210607453082e-05 0.000274504058309976 0.000261579888372801 -0.000159208382298648 -3.07756251017152e-05 0.000195848743421904
"309" -5.59851741012766e-05 -2.78153218332114e-05 -2.62172943876934e-05 8.43293638517084e-06 -0.000160956784733915 4.01198789260442e-05 -8.70001008140061e-05 7.0608465453228e-05 -0.000115106000961205 -9.43765883442797e-05 6.54853063308172e-05 0.000299522603494913 0.000288173659061293 -0.00015204061345749 -1.99666732885188e-05 0.000222204721730688
"310" -5.14168772764734e-05 -2.7108771943483e-05 -2.49232384505556e-05 6.17914862154681e-06 -0.000149589121773385 4.00564815174389e-05 -7.93617476154668e-05 7.56746171402609e-05 -0.000109394619601032 -9.55642828142176e-05 6.89327947121426e-05 0.000323614877290065 0.000313806760725894 -0.000144102123006281 -8.91414742635224e-06 0.000247663222499907
"311" -4.67618818857367e-05 -2.62608126489072e-05 -2.35618537701941e-05 4.09388727457345e-06 -0.000137923821182531 3.96299475033895e-05 -7.17369603080474e-05 8.06523070317331e-05 -0.000103029196916811 -9.58617996157997e-05 7.25331356160838e-05 0.000346765510662895 0.000338405310015793 -0.00013543842525739 2.32283135039257e-06 0.000272126282388562
"312" -4.20452125158053e-05 -2.52654733347646e-05 -2.21284376707631e-05 2.17109306608976e-06 -0.000126000656549145 3.88318829107658e-05 -6.416314881797e-05 8.55352186675825e-05 -9.60552420422782e-05 -9.53197969839994e-05 7.62580841904109e-05 0.000368946252905131 0.000361902440683439 -0.000126112214231668 1.36773135028289e-05 0.000295513733209098
"313" -3.72770406802658e-05 -2.41065564663055e-05 -2.06273062450534e-05 4.21882541655332e-07 -0.000113867641020442 3.76622338361689e-05 -5.6665532903441e-05 9.03147736090406e-05 -8.8517363346023e-05 -9.39788832953215e-05 8.00851455820443e-05 0.00039014595658689 0.000384244215813192 -0.00011618407837061 2.50863508665797e-05 0.000317740331539615
"314" -3.24946428492993e-05 -2.27872322746401e-05 -1.906227719276e-05 -1.16816707082466e-06 -0.000101581823475699 3.61106967436648e-05 -4.92887719317305e-05 9.49708627970576e-05 -8.0486076613649e-05 -9.19135218817398e-05 8.39740538278917e-05 0.000410345296535828 0.000405367735416758 -0.000105740659495967 3.64719911076092e-05 0.000338732544467432
"315" -2.77038546568408e-05 -2.12920779630068e-05 -1.74339909128585e-05 -2.59116658707705e-06 -8.91823477645206e-05 3.41880596440399e-05 -4.20560328093525e-05 9.94980008357359e-05 -7.20056692578002e-05 -8.91741534713711e-05 8.79010091576476e-05 0.000429546602831175 0.000425242611569717 -9.48393360166445e-05 4.77714959401425e-05 0.000358433647171024
"316" -2.29350728524383e-05 -1.96234313430113e-05 -1.57487046222497e-05 -3.8574816275136e-06 -7.67257249055527e-05 3.18949275429308e-05 -3.49996150067713e-05 0.00010388453712993 -6.31430549833865e-05 -8.58286550247845e-05 9.18255298929677e-05 0.000447743921662263 0.000443827963604238 -8.35635179403882e-05 5.89088548512093e-05 0.000376783928059768
"317" -1.82093182106233e-05 -1.77781895674275e-05 -1.40158480006319e-05 -4.97271887749248e-06 -6.42690936930164e-05 2.92389281423053e-05 -2.81519294170808e-05 0.00010811288424157 -5.39622271077375e-05 -8.19535202246555e-05 9.57108362156585e-05 0.000464941206176414 0.000461091510174621 -7.19892501386307e-05 6.98126976413267e-05 0.000393738891987091
"318" -1.35490778814136e-05 -1.57547741390944e-05 -1.22343692221505e-05 -5.94860933225e-06 -5.18676675083407e-05 2.62304986631645e-05 -2.15431818538456e-05 0.000112169711545967 -4.4536025406629e-05 -7.76289380268812e-05 9.95183598744197e-05 0.000481142074858225 0.000477026830905041 -6.02056640699865e-05 8.04034739844186e-05 0.000409265533707708
"319" -8.97126377945899e-06 -1.35558893718797e-05 -1.04132131506109e-05 -6.78382681986756e-06 -3.95700917902633e-05 2.288733926293e-05 -1.51955535052544e-05 0.000116042693127907 -3.49291165540629e-05 -7.29251214940405e-05 0.000103210780053024 0.000496360729824752 0.000491620743573788 -4.82943688093373e-05 9.06132296702604e-05 0.000423345112349524
"320" -4.49850724095456e-06 -1.11836873462901e-05 -8.55941620348417e-06 -7.4940375358463e-06 -2.74276185017664e-05 1.92209117254977e-05 -9.13760007793654e-06 0.000119719171167362 -2.52074605554793e-05 -6.79221926870722e-05 0.000106750204357204 0.000510612514389986 0.000504879690603132 -3.63272946036596e-05 0.000100379306811036 0.000435960274220979
"321" -1.49659995567816e-07 -8.64400236998339e-06 -6.6822648515958e-06 -8.08724735096917e-06 -1.55026853969089e-05 1.5253014498429e-05 -3.39506201477639e-06 0.000123178969185126 -1.54500718506794e-05 -6.27134214940531e-05 0.000110094567730216 0.000523909714853905 0.000516806079524466 -2.44060462936201e-05 0.000109616745563665 0.000447106843370539
"322" 4.05665982720278e-06 -5.94455467136965e-06 -4.78443934359643e-06 -8.57599602152333e-06 -3.83114733033571e-06 1.10000970671395e-05 2.01680818368525e-06 0.000126417509431818 -5.71768473541363e-06 -5.73689700153105e-05 0.000113208087245311 0.000536278433508209 0.000527433839443969 -1.25950934375967e-05 0.0001182717624477 0.000456803084232289
"323" 8.0965952872669e-06 -3.09758099437586e-06 -2.88934692695311e-06 -8.97747087173106e-06 7.51852167057792e-06 6.48260309691495e-06 7.06850787667804e-06 0.000129409219208422 3.90656717623997e-06 -5.19902841226183e-05 0.000116044799084845 0.000547730551268157 0.000536767209683863 -9.94524693185834e-07 0.00012627517759511 0.000465049889925498
"324" 1.19599563613292e-05 -1.08802884319108e-07 -9.89965859242019e-07 -9.29593471847633e-06 1.85172486340451e-05 1.72402678159711e-06 1.17513127686441e-05 0.000132150619676989 1.33660261703295e-05 -4.66502958267879e-05 0.000118576743687466 0.000558300555987783 0.000544868971233181 1.03258684783025e-05 0.000133566147797762 0.000471896903772403
"325" 1.56238511763513e-05 3.00283298218573e-06 8.86989857992464e-07 -9.55578354391306e-06 2.90990873252544e-05 -3.25226874503446e-06 1.60417113681323e-05 0.00013461940988209 2.25812758442403e-05 -4.14378852573336e-05 0.000120760200386014 0.000568000359456691 0.000551748302790202 2.12813530283524e-05 0.00014009235177438 0.000477351332394921
"326" 1.90697397331489e-05 6.22191517176276e-06 2.73910755322688e-06 -9.76799688534352e-06 3.92283745467059e-05 -8.42399827098141e-06 1.99280264575557e-05 0.000136803832732559 3.14941926126012e-05 -3.64386281931006e-05 0.000122563867902553 0.000576865212655547 0.000557472300186456 3.17978246346345e-05 0.00014579653888513 0.00048147632222807
"327" 2.22929717390652e-05 9.53921114669116e-06 4.558238496739e-06 -9.944798081125e-06 4.88630529859579e-05 -1.37648631805759e-05 2.34016946041806e-05 0.000138692562468191 4.00388652834667e-05 -3.1727430752983e-05 0.000123959046144026 0.000584920455933599 0.000562098472766208 4.18018118776563e-05 0.000150636835528833 0.000484325289702372
"328" 2.52705108589098e-05 1.29263336076562e-05 6.32359528333002e-06 -1.01053794679276e-05 5.79677627035274e-05 -1.92551907535704e-05 2.64511352785492e-05 0.000140272031960909 4.81536923033195e-05 -2.7387993415623e-05 0.000124910268895583 0.000592189374551089 0.000565669348248406 5.1217729517924e-05 0.000154566179445387 0.000485942084077867
"329" 2.79856663938381e-05 1.63598514816385e-05 8.01850563708055e-06 -1.02766584791982e-05 6.64926224549978e-05 -2.48737858744799e-05 2.90634374866501e-05 0.000141526886566716 5.5776246464987e-05 -2.3500877124544e-05 0.000125388478067267 0.000598689461023268 0.000568246298472688 5.99808648109792e-05 0.00015755078506868 0.000486393984685388
"330" 3.04356205612476e-05 1.98294114040042e-05 9.6410797575738e-06 -1.04599418798621e-05 7.44181628757369e-05 -3.05907713225729e-05 3.12448589769308e-05 0.000142451496062264 6.28607357576942e-05 -2.01272780583736e-05 0.000125376837901147 0.00060446134154364 0.000569907373687803 6.80388740482917e-05 0.000159563890258721 0.000485757397517075
"331" 3.26060923505011e-05 2.3306640656128e-05 1.11736625046597e-05 -1.06801993264539e-05 8.17156052994502e-05 -3.6390058349522e-05 3.29886115774845e-05 0.000143033723104587 6.93551940085262e-05 -1.73397115629594e-05 0.000124853059220535 0.000609522669908551 0.000570713614112453 7.53236509335007e-05 0.000160577540973404 0.000484100849266644
"332" 3.4481320482075e-05 2.67619109717425e-05 1.25975915054106e-05 -1.09601853653558e-05 8.83454986340221e-05 -4.22512164018974e-05 3.42852540806251e-05 0.000143258879912348 7.52019682358844e-05 -1.52079483920023e-05 0.000123793673350199 0.000613888955136844 0.000570726526986462 8.17798885815485e-05 0.000160565725622931 0.00048149160838973
"333" 3.60651967831867e-05 3.01775785755242e-05 1.39130955419717e-05 -1.13053979320818e-05 9.43021984664902e-05 -4.8150439984525e-05 3.51497943150953e-05 0.000143130089157324 8.0378027432518e-05 -1.37751361618947e-05 0.000122193071181382 0.000617600642033976 0.00057003134539077 8.73777093187582e-05 0.000159535199675207 0.000478021783432888
"334" 3.73406350999751e-05 3.35201621332282e-05 1.50923897883019e-05 -1.17435288580478e-05 9.95575442002861e-05 -5.40747510330752e-05 3.55769537002939e-05 0.000142629716454276 8.48306107241941e-05 -1.31095738959202e-05 0.000120036150038593 0.000620660951584749 0.000568680371560208 9.20564396504117e-05 0.000157465976528491 0.000473755596328723
"335" 3.83008744272539e-05 3.67610958351294e-05 1.61229297763806e-05 -1.22886596001282e-05 0.000104093746976179 -6.00077918060354e-05 3.55753859060298e-05 0.000141755283321695 8.85331369415133e-05 -1.32508575498464e-05 0.000117316927517162 0.000623096439398911 0.000566745256471829 9.57885538143723e-05 0.000154366610584923 0.000468774926360955
"336" 3.89511176629539e-05 3.98863656311172e-05 1.70085772314028e-05 -1.29525053383543e-05 0.000107916174952953 -6.59311528864558e-05 3.51549418767266e-05 0.000140505698709648 9.14612898827972e-05 -1.42331550485502e-05 0.000114037343213139 0.000624928997163281 0.000564310878011411 9.85514707166759e-05 0.000150246750163578 0.000463169953770549
"337" 3.92813006978725e-05 4.28558354551199e-05 1.77219254853359e-05 -1.37588230963733e-05 0.000111006677287341 -7.18364513716447e-05 3.43223990301755e-05 0.000138880852830862 9.35897999997519e-05 -1.60968910286516e-05 0.000110197984011887 0.000626171166251037 0.000561424977368695 0.000100312290951183 0.000145117613692492 0.000457009440883559
"338" 3.92905004699547e-05 4.56454020610958e-05 1.82578298543e-05 -1.47159017963242e-05 0.000113359211684546 -7.77083501114769e-05 3.30884543747583e-05 0.000136871735968679 9.49017747347165e-05 -1.8868246892256e-05 0.000105805418709524 0.000626837506245752 0.000558149493821445 0.000101058408954902 0.000139002835733978 0.000450366363944723
"339" 3.89771836704826e-05 4.82302410966977e-05 1.86041843869628e-05 -1.58446498444985e-05 0.000114984385557986 -8.35427903449643e-05 3.14684080403446e-05 0.000134486947957886 9.53864097025914e-05 -2.25650739457876e-05 0.000100868929982316 0.000626942398199061 0.000554550894795554 0.000100779906914697 0.00013192987848703 0.000443317572815434
"340" 3.83436842891304e-05 5.05789099003908e-05 1.87485034723968e-05 -1.71540503732045e-05 0.000115879939914332 -8.93284397526851e-05 2.94700651691688e-05 0.000131722534841313 9.50327035902921e-05 -2.72041812351669e-05 9.54003981369355e-05 0.00062649685236777 0.000550681794009157 9.94653783783496e-05 0.000123928531575834 0.000435929303508822
"341" 3.73934093669415e-05 5.26691215494053e-05 1.86891632695776e-05 -1.86585270574202e-05 0.000116060424331615 -9.50632197269916e-05 2.71189857268302e-05 0.00012858949671475 9.38473002354443e-05 -3.27835871706277e-05 8.94244045668277e-05 0.000625514317957254 0.00054660059730907 9.71282025378289e-05 0.000115047719244242 0.000428278199912078
"342" 3.61281617476599e-05 5.44770117735518e-05 1.84087547741387e-05 -2.03672252378634e-05 0.000115537256163744 -0.000100740774366842 2.44250864238431e-05 0.000125089882378357 9.18306842120868e-05 -3.93061536565449e-05 8.2958493297151e-05 0.000624002949104116 0.000542345530006489 9.3775061584291e-05 0.000105328083098588 0.000420415646124581
"343" 3.45509254939878e-05 5.5976186663892e-05 1.79088474731845e-05 -2.2294079852184e-05 0.000114316236873358 -0.000106360939451973 2.14063977777593e-05 0.000121230419295181 8.89881837776218e-05 -4.67627932944682e-05 7.60279078512856e-05 0.000621971640278788 0.000537970399283804 8.94120827034139e-05 9.48156635356806e-05 0.000412406256671575
"344" 3.2672454849334e-05 5.71474575440139e-05 1.71806358251229e-05 -2.4441580123297e-05 0.000112433802701153 -0.000111923240490794 1.80845212400509e-05 0.000117025638001573 8.53387271841728e-05 -5.51329940081746e-05 6.86666398634086e-05 0.000619429531211612 0.000533507570414889 8.4070526615647e-05 8.35742326505065e-05 0.000404305165598002
