"V1" "V2" "V4" "V5" "V7" "V8" "V10" "V11" "V13" "V14" "V15" "V17" "V18" "V20" "V21" "V23"
"1" 0.000280123409279549 0.000392681965299449 0.000542470659650223 0.000154905438385422 -0.000661069017730878 -0.000280902750884338 -0.000207846475489029 -0.000580498503087594 -0.000140422315748763 -3.0653417206658e-05 -5.12949041600876e-05 9.05434949591524e-05 0.000132891758199945 0.000470768822491148 0.000545970032526804 0.000107991082140045
"2" 0.000282982234497767 0.000384790882200096 0.000552069835788217 0.000161297916866886 -0.00065575231048088 -0.000301434675109523 -0.000207364284692764 -0.000577207180015305 -0.000154154992371249 -4.59376757632792e-05 -6.11454641105484e-05 5.71007965614561e-05 0.000102192248205133 0.000468777640134318 0.000519037527753282 8.11635177458423e-05
"3" 0.000284767718820885 0.00037493688416604 0.000560542993600055 0.000166749939156311 -0.000646534307327841 -0.000322435765654255 -0.000207451270758465 -0.000575093873736193 -0.000167170652868676 -6.21283305742761e-05 -7.16583786019849e-05 1.97083959889432e-05 6.93145953047595e-05 0.000466872351444591 0.000491056850179252 5.33208871491821e-05
"4" 0.000285421487142211 0.000363072723853704 0.000567720981737918 0.00017115719698332 -0.000633560089848646 -0.000343824811959323 -0.000208131747882975 -0.00057419830615573 -0.000179434554075793 -7.91930050359605e-05 -8.28203455152942e-05 -2.15009036152058e-05 3.44104450501905e-05 0.000465070868138764 0.00046223507341534 2.47017477516655e-05
"5" 0.00028489141628021 0.000349165219323514 0.000573455809098738 0.000174433501965131 -0.000617029719714617 -0.000365527457708882 -0.000209425932647562 -0.000574556278874108 -0.000190912312762548 -9.70860500563511e-05 -9.46143295384324e-05 -6.63497917510799e-05 -2.35147325191056e-06 0.000463392474637942 0.00043278531579152 -4.4595418321596e-06
"6" 0.000283116804028473 0.000333193613907515 0.000577602863040363 0.000176485051780345 -0.000597152504112435 -0.000387467760176583 -0.000211354932057541 -0.0005761865546643 -0.000201580100234068 -0.000115750567196524 -0.000107016316904014 -0.000114606781417902 -4.07802865816442e-05 0.000461849406509689 0.000402913894517649 -3.39209376625207e-05
"7" 0.000280064965215729 0.000315158153106218 0.000580024888047073 0.000177239297210206 -0.000574179614790934 -0.000409565364954735 -0.000213902989937329 -0.000579087145134259 -0.000211436196559966 -0.000135147517046032 -0.000120010466666506 -0.000166006479485851 -8.06657841623199e-05 0.000460442868411843 0.000372821927837785 -6.34416921502538e-05
"8" 0.000275721874407504 0.000295077543116825 0.000580622270610857 0.000176635067735949 -0.000548345031756471 -0.000431735171338294 -0.000217075011477407 -0.000583247107066021 -0.000220460635063732 -0.000155199437260506 -0.000133566087057168 -0.000220245401535075 -0.000121789112430592 0.000459179833411084 0.000342704172258096 -9.28006931601342e-05
"9" 0.000270082289944023 0.000272991801679234 0.000579297420717197 0.000174622965115392 -0.000519927622164999 -0.000453892011896554 -0.000220846438416577 -0.00058863384187393 -0.000228668148077456 -0.000175851072208653 -0.000147656196581352 -0.000276985085646449 -0.000163915552249706 0.000458053838084676 0.000312741667471454 -0.000121773999022235
"10" 0.000263157524283113 0.000248960657112152 0.000575981697838576 0.000171166216590239 -0.000489211611717777 -0.000475946070347455 -0.000225188519401297 -0.000595199326836618 -0.000236060052067818 -0.000197024734506771 -0.000162249558949911 -0.00033585410746854 -0.000206803390778773 0.000457055403814616 0.000283113301534749 -0.000150153292685859
"11" 0.00025496081868546 0.000223058232488482 0.000570621965765978 0.000166236166951026 -0.000456498713365699 -0.000497817134218452 -0.000230065320019213 -0.000602889149778572 -0.000242662001217777 -0.000218645971840511 -0.000177312059401775 -0.000396439594329561 -0.000250190953111997 0.000456165221156423 0.000253980042419648 -0.000177729562413787
"12" 0.000245538269462777 0.000195382529582812 0.00056319420487973 0.000159827537838685 -0.000422097162976308 -0.000519411709549584 -0.000235438786225325 -0.000611625804863128 -0.000248487874944901 -0.000240630013167389 -0.000192807253682179 -0.000458336653078407 -0.000293833780898184 0.000455367782393299 0.00022548391256836 -0.000204330822103818
"13" 0.000234939503297802 0.000166044420615822 0.000553692995698311 0.000151939999909567 -0.000386344722222637 -0.000540645014821412 -0.000241240466513811 -0.000621317689560128 -0.000253582539384952 -0.000262893873362108 -0.000208698068199643 -0.000521094313208232 -0.00033745987796323 0.000454630467962686 0.000197761120908691 -0.000229774208940035
"14" 0.000223234578103048 0.000135176247476516 0.000542140572355654 0.00014259089707463 -0.000349557118415149 -0.000561429004588149 -0.000247416662117305 -0.000631866730298069 -0.000257984659036615 -0.000285351975095732 -0.000224943260796992 -0.000584267509964816 -0.000380814714980653 0.000453924613080829 0.000170929499768865 -0.000253909662348347
"15" 0.000210498527314638 0.000102930535657887 0.000528577044395054 0.000131810789076055 -0.000312078693099427 -0.000581680287107954 -0.000253899181887562 -0.000643155805316358 -0.000261737432691723 -0.000307916549731019 -0.000241503858434295 -0.000647406072800637 -0.000423649526429226 0.000453214543178986 0.000145077252870408 -0.000276604609685719
"16" 0.000196822120226135 6.94654961511748e-05 0.000513072873303626 0.000119638144885049 -0.00027424230409584 -0.000601315261720384 -0.000260607027246105 -0.000655060225577822 -0.000264899050925604 -0.000330495194972137 -0.000258334482663016 -0.000710043952639685 -0.000465703166032693 0.00045245858229655 0.000120296579752527 -0.000297733664498618
"17" 0.000182304678971457 3.49553117593802e-05 0.000495715174172727 0.000106128883108082 -0.000236407434549193 -0.000620258911202251 -0.000267455536043289 -0.000667446912309375 -0.000267529068733325 -0.000352998766575654 -0.00027539187173446 -0.000771735995507479 -0.000506739522451445 0.000451608017812585 9.66393396126495e-05 -0.000317195083059134
"18" 0.000167069707323232 -3.99393962149665e-07 0.000476622910333181 9.13531023692045e-05 -0.000198887799198965 -0.000638426998282399 -0.000274355696328676 -0.000680164649665187 -0.000269693854151398 -0.000375336747901461 -0.000292632874982912 -0.0008320451843805 -0.000546525779361104 0.000450614782684635 7.41526468931275e-05 -0.000334911076861069
"19" 0.000151224153348809 -3.64193580174254e-05 0.000455919982465026 7.53778497286065e-05 -0.000162035209351328 -0.000655759727509782 -0.000281220017765741 -0.000693073445395318 -0.000271462035108852 -0.000397425366671477 -0.000310008708991296 -0.000890541704482122 -0.000584846256334792 0.000449425131982982 5.28611148779395e-05 -0.000350813447977639
"20" 0.000134905028200097 -7.28829106032837e-05 0.000433767393022254 5.82928793756101e-05 -0.000126140272335029 -0.000672182694848854 -0.000287951111863898 -0.000706011580284453 -0.000272902284116115 -0.000419169225129904 -0.000327476270947768 -0.000946820084638112 -0.000621492492586177 0.000447985831376613 3.27738440759884e-05 -0.000364863512075364
"21" 0.000118242214121112 -0.000109583451028285 0.000410330467776954 4.01933206338702e-05 -9.15291399767633e-05 -0.000687640699202089 -0.00029445688324842 -0.000718827700667634 -0.000274097420916041 -0.00044048499640361 -0.000344983866784458 -0.00100049391440743 -0.000656272361164582 0.000446237176546752 1.38777667280277e-05 -0.000377034810905887
"22" 0.00010137289557926 -0.000146303898565902 0.000385801577065971 2.11797132054585e-05 -5.84721285624347e-05 -0.000702074499571446 -0.000300631413710262 -0.000731352348908879 -0.00027511992863357 -0.000461295011901062 -0.000362487404963728 -0.00105120907074218 -0.000689024051034061 0.000444118050805661 -3.85100717151987e-06 -0.000387321379906389
"23" 8.4439037094758e-05 -0.000182823481971333 0.000360376665339786 1.35945646796827e-06 -2.7237461307105e-05 -0.000715442327544979 -0.000306390812993955 -0.000743435316413859 -0.000276042361732025 -0.000481509550994218 -0.00037993723992021 -0.0010986394802154 -0.000719591153384133 0.000441572981661966 -2.04594605760405e-05 -0.000395737503141638
"24" 6.75792608389718e-05 -0.000218930352328402 0.00033426669453554 -1.91505681600906e-05 1.91911037082151e-06 -0.000727705422994521 -0.000311630690366692 -0.000754914806570831 -0.000276951613295758 -0.00050106678659838 -0.000397287984302625 -0.00114248681609284 -0.000747844260024147 0.000438537525042529 -3.60063918417206e-05 -0.00040231250137162
"25" 5.09418732172209e-05 -0.000254400515902518 0.000307699174405621 -4.0230770902791e-05 2.88176164361356e-05 -0.000738825406469458 -0.000316274838789883 -0.000765641768166897 -0.000277911125923829 -0.000519880735950595 -0.00041448708001252 -0.00118249114988311 -0.000773674442657959 0.000434951694442789 -5.05642094015405e-05 -0.000407103235498408
"26" 3.46561175347951e-05 -0.000289029968589228 0.000280894426566283 -6.17686925216495e-05 5.32509087869666e-05 -0.000748783037302247 -0.000320225821182771 -0.000775461568820805 -0.000279003069154034 -0.000537892696772257 -0.000431492523915389 -0.00121842432862714 -0.000796985174954215 0.000430760390334862 -6.42204597150824e-05 -0.000410165866511304
"27" 1.88576893902977e-05 -0.000322611727507268 0.000254081182962542 -8.36379671608799e-05 7.50747189812063e-05 -0.000757562653915019 -0.000323407433646137 -0.000784237384428964 -0.000280292755031523 -0.000555038563911965 -0.000448253371068707 -0.00125008822064768 -0.000817709028394227 0.000425900553663854 -7.70640590093164e-05 -0.000411582207702625
"28" 3.68667557674725e-06 -0.000354946654010452 0.000227497347964481 -0.000105706483047086 9.4175852435781e-05 -0.000765155851579026 -0.000325751666446452 -0.000791841542448945 -0.000281838933211994 -0.000571249787285003 -0.000464721648757027 -0.00127733739729452 -0.000835802322809184 0.000420326345546703 -8.92104705920154e-05 -0.000411458136661524
"29" -1.0751685197892e-05 -0.000385854896395898 0.000201364086529278 -0.00012786541144649 0.000110461064074735 -0.000771564155399953 -0.000327195435070844 -0.000798150781452992 -0.000283705082463661 -0.000586483317541508 -0.000480853227760811 -0.00130004170993187 -0.00085123056332334 0.000413983504710875 -0.00010077220172213 -0.000409894187836004
"30" -2.43353313593913e-05 -0.000415158679851416 0.000175910408603159 -0.000149986659819878 0.000123884829365749 -0.000776798145774754 -0.000327673551455349 -0.000803052839556057 -0.000285944990208751 -0.000600689942108361 -0.000496602739053894 -0.00131812450056888 -0.000863990661654206 0.000406822147418448 -0.00011187086520806 -0.00040701277902362
"31" -3.69609012397755e-05 -0.000442699751907508 0.000151356565171821 -0.000171952929471517 0.000134433687696389 -0.000780876379841728 -0.00032715202085699 -0.000806457866616441 -0.000288603179938237 -0.000613816631641435 -0.000511922121786553 -0.00133153402733574 -0.000874094831286176 0.000398802136914151 -0.000122636905815714 -0.000402953285590343
"32" -4.85295329708642e-05 -0.00046832758506552 0.000127905877151491 -0.000193650684416025 0.000142135454319738 -0.000783821312689724 -0.000325583762585153 -0.000808275774918562 -0.000291716145826504 -0.000625836405185003 -0.000526767519263536 -0.0013402544984412 -0.000881571935363516 0.000389891128274612 -0.000133197873990784 -0.000397853759805965
"33" -5.8965898514702e-05 -0.000491920881864644 0.000105754952088263 -0.000214970245209183 0.000147022268858822 -0.000785674379639651 -0.000322953023342953 -0.000808444837685588 -0.000295316478407943 -0.000636709937727166 -0.000541099684724218 -0.00134430707913004 -0.000886476525187349 0.000380053115528087 -0.000143693102449993 -0.000391868984930814
"34" -6.82006650205608e-05 -0.000513362293906156 8.50890921909339e-05 -0.000235808887019974 0.000149200545494701 -0.000786472748234485 -0.000319246829527203 -0.000806918521981466 -0.000299426449130999 -0.000646408420325558 -0.000554873056422407 -0.00134374364375012 -0.000888873495369028 0.000369260867077073 -0.000154251617004991 -0.000385161655638375
"35" -7.6171567095753e-05 -0.00053255864701695 6.60757816495573e-05 -0.00025606691225079 0.000148767778258094 -0.000786263176781451 -0.000314456011318275 -0.000803650131705498 -0.000304061696715877 -0.00065491215668994 -0.00056805024652287 -0.00133864127006625 -0.000888840718445841 0.00035750453061141 -0.000165006554333454 -0.000377889872217503
"36" -8.28462375650556e-05 -0.00054944112762303 4.88516153334854e-05 -0.000275656975091412 0.000145852729702613 -0.000785113049156097 -0.000308594106810164 -0.000798634657953661 -0.000309223425826326 -0.000662202976402511 -0.00058059080672653 -0.00132910877287114 -0.000886476083389343 0.00034476445211081 -0.000176087119096003 -0.000370222467070055
"37" -8.81859547906582e-05 -0.000563942855598255 3.35560737549881e-05 -0.000294489942021264 0.00014063686095595 -0.000783072911981963 -0.000301688381477366 -0.000791865849876025 -0.000314909077234988 -0.000668267637880854 -0.000592456546090721 -0.00131529025647707 -0.000881894895630521 0.000331042881487493 -0.000187626400835089 -0.000362341214480253
"38" -9.21835881628385e-05 -0.000576034818863887 2.02944833850969e-05 -0.000312496351596885 0.000133297262041298 -0.000780210023071754 -0.00029376484358961 -0.000783359598271268 -0.000321108515964086 -0.000673093287266063 -0.000603612930305347 -0.0012973368889766 -0.000875214924605884 0.000316339942603941 -0.000199734832099152 -0.000354410062255329
"39" -9.48374934343283e-05 -0.000585704034439749 9.14747715589874e-06 -0.000329603639954323 0.000124015643757314 -0.000776605662116085 -0.000284877942376465 -0.000773159732080786 -0.000327794926969163 -0.000676681088738217 -0.000614027442097479 -0.001275442314203 -0.000866568387948969 0.000300665643310276 -0.000212530346279093 -0.000346607165290025
"40" -9.61702768960966e-05 -0.000592950428405496 1.76044119880262e-07 -0.000345763638844307 0.000113018270834438 -0.0007723322798957 -0.000275086011996275 -0.000761315024305346 -0.000334943467371432 -0.000679029420265705 -0.000623665712910519 -0.00124980811898279 -0.000856099422545544 0.000284045184559092 -0.000226115808491044 -0.000339098341455399
"41" -9.61992961506423e-05 -0.000597798871098116 -6.57742589414836e-06 -0.00036091665029519 0.000100517713189212 -0.000767468454483108 -0.00026444605382913 -0.000747890363653251 -0.000342518159888929 -0.000680151449028707 -0.000632505312937897 -0.0012206680141718 -0.000843956055857185 0.000266500041527415 -0.00024059121706107 -0.000332055893861544
"42" -9.49831253163331e-05 -0.000600297119621281 -1.11075403298438e-05 -0.00037502615052714 8.67301938322655e-05 -0.000762097687640828 -0.000253043276312297 -0.000732976989054734 -0.000350477844544337 -0.000680057886731819 -0.000640515211283106 -0.00118826233321488 -0.000830299286160968 0.000248061975487011 -0.000256036748118104 -0.000325634466217581
"43" -9.25695330641139e-05 -0.000600504405501684 -1.34279345120849e-05 -0.000388059229570854 7.18964875549713e-05 -0.000756307516933632 -0.000240971437934797 -0.000716681377886617 -0.00035876168612694 -0.000678756366709504 -0.00064767271578445 -0.00115285334823195 -0.000815284660152858 0.000228779704598696 -0.000272526684676883 -0.000319998337749897
"44" -8.90353177323309e-05 -0.000598499732696103 -1.35678987144193e-05 -0.00039999712917063 5.62476634496028e-05 -0.000750176492248088 -0.000228316086259828 -0.000699106905518223 -0.000367326176522419 -0.000676278822421003 -0.000653959848791646 -0.0011147173256942 -0.00079908288263116 0.000208700306994522 -0.000290124185798883 -0.00031528654005573
"45" -8.44581451724767e-05 -0.000594390735775208 -1.15981534671666e-05 -0.000410819419074298 3.99946089952272e-05 -0.000743795542345947 -0.000215185908667945 -0.000680392143435823 -0.000376106942381386 -0.000672652841981524 -0.000659359253465105 -0.00107414835150898 -0.000781863333463216 0.00018787630066599 -0.00030887690690937 -0.000311641928026122
"46" -7.89356277283795e-05 -0.000588291502023186 -7.6066416863197e-06 -0.000420525888266008 2.33565139136961e-05 -0.000737248604751849 -0.000201693852530332 -0.000660680617601257 -0.000385039644374796 -0.000667905008808151 -0.000663857534386948 -0.00103144258503119 -0.000763789953874335 0.000166376743753476 -0.000328820463323009 -0.000309191739549989
"47" -7.25769050637995e-05 -0.000580336697552227 -1.70275024502801e-06 -0.000429117162387151 6.53539051284395e-06 -0.000730619234486565 -0.000187958231859297 -0.000640129844587678 -0.000394060738014519 -0.000662075966950403 -0.000667446718473605 -0.00098691204119806 -0.000745041971688214 0.000144258770136025 -0.000349973714172107 -0.000308050504730798
"48" -6.5485284053099e-05 -0.000570669533179596 5.9776074293614e-06 -0.000436603596405015 -1.0271732695264e-05 -0.000723982893066791 -0.00017408731655563 -0.000618891134462913 -0.000403102734544398 -0.000655215018479326 -0.000670123165657846 -0.000940876124450956 -0.000725782241707085 0.000121604520473559 -0.000372346420100544 -0.000308315883262286
"49" -5.77907714164353e-05 -0.00055945621922487 1.5278758332468e-05 -0.000443001080890865 -2.68777665784552e-05 -0.000717420779674738 -0.000160220043390922 -0.000597150400070255 -0.000412091851251113 -0.000647363630377084 -0.000671884760037831 -0.000893659170981428 -0.000706183301353117 9.84869126744268e-05 -0.000395932084143102 -0.000310083368972763
"50" -4.96190806255488e-05 -0.000546870968318691 2.60160602904005e-05 -0.000448339562463079 -4.3153398334747e-05 -0.000711007615987021 -0.000146456737679996 -0.000575074428940599 -0.000420975244427052 -0.000638589235906723 -0.000672738256582378 -0.000845582499835741 -0.000686398433508045 7.49884704769016e-05 -0.000420700987735671 -0.000313411092420154
"51" -4.1100844422267e-05 -0.000533094635509587 3.80026002667793e-05 -0.000452647558643419 -5.89137724879182e-05 -0.000704808404795164 -0.000132947524729047 -0.000552857870175381 -0.000429674187502926 -0.000628940062090341 -0.000672690999999731 -0.000796988919602898 -0.000666605524055497 5.12002657746921e-05 -0.000446625029874062 -0.00031837604772319
"52" -3.23798402061593e-05 -0.000518325903025042 5.10148408749124e-05 -0.000455963408639446 -7.40717098149346e-05 -0.000698888961240165 -0.000119791122495514 -0.000530673975429934 -0.000438137506943529 -0.000618497912732771 -0.000671762172254425 -0.000748200847113176 -0.000646945725587124 2.7197823488756e-05 -0.00047365256234668 -0.000325000339439699
"53" -2.35825512613771e-05 -0.000502761211185908 6.48280339672159e-05 -0.000458325940923729 -8.8508001847704e-05 -0.000693301252055637 -0.000107122403009277 -0.000508718801699479 -0.000446306821205184 -0.00060732920165208 -0.000669967874949538 -0.000699549878620388 -0.000627575469296401 3.07812336314152e-06 -0.000501719742016898 -0.000333317328099671
"54" -1.48602734998087e-05 -0.00048661609131874 7.91954864441993e-05 -0.000459790600859727 -0.000102159267160646 -0.000688104754333534 -9.50443472809538e-05 -0.000487177040051324 -0.00045413135257424 -0.000595519019226415 -0.00066733737436961 -0.000651363002305643 -0.000608634258228182 -2.10776733629545e-05 -0.000530747479956121 -0.00034332841256878
"55" -6.34119500010843e-06 -0.000470090410666889 9.38711019540302e-05 -0.000460407948599023 -0.00011494752583189 -0.000683329592923584 -8.36730830935441e-05 -0.000466227367200772 -0.000461566622936387 -0.000583149102673555 -0.000663898992835243 -0.000603952182475829 -0.000590254346845517 -4.51786670684777e-05 -0.000560648497512007 -0.000355021467059166
"56" 1.83728322839288e-06 -0.000453399254524643 0.000108588131644246 -0.000460227388178912 -0.000126864359607293 -0.000679018368168496 -7.31011324453941e-05 -0.00044604661243193 -0.000468577449084862 -0.000570320634262818 -0.00065969245279304 -0.000557640636320126 -0.000572567504351599 -6.91381029880158e-05 -0.000591329018627994 -0.000368370565572016
"57" 9.54493698700017e-06 -0.000436752880094361 0.000123084157009653 -0.000459314574963358 -0.000137876422498384 -0.000675192488916947 -6.34273659268626e-05 -0.000426806091012711 -0.000475133636088403 -0.000557124808333382 -0.000654758142066041 -0.000512715838643582 -0.000555683043862661 -9.28734363851701e-05 -0.000622669295653485 -0.000383326364727245
"58" 1.66661613952689e-05 -0.000420355342089566 0.000137094857980349 -0.000457722382592936 -0.000148013984933839 -0.000671875294698832 -5.47194708569344e-05 -0.00040866050004547 -0.000481220429798217 -0.000543667316439244 -0.000649146808254765 -0.000469475393024636 -0.000539714662039611 -0.000116303251953851 -0.000654555769898401 -0.000399826101471845
"59" 2.30817735998214e-05 -0.000404407616791062 0.000150355390754824 -0.000455520949259675 -0.000157309759613995 -0.000669068712371503 -4.7050945941659e-05 -0.000391759760682556 -0.000486824587223497 -0.000530060125075547 -0.000642910853657751 -0.000428181222130507 -0.00052475084235455 -0.000139350893052132 -0.000686860575675796 -0.000417787822196025
"60" 2.86990929774885e-05 -0.000389106084038199 0.000162606524342123 -0.00045276739830832 -0.000165813360587968 -0.000666777888276232 -4.04835312798752e-05 -0.000376240958232774 -0.000491947873242416 -0.000516412115469054 -0.00063610976293073 -0.000389093230832225 -0.000510881306416009 -0.000161950056294408 -0.000719444710590534 -0.000437120220669715
"61" 3.34161640021799e-05 -0.000374625674167376 0.000173598828151028 -0.000449529573940421 -0.000173601944673485 -0.000664989566912829 -3.50518080558487e-05 -0.000362216395286734 -0.000496605675015029 -0.000502839052672246 -0.000628807430907294 -0.000352443501987352 -0.000498177606471894 -0.00018402837949132 -0.000752172968362819 -0.0004577084435668
"62" 3.71658458261563e-05 -0.000361139483757055 0.000183098589916946 -0.000445867940119909 -0.000180760089659076 -0.000663684675509684 -3.07931355587905e-05 -0.00034979499552138 -0.000500809437159736 -0.000489457941070631 -0.000621071827840814 -0.000318443885094376 -0.000486702643782875 -0.000205536161014818 -0.000784897623610834 -0.000479435377785635
"63" 3.9890200642784e-05 -0.000348802065248258 0.000190884215914274 -0.000441841164162258 -0.000187399564966542 -0.000662836494396132 -2.77081215148685e-05 -0.00033905186493089 -0.000504597566414225 -0.000476392437095448 -0.000612975687298955 -0.000287282804557363 -0.000476507630073436 -0.000226411907779365 -0.000817472283773377 -0.000502158947638455
"64" 4.15358150989391e-05 -0.000337746567147191 0.000196747105030182 -0.000437514104966765 -0.000193653905878063 -0.000662411064183426 -2.580456085104e-05 -0.000330059733768106 -0.000508009745376549 -0.000463760463728656 -0.000604594169984168 -0.000259112038684376 -0.000467620994093051 -0.00024661719095722 -0.000849746093446912 -0.000525729467137939
"65" 4.20854835708484e-05 -0.000328094837514701 0.000200518532590711 -0.000432941912227012 -0.000199642152801074 -0.000662363028519556 -2.50543426185667e-05 -0.000322853148960531 -0.000511096847906526 -0.000451685015959914 -0.00059600870502416 -0.00023407630030979 -0.000460080297395661 -0.000266112497080028 -0.000881575450222928 -0.000549994734354617
"66" 4.15310833741736e-05 -0.000319937201439131 0.000202048334652236 -0.000428176515871624 -0.000205494118825262 -0.000662634058287038 -2.5428933000757e-05 -0.000317452227350585 -0.000513911677544354 -0.000440280374306045 -0.000587297992549499 -0.000212271828089882 -0.000453893465225907 -0.000284866434302973 -0.000912809649211829 -0.000574788164541591
"67" 3.98857592587018e-05 -0.000313348919629342 0.000201208412389489 -0.000423271167620743 -0.000211355056810833 -0.00066316766493516 -2.68842040726164e-05 -0.000313865070957975 -0.000516522344778121 -0.000429656269637036 -0.00057854431239914 -0.000193760874155357 -0.000449056803559306 -0.000302860393629863 -0.000943301144103724 -0.000599933270850912
"68" 3.71760800144869e-05 -0.000308383734704255 0.00019790653979672 -0.000418276251425949 -0.000217375455725096 -0.000663900912963927 -2.93501513184581e-05 -0.000312059812019394 -0.0005190003166519 -0.00041992641592582 -0.000569831739303983 -0.000178595796446553 -0.000445567160963608 -0.00032007582728012 -0.000972914119696201 -0.000625252563456288
"69" 3.34649934484266e-05 -0.000305057553494748 0.000192089265638368 -0.000413230193272305 -0.000223689172519595 -0.000664756410515734 -3.27448619044816e-05 -0.000311987355240753 -0.00052142621556641 -0.000411197305827309 -0.000561245652861403 -0.000166775902964034 -0.000443398056187992 -0.000336507706892063 -0.00100151500162681 -0.000650561960828676
"70" 2.88235810902355e-05 -0.000303373817478846 0.000183733959507174 -0.000408172660184709 -0.000230420413585815 -0.000665658421683811 -3.69905352795812e-05 -0.000313589829218634 -0.000523870752580807 -0.000403555246662816 -0.000552864854416891 -0.00015827036341138 -0.000442518314991394 -0.000352153787827433 -0.00102896871422678 -0.000675686069622163
"71" 2.33432464751421e-05 -0.000303300344010948 0.000172854863025094 -0.000403139882314412 -0.000237693879219633 -0.000666522912973712 -4.19742123008531e-05 -0.000316767883108159 -0.000526421229049614 -0.000397087842372154 -0.000544766960264227 -0.000153019938566763 -0.000442880199391767 -0.000367019787834429 -0.00105515924562685 -0.000700432852507532
"72" 1.71539341918323e-05 -0.000304780922079257 0.000159509050649782 -0.000398149506727002 -0.000245603844873769 -0.000667263176041026 -4.75868943860843e-05 -0.000321412600724851 -0.000529156969907028 -0.000391870598610283 -0.000537034576315801 -0.000150937035403658 -0.000444438322736293 -0.000381111776732958 -0.00107997512730242 -0.000724631660345628
"73" 1.03726226738017e-05 -0.000307740299675402 0.0001437813765418 -0.000393237897479764 -0.000254254145826513 -0.00066779306107278 -5.369770746462e-05 -0.000327395087305889 -0.000532164034949922 -0.000387967531471312 -0.000529734136976478 -0.00015188704472031 -0.000447121802606936 -0.000394454625829248 -0.0011033094108378 -0.000748087522872272
"74" 3.16368583081785e-06 -0.000312066266524045 0.000125805759236439 -0.000388411524826624 -0.000263687868305528 -0.000668023450719728 -6.01849777408445e-05 -0.000334564394148666 -0.000535507185965973 -0.000385420729873987 -0.000522935754318531 -0.000155722612570174 -0.000450865550772732 -0.000407056237651281 -0.00112508066747143 -0.000770640856676941
"75" -4.30578125307441e-06 -0.000317631831258831 0.000105744214794699 -0.000383689055867928 -0.000273949687952881 -0.000667859680165765 -6.6909386950462e-05 -0.000342755358912159 -0.000539269549351588 -0.000384269911480247 -0.000516700495806026 -0.000162254821102663 -0.000455590635601727 -0.000418941794692756 -0.00114519852479991 -0.00079211647038118
"76" -1.18498723363161e-05 -0.000324280585484689 8.3796651600886e-05 -0.000379070929587328 -0.000285054105105947 -0.00066721626170203 -7.3727762528106e-05 -0.000351789361941195 -0.000543507691301264 -0.000384530223430697 -0.000511081416341001 -0.000171269902692612 -0.000461204488560314 -0.000430135329201385 -0.00116359470191984 -0.000812357657877888
"77" -1.92718038587976e-05 -0.000331844525475853 6.01908401260574e-05 -0.000374560843624101 -0.000297000689093515 -0.000666009795254552 -8.04973579669512e-05 -0.000361474464513529 -0.000548281837400258 -0.000386204436636286 -0.000506126848953971 -0.000182531371720795 -0.000467617579773272 -0.00044066303349534 -0.0011802129050582 -0.000831206826504869
"78" -2.63644989633891e-05 -0.000340124836984794 3.51941419681762e-05 -0.000370156642972379 -0.000309708120113635 -0.000664146504171548 -8.70791576431531e-05 -0.000371604256908718 -0.000553637413466807 -0.000389275672494359 -0.000501874475435487 -0.000195778049953745 -0.000474733454524171 -0.000450545579321408 -0.00119500572573005 -0.000848530625507806
"79" -3.29019352372887e-05 -0.000348918804711769 9.09857785825709e-06 -0.000365845113607644 -0.000323113363298323 -0.000661549162707971 -9.33271211924006e-05 -0.000381972052491062 -0.000559607161823068 -0.000393710850787403 -0.000498352328825539 -0.000210734032668042 -0.000482450376921855 -0.000459805145683194 -0.00120793818369877 -0.000864198014561454
"80" -3.86692706464337e-05 -0.000358002613617412 -1.77927187841058e-05 -0.000361617791305147 -0.000337113389814451 -0.00065814684571163 -9.91037961780261e-05 -0.000392363205676144 -0.000566215153222067 -0.000399459124870451 -0.000495581345079471 -0.000227092170494903 -0.000490652302583769 -0.000468466418117304 -0.00121898364273873 -0.000878080693893462
"81" -4.3425863196314e-05 -0.000367139504750277 -4.5134217235345e-05 -0.00035745552236491 -0.000351541314960814 -0.000653860150581565 -0.000104279132247149 -0.00040255285769054 -0.000573466589486519 -0.00040645128677485 -0.000493570041198788 -0.000244557078467333 -0.000499243878283859 -0.000476544233034661 -0.00122813344923663 -0.000890087843652429
"82" -4.69529890979284e-05 -0.000376095135638523 -7.25880736215454e-05 -0.000353336942803098 -0.000366244369326583 -0.000648632887216545 -0.000108730635068974 -0.000412331666417122 -0.000581356458206769 -0.000414598375127994 -0.000492315270221936 -0.000262795894179572 -0.000508101619032279 -0.00048405880986339 -0.00123538733207139 -0.000900119621448358
"83" -4.90151893979303e-05 -0.000384624190502473 -9.97869742064757e-05 -0.000349236319522745 -0.000381012976968851 -0.000642403466015806 -0.000112332259092401 -0.000421471478145729 -0.000589864986299908 -0.000423803287135306 -0.000491808520196555 -0.000281485009564441 -0.000517119961030351 -0.000491014501233181 -0.0012407495892542 -0.000908100508977294
"84" -4.93972239707253e-05 -0.000392479209706528 -0.000126369476577049 -0.000345136239564241 -0.000395617181284269 -0.000635124529398627 -0.000114979541668269 -0.000429760758487179 -0.000598950484252493 -0.000433943864365581 -0.000492027251446294 -0.000300284668542669 -0.000526181842678542 -0.000497420929390759 -0.00124424239931255 -0.000913963012638707
"85" -4.78737340265762e-05 -0.000399417337396671 -0.00015196680935304 -0.000340999502921125 -0.000409808621914363 -0.000626762361194267 -0.000116591568075263 -0.0004370060057584 -0.000608559347038618 -0.000444875256451012 -0.000492937275790209 -0.00031886302883671 -0.000535174251066359 -0.000503280490378716 -0.00124589545705357 -0.00091766946401176
"86" -4.42380871615365e-05 -0.000405197621068506 -0.000176204967698311 -0.000336796063164685 -0.00042330776955387 -0.000617273153572635 -0.000117067398744898 -0.000442995399953763 -0.000618622292654292 -0.000456460913575037 -0.000494496168233126 -0.000336887999247911 -0.00054398488553047 -0.000508590511630783 -0.00124574336916519 -0.000919177951429236
"87" -3.83052681526435e-05 -0.000409593416857496 -0.000198733441598002 -0.000332501602953038 -0.000435830116150553 -0.000606644212222119 -0.000116353718362377 -0.000447557356740714 -0.00062905808785254 -0.000468528083375008 -0.000496649887396514 -0.000354026570679125 -0.000552503179739806 -0.000513341638437356 -0.00124383191176701 -0.000918474197471797
"88" -2.98893717242405e-05 -0.000412384046240543 -0.000219201823589147 -0.000328085712018949 -0.000447070980864937 -0.000594862275508908 -0.000114400395447163 -0.000450516585608245 -0.000639760523876613 -0.000480899615968002 -0.000499335146928363 -0.000369955852270598 -0.000560616858241734 -0.000517517717221844 -0.00124021603520737 -0.000915556585438235
"89" -1.88279207353881e-05 -0.000413358146595179 -0.000237277529239781 -0.000323508114064149 -0.000456740323032073 -0.000581924495649434 -0.000111153895526705 -0.000451715842492916 -0.000650617824142228 -0.000493399466834699 -0.000502482964873047 -0.000384366527913662 -0.000568226974537884 -0.000521098233393052 -0.00123494537591227 -0.000910434214669952
"90" -4.98567067789151e-06 -0.000412330885899059 -0.000252648707928836 -0.000318752082972311 -0.000464497054146174 -0.000567841518206032 -0.000106611419574581 -0.000451018438542015 -0.000661505011933027 -0.000505825901587473 -0.000506011364844226 -0.000396954034475527 -0.000575226669401386 -0.000524066629120354 -0.00122809215820914 -0.000903137237112018
"91" 1.17595363119459e-05 -0.000409133421734238 -0.000265028654633399 -0.000313784691044801 -0.000470050591421521 -0.000552629957487272 -0.0001007624864039 -0.000448309942162561 -0.000672281534903676 -0.000517974665537147 -0.000509833512980772 -0.000407433534623627 -0.000581514818775025 -0.000526382510852801 -0.00121972111285512 -0.000893706237009956
"92" 3.15098848025758e-05 -0.000403607378969569 -0.000274151159981908 -0.00030857512379321 -0.000473079767172273 -0.00053631073549189 -9.36095843491748e-05 -0.000443481217359638 -0.000682799289157818 -0.000529645758410882 -0.00051385618715189 -0.00041553317513818 -0.000587001449837877 -0.00052802292450527 -0.0012099017604159 -0.000882192097487284
"93" 5.43171932106132e-05 -0.000395630148081056 -0.000279793939509072 -0.000303115447236368 -0.000473292826517797 -0.000518930343444627 -8.51965731804488e-05 -0.00043646474508616 -0.000692896755184222 -0.000540618900540267 -0.000517979488322086 -0.000421002242924981 -0.000591593320380295 -0.000528942278990736 -0.0011987139818769 -0.000868668560007374
"94" 8.02450473204689e-05 -0.000385095436300305 -0.000281751684584961 -0.00029736979533044 -0.00047039554538548 -0.000500523976339014 -7.55513787367011e-05 -0.000427192083512253 -0.000702410506108377 -0.000550695968674612 -0.00052210262184844 -0.000423618223312306 -0.000595216837165378 -0.000529103101459004 -0.00118623298104202 -0.000853216591865404
"95" 0.000109292586948801 -0.000371927675196342 -0.000279874595665884 -0.000291333448915097 -0.000464145600508176 -0.000481158004837355 -6.47354550464842e-05 -0.000415637882869594 -0.000711170985708993 -0.00055965838329774 -0.000526117291225675 -0.000423159124822622 -0.000597783838147144 -0.000528462168190281 -0.00117253609607124 -0.000835921718579181
"96" 0.000141453364351695 -0.000356076617549364 -0.0002740370453496 -0.000284986974221252 -0.000454278267639488 -0.000460886600698589 -5.2826180231646e-05 -0.000401790367598886 -0.000719004719234241 -0.0005672978282016 -0.000529915349566515 -0.000419452493260196 -0.000599233529385976 -0.000526968792018685 -0.0011577105784187 -0.000816903152142913
"97" 0.000176665504247819 -0.000337528013390865 -0.000264165610339149 -0.000278332628976189 -0.000440592974808847 -0.00043978807434647 -3.99106784524528e-05 -0.000385668799848674 -0.000725732846065989 -0.000573412357803508 -0.000533386234877386 -0.000412325246447495 -0.000599492692091686 -0.000524581636485585 -0.00114183254082656 -0.000796266074015352
"98" 0.000214872169363008 -0.000316273890310278 -0.000250217934379943 -0.000271357298463007 -0.000422879851837534 -0.00041792661724011 -2.60757484627644e-05 -0.000367297430628968 -0.000731188522948743 -0.000577808705384629 -0.000536422111689547 -0.000401655276646107 -0.000598516257788098 -0.000521242673546759 -0.00112498124179342 -0.000774142815620888
"99" 0.00025595312202595 -0.00029236370124771 -0.000232209362325182 -0.000264065201700376 -0.000400997115232103 -0.000395398152233159 -1.14453641000753e-05 -0.000346751728210444 -0.000735191326870101 -0.000580291008559223 -0.000538915346551532 -0.000387331291257367 -0.000596251952012525 -0.000516913959200996 -0.00110724393199526 -0.000750671144011912
"100" 0.000299766270129639 -0.000265860816328522 -0.000210198523870217 -0.000256459405321973 -0.00037483319729128 -0.000372284794080975 3.87103444188314e-06 -0.000324107215978815 -0.000737578347198452 -0.000580690620907391 -0.000540762152541341 -0.000369282609344966 -0.000592666327796208 -0.000511539137136076 -0.00108869745366408 -0.000725995371443336
"101" 0.00034613752368835 -0.000236866263425086 -0.000184288096416295 -0.000248561571477931 -0.000344297329759847 -0.000348683560826123 1.97430686166095e-05 -0.00029947591589744 -0.000738196971772758 -0.000578840429632866 -0.000541861899577021 -0.000347457674868391 -0.000587728916742081 -0.00050507563903242 -0.0010694236381152 -0.000700266861163923
"102" 0.000394864393404504 -0.000205505726218748 -0.000154625902664007 -0.000240377970761874 -0.000309357247958063 -0.000324689140240528 3.60414979028338e-05 -0.000272984532559942 -0.000736894031335775 -0.000574593904209003 -0.000542119123928068 -0.000321841278526254 -0.000581417485922035 -0.00049747687506852 -0.00104949969533069 -0.000673650602256301
"103" 0.000445719932708207 -0.000171933651690497 -0.000121414662887258 -0.000231936086428044 -0.000270000447286867 -0.000300399285672522 5.26203827206262e-05 -0.000244782892600526 -0.000733537350527422 -0.000567819806798156 -0.00054144949178372 -0.000292453299458417 -0.00057373202539524 -0.000488702646779463 -0.00102900601684531 -0.000646314332453536
"104" 0.000498421754970166 -0.000136351673944458 -8.49072131981091e-05 -0.000223258947532764 -0.000226312347942006 -0.000275923019058646 6.93337716835641e-05 -0.000215051097962968 -0.000727999718106681 -0.000558404693930864 -0.000539769964989757 -0.000259338813409316 -0.000564670413041257 -0.000478719228380794 -0.00100801461246531 -0.000618432263971393
"105" 0.000552699624395873 -9.89594414643204e-05 -4.53896581157908e-05 -0.000214374452064008 -0.000178360266030016 -0.000251354167346452 8.60412318590154e-05 -0.000183977081339388 -0.000720174745316854 -0.000546254310587534 -0.000537010754342872 -0.000222587768019042 -0.00055425347994319 -0.000467493051252728 -0.000986603384755103 -0.000590187675490733
"106" 0.000608212231272063 -6.00152643258093e-05 -3.21043217398534e-06 -0.000205322352394056 -0.000126315745802072 -0.000226804277399846 0.000102593282088393 -0.000151774133446414 -0.000709980476761254 -0.000531301517388349 -0.000533109175135936 -0.000182308298353683 -0.00054250283116784 -0.000454999223617859 -0.000964841409582493 -0.000561759934395639
"107" 0.000664628227598311 -1.9781399482687e-05 4.12475388407844e-05 -0.000196138859071054 -7.03652667477758e-05 -0.000202370995750096 0.000118845272596545 -0.000118665168969057 -0.000697342418315939 -0.000513496669703652 -0.000528018166044879 -0.00013865714199207 -0.00052945969221245 -0.000441216007381318 -0.000942803994040965 -0.000533342027298648
"108" 0.000721576828141505 2.14447765379141e-05 8.75566433787916e-05 -0.000186870379709663 -1.07575226502177e-05 -0.000178154027843717 0.000134651713993733 -8.48975986328218e-05 -0.000682219841081654 -0.000492825336429342 -0.000521699578430229 -9.18187685568906e-05 -0.000515177155358074 -0.000426135711719894 -0.000920564447865151 -0.000505120708618434
"109" 0.000778669377811558 6.33475419222279e-05 0.000135248511274717 -0.000177562113944316 5.22071169118958e-05 -0.000154250191065829 0.000149877096626445 -5.07236570168276e-05 -0.000664591607230961 -0.000469288707145463 -0.000514127597357673 -4.20095219344142e-05 -0.000499715617013045 -0.000409756247860287 -0.000898178786965438 -0.000477288969881412
"110" 0.000835503011000316 0.000105585681029521 0.000183818376817252 -0.000168264295140797 0.000118170130943854 -0.000130755461458158 0.000164396569302397 -1.64074422194434e-05 -0.000644461069676734 -0.000442929436216023 -0.00050529207902128 1.05143404635397e-05 -0.000483152393215109 -0.000392082739725481 -0.000875723012400533 -0.000450035009827771
"111" 0.000891665684276454 0.000147809468284619 0.000232732847211406 -0.000159024949097533 0.000186740999196866 -0.000107755384793523 0.000178078280258442 1.77670935490798e-05 -0.000621855717308376 -0.000413806631386376 -0.000495193368328661 6.54702502343477e-05 -0.000465574242136949 -0.000373139367245266 -0.000853254290796624 -0.000423554129388945
"112" 0.000946717867224472 0.000189645069308745 0.00028142689858897 -0.00014990594019248 0.000257473439789403 -8.5335607404935e-05 0.0001908073118664 5.15243717043258e-05 -0.000596838531765026 -0.000382019571024047 -0.000483852284984658 0.000122529507662552 -0.00044708617930517 -0.000352949948450627 -0.000830838687260101 -0.000398034455434892
"113" 0.00100024336244301 0.000230716390982601 0.000329318278787067 -0.000140955098777963 0.000329882163008379 -6.35698216273397e-05 0.000202479481836081 8.45751658383723e-05 -0.000569494334246578 -0.00034769180502421 -0.000471301626798828 0.000181338451019651 -0.000427805624569787 -0.000331551552435879 -0.000808535223268936 -0.000373667166724914
"114" 0.00105181035452798 0.000270638688823294 0.000375808235425103 -0.000132226761233617 0.000403448113495327 -4.25260225749544e-05 0.000213007233861243 0.000116636959000298 -0.000539937244426052 -0.000310985409572221 -0.000457588770784659 0.000241514926521413 -0.000407857464696135 -0.000309003326974602 -0.000786405927393516 -0.000350632307768243
"115" 0.00110098712042628 0.00030901613136306 0.000420283937124339 -0.000123776673224315 0.000477592867866855 -2.2268562917046e-05 0.000222305555743101 0.000147416233475505 -0.000508314983071163 -0.000272087935976549 -0.000442775293995273 0.000302649516897978 -0.00038737462619072 -0.000285368909568548 -0.000764504132938872 -0.000329107151023063
"116" 0.0011473686727401 0.000345470201691248 0.000462143494291878 -0.000115658468669327 0.000551743189183626 -2.84437424107413e-06 0.000230317840137807 0.000176641893913227 -0.000474800853819812 -0.00023122055914282 -0.000426942627709029 0.0003643017119982 -0.000366508758460127 -0.00026072186309517 -0.000742880967338453 -0.000309260521681497
"117" 0.00119055174653573 0.000379618387390089 0.000500785360746164 -0.000107924238990051 0.000625293910530905 1.57057935205885e-05 0.000236987168117317 0.000204036814254925 -0.000439598001158524 -0.000188633929291584 -0.000410181052154862 0.000426012481653873 -0.000345410792152455 -0.00023515597514893 -0.000721591033627108 -0.000291255659017506
"118" 0.0012301718107184 0.000411095495228653 0.000535622104209595 -0.000100613180235604 0.000697607877270602 3.33479176890838e-05 0.00024228491777141 0.000229338557793387 -0.000402936359896835 -0.00014461254019627 -0.000392603080144759 0.000487286475770594 -0.00032425454076565 -0.000208771939961842 -0.000700683016081577 -0.000275247739736244
"119" 0.00126587996789239 0.000439551964181989 0.000566100048376398 -9.37700440784678e-05 0.000768079241142185 5.00636995551397e-05 0.000246190605989907 0.000252303184337415 -0.000365068643264322 -9.9459077168714e-05 -0.000374327379864112 0.000547628568750156 -0.000303213349418097 -0.000181685688442134 -0.000680201359762293 -0.000261377143422483
"120" 0.00129736135699388 0.000464657285141399 0.000591690205545817 -8.74339098783396e-05 0.000836062825046953 6.58412431083017e-05 0.000248708600198978 0.000272694651474469 -0.000326277295589833 -5.35112966519531e-05 -0.000355486270163321 0.000606529152860605 -0.000282454470642401 -0.000154027681848503 -0.000660187293195265 -0.000249766194131355
"121" 0.00132435483888291 0.000486119242169883 0.000611915239062778 -8.1632936967335e-05 0.000900978105344091 8.06881651902264e-05 0.000249857369636338 0.000290311702831053 -0.000286861289424868 -7.12699264989742e-06 -0.000336228103377428 0.000663461971164684 -0.000262173280614801 -0.000125929347431182 -0.000640680317042055 -0.000240535269022871
"122" 0.00134663096317792 0.000503667602959406 0.00062634551700256 -7.63889309324998e-05 0.000962235236774505 9.46153583038978e-05 0.000249673666580565 0.000304966834465433 -0.000247140943248352 3.93180729035324e-05 -0.000316709870575748 0.000717900698455454 -0.000242545481959297 -9.75440638871698e-05 -0.000621715297711744 -0.000233774744024079
"123" 0.00136401648747851 0.000517076083273716 0.000634614512284337 -7.17155002319983e-05 0.00101930441863755 0.000107647185236965 0.000248200280442555 0.000316488697248856 -0.000207439214657149 8.54387207762429e-05 -0.000297090992596139 0.000769317112948675 -0.000223765171709775 -6.90201338879067e-05 -0.000603327490443771 -0.000229577889195391
"124" 0.00137639101300848 0.000526160343013275 0.000636425834019081 -6.76224493670091e-05 0.00107168280321054 0.000119821671376747 0.000245515717082143 0.000324756189405611 -0.000168106328927507 0.000130824706120303 -0.000277548738037496 0.000817200753859432 -0.000206012006181428 -4.05261456837767e-05 -0.000585533540219682 -0.000227996758279275
"125" 0.00138369849225928 0.000530781259796666 0.000631551903419394 -6.40975893351781e-05 0.00111894647451469 0.000131184268328377 0.00024169951471215 0.000329659013992862 -0.000129483739252995 0.000175069553664527 -0.000258256488219192 0.000861046256318211 -0.000189466693291745 -1.22283691853038e-05 -0.000568358697939857 -0.000229079045993423
"126" 0.00138593727211838 0.000530847354760561 0.000619856422326671 -6.11335269284852e-05 0.00116073436441248 0.000141797944989079 0.000236850592049678 0.000331133720960959 -9.19151962646824e-05 0.000217765624410652 -0.00023939089952317 0.000900368959602742 -0.000174304796655756 1.57020344475334e-05 -0.000551822404495014 -0.000232849212216757
"127" 0.0013831700932943 0.000526324824511998 0.000601283195413953 -5.86983531603791e-05 0.00119675684902889 0.000151728053777588 0.000231082658062372 0.00032914355998971 -5.57473945590776e-05 0.000258501010963009 -0.000221136109625026 0.000934716246323068 -0.000160692442676685 4.30971406320279e-05 -0.000535929023970053 -0.000239303177868732
"128" 0.0013755174727061 0.000517221136638679 0.000575858495095309 -5.67637487892648e-05 0.0012267912511494 0.000161044858813492 0.000224525941259897 0.000323684369990519 -2.13096878618048e-05 0.000296881737703044 -0.000203665361794888 0.000963668394439781 -0.0001487818655452 6.97798846757692e-05 -0.000520682084808858 -0.000248418097781758
"129" 0.00136317521184978 0.00050361042365554 0.000543707417196112 -5.52740776605957e-05 0.0012507292745878 0.000169840249451166 0.00021731655295918 0.000314794719339544 1.10812734742668e-05 0.000332522266625534 -0.000187156352222207 0.000986833610037493 -0.000138723118851749 9.55880078914909e-05 -0.000506082436722135 -0.000260153425133362
"130" 0.00134638081736557 0.000485610062383808 0.000505042078174403 -5.41820853429443e-05 0.00126854466392947 0.00017820143160474 0.000209596397619918 0.000302537946152682 4.11401219061665e-05 0.000365073170651241 -0.000171768833217478 0.00100388914883461 -0.000130635843313532 0.000120360855402403 -0.000492114914117701 -0.000274433889876108
"131" 0.0013254469274255 0.000463392376209005 0.000460154806961702 -5.34115357164207e-05 0.00128028999759528 0.000186223314801616 0.000201516527824753 0.00028701749992482 6.85940476933851e-05 0.000394197802752813 -0.000157665227893083 0.00101454243405253 -0.000124633939320923 0.000143948397137839 -0.000478763623172087 -0.000291175479699098
"132" 0.00130073163297541 0.000437181462451955 0.000409431977504815 -5.28889422329697e-05 0.00128611570585043 0.000194010759782006 0.000193239755602551 0.000268372683906037 9.32165439260943e-05 0.000419602014393526 -0.000144988424998551 0.00101856741904063 -0.000120812738291225 0.000166209516261653 -0.000466009588521268 -0.000310255770781099
"133" 0.00127263928579667 0.000407243211160949 0.000353325951607174 -5.25247617549044e-05 0.00128626429298915 0.000201660050121697 0.000184923875402834 0.000246766951823287 0.000114809050208537 0.000441029057368132 -0.000133866717928512 0.0010158085826747 -0.000119233426464392 0.000187024722875976 -0.000453812370144193 -0.000331540833850563
"134" 0.00124162375579651 0.000373885012448648 0.000292369592094274 -5.22246735802219e-05 0.00128103178646597 0.000209281282585122 0.000176743886404079 0.000222409253859578 0.000133212658729124 0.000458257401060134 -0.000124420191413439 0.00100615621881539 -0.000119953494696351 0.00020627792581489 -0.000442136315340687 -0.000354864698812925
"135" 0.00120816100576592 0.000337447942340584 0.000227148945929879 -5.18940635902898e-05 0.00127081051717153 0.000216968876131956 0.000168838903936671 0.000195508177417755 0.000148324646361062 0.000471131249305547 -0.00011673976251169 0.000989601682834533 -0.000122980936606913 0.000223885345823327 -0.000430927524482191 -0.000380046176766854
"136" 0.00117278762253759 0.000298319964748532 0.000158318914254761 -5.1414662786584e-05 0.00125606949036849 0.000224836206870046 0.00016138185572282 0.000166330631605604 0.000160081271897002 0.000479534108114225 -0.000110903831792443 0.000966171757887694 -0.000128328666641876 0.000239776857432531 -0.000420137365035538 -0.000406887127142876
"137" 0.00113602472588145 0.00025689110999101 8.65705921144669e-05 -5.06841065662823e-05 0.00123729891816526 0.000232969795310651 0.00015451358670002 0.0001351362376284 0.000168469892411456 0.000483408672455813 -0.000106963998200356 0.000936003055818565 -0.000135951832930988 0.000253903222241845 -0.00040969370347164 -0.000435159498813386
"138" 0.00109841922386952 0.000213586339721912 1.26242231957845e-05 -4.95889478458554e-05 0.00121505249783186 0.000241464389976913 0.000148380317767988 0.000102215834398885 0.000173527490009221 0.000482747594828009 -0.000104951818860746 0.000899276819546266 -0.000145800224874085 0.000266239208816541 -0.000399529529394753 -0.000464625406200018
"139" 0.00106054753136751 0.000168846949375188 -6.27513400824374e-05 -4.80056268202714e-05 0.00118993874728836 0.000250413978038395 0.000143114328149357 6.78797233655815e-05 0.000175342046168271 0.000477605153521916 -0.000104875409299621 0.000856264168682833 -0.000157791315424225 0.00027678289489819 -0.000389563447916395 -0.000495034158011485
"140" 0.00102295207300206 0.000123106639576597 -0.000138797509069262 -4.58299912525662e-05 0.00116254735902689 0.000259889296570199 0.000138834324423197 3.24358484236066e-05 0.000174052570176599 0.000468091832460909 -0.000106717256297818 0.000807300589094856 -0.000171804889585069 0.00028555804788393 -0.000379707328059705 -0.000526112712862591
"141" 0.000986191488501419 7.68125348512029e-05 -0.000214730022881168 -4.29417820272487e-05 0.00113352701565666 0.000269964028157779 0.000135653855814102 -3.7857837113594e-06 0.000169844338532468 0.000454369557085877 -0.000110434460023562 0.00075278883767992 -0.00018770561021122 0.000292604130998539 -0.000369866565010084 -0.000557582663747178
"142" 0.000950779947775566 3.04018286535055e-05 -0.000289777840795289 -3.92436248659473e-05 0.00110351550839795 0.000280700124906482 0.000133643850445009 -4.04741359105543e-05 0.000162950544317169 0.000436663777545574 -0.00011595816407504 0.000693209589547846 -0.000205314609940072 0.000297987791901937 -0.000359938054503892 -0.000589151954939471
"143" 0.000917246231396321 -1.57008765758963e-05 -0.000363181136024343 -3.46222436730236e-05 0.0010731313126145 0.000292145760024105 0.000132903485312063 -7.7286484418075e-05 0.000153635916531962 0.000415228018632181 -0.000123205485880454 0.000629075583097376 -0.00022444584992591 0.000301796899821972 -0.000349819664209499 -0.000620523919781198
"144" 0.000886060014369753 -6.10765925924987e-05 -0.000434184398271659 -2.89889826157582e-05 0.0010430262838859 0.000304341391728711 0.000133462031208316 -0.000113918179225191 0.000142222438842372 0.000390385282403404 -0.000132057454669854 0.000560970060933545 -0.000244880658951049 0.00030413429515625 -0.000339399453071246 -0.000651404176242327
"145" 0.000857674410067509 -0.000105335211290387 -0.000502083334825906 -2.22559454038293e-05 0.00101379415204963 0.000317310410513146 0.000135362491276249 -0.000150051549019518 0.000129047158923055 0.000362485785450236 -0.000142385629137884 0.000489519897952055 -0.000266372431564721 0.000305124459337521 -0.000328562999917669 -0.000681480559882757
"146" 0.000832492529661614 -0.000148111773510195 -0.000566188452624785 -1.43482242829406e-05 0.000986023680629987 0.000331069445142683 0.000138629889541448 -0.00018538206515021 0.000114483597014199 0.000331917547714068 -0.000154035584939248 0.000415381037639938 -0.000288660039412089 0.000304904962359042 -0.000317190459951467 -0.000710450247006485
"147" 0.000810879008879524 -0.000189057690274728 -0.000625851666065115 -5.20084126663241e-06 0.000960281229458245 0.000345621868312054 0.000143251150639447 -0.000219619553705743 9.89273677175368e-05 0.000299098781840315 -0.000166838509658997 0.000339249582427269 -0.000311460292553768 0.0003036251778123 -0.000305162502118972 -0.000738008019240797
"148" 0.000793159752370175 -0.000227860182155211 -0.000680466471977646 5.2396236952556e-06 0.000937102438277148 0.000360955707981173 0.000149205785870139 -0.000252495197373902 8.2791586733803e-05 0.000264478921091527 -0.000180606405288739 0.00026184538228068 -0.000334473032237827 0.000301448840460056 -0.000292354229667982 -0.000763857863290285
"149" 0.000779609615629218 -0.000264240313117689 -0.000729482787093675 1.70164730189892e-05 0.000916981175440215 0.000377045127310161 0.000156443074818113 -0.000283758281973652 6.65039926316549e-05 0.000228518690776568 -0.00019514305645182 0.000183879611957624 -0.000357394640935717 0.000298543539708118 -0.000278653330961956 -0.000787716543646088
"150" 0.000770437037077823 -0.000297956960204401 -0.00077239688532487 3.01476615661794e-05 0.000900374311762586 0.000393853616840522 0.000164906837509158 -0.000313169100378656 5.04875260132408e-05 0.000191689612159715 -0.000210240558934063 0.000106092270237278 -0.00037989844376151 0.000295079510469797 -0.000263935864696356 -0.000809287934296445
"151" 0.000765825427659127 -0.000328790997487386 -0.000808745722391163 4.46541499308906e-05 0.000887724672825839 0.000411334985330682 0.000174505418660782 -0.00034052305896914 3.51832502709913e-05 0.000154477849566197 -0.000225684842559345 2.92055296481346e-05 -0.000401665630969084 0.000291242751868915 -0.000248087051806154 -0.000828314828008012
"152" 0.000765878243385058 -0.000356570241204764 -0.000838142648446859 6.0523169669171e-05 0.000879414726992154 0.000429425939872498 0.000185142398376084 -0.000365633642667059 2.10175536952211e-05 0.000117362998213496 -0.000241253755376101 -4.6062331964145e-05 -0.000422356851936217 0.000287200280499781 -0.00023099511150244 -0.000844528457835203
"153" 0.000770667065664598 -0.000381158370969807 -0.000860244084580558 7.77427722128518e-05 0.000875791048749731 0.000448056711398259 0.000196701172486488 -0.000388339542226778 8.4016372729894e-06 8.08204075074367e-05 -0.000256729009081534 -0.000119026670645532 -0.000441654734144119 0.000283136604108132 -0.000212556879961736 -0.000857692141962572
"154" 0.000780188918695296 -0.000402455628223496 -0.000874773331753052 9.6272995753277e-05 0.000877158448848093 0.000467139071722264 0.000209036705867733 -0.000408515057191152 -2.25253355851896e-06 4.53214485244758e-05 -0.000271884190246437 -0.000189003978752728 -0.000459224760792833 0.000279213641030326 -0.000192671881823395 -0.000867575448657738
"155" 0.000794411373919776 -0.000420395116214608 -0.000881513877109122 0.000116067904869265 0.000883790952339686 0.000486583010310767 0.000222017683478808 -0.000426044108603999 -1.05671204967029e-05 1.13115467277921e-05 -0.000286505171761581 -0.000255367285881663 -0.000474750092649617 0.000275611016349021 -0.000171248540249484 -0.000873970720792225
"156" 0.000813230075208129 -0.00043495078787656 -0.000880303046505637 0.00013706477302325 0.000895923177832909 0.000506286877092188 0.000235465486799111 -0.000440858252160819 -1.61708296043039e-05 -2.07748565134343e-05 -0.000300382914993934 -0.000317536035247018 -0.000487940839381196 0.00027247853081994 -0.000148212996070469 -0.000876700877237418
"157" 0.000836489791285763 -0.000446139783315902 -0.000871059377074554 0.000159175861995259 0.000913688675755307 0.000526129522528487 0.000249221595931105 -0.000452909710421044 -1.87375194659427e-05 -5.05339810636079e-05 -0.000313310527228118 -0.000374945857953057 -0.000498489326381445 0.00026996670906098 -0.000123483335190908 -0.00087558241401353
"158" 0.000863996879906048 -0.000454000642851911 -0.000853743844619785 0.000182309984776233 0.000937264741943462 0.00054600253449202 0.000263094165873904 -0.000462174316614248 -1.79605856092212e-05 -7.75879642602046e-05 -0.000325100579737665 -0.000427114740982801 -0.000506139166605236 0.000268221503750484 -9.70100092432999e-05 -0.000870489060126001
"159" 0.000895503362770419 -0.000458616442474302 -0.000828396166321649 0.000206361398106169 0.000966697994043477 0.000565774577970359 0.000276908217183653 -0.000468662799744996 -1.35666011083368e-05 -0.000101589227943032 -0.000335572591834586 -0.000473595614454942 -0.000510631263341818 0.000267364239407751 -6.87410214864564e-05 -0.000861290929584701
"160" 0.000930691314357054 -0.000460106553955588 -0.000795126366659392 0.000231195344071788 0.00100201881929637 0.000585305134679156 0.000290451901142272 -0.000472420816469883 -5.3245184276406e-06 -0.000122226319554405 -0.000344567298318843 -0.000514015378880952 -0.000511751479748205 0.000267519483367687 -3.8654479369634e-05 -0.000847903721365386
"161" 0.000969236380073659 -0.000458619400743791 -0.000754103286996263 0.000256688313933312 0.00104318354770449 0.0006044659804082 0.000303553225949598 -0.000473503710716407 6.95722382372399e-06 -0.000139230379820343 -0.000351937412513153 -0.000548047957932743 -0.000509298260295085 0.000268784376197718 -6.71874808204627e-06 -0.000830249973913868
"162" 0.0010107352258309 -0.000454333608492492 -0.000705571087984571 0.00028267991323699 0.00109010763072894 0.000623108042697474 0.000315987388992544 -0.000472016945015951 2.34311121259454e-05 -0.000152356560666024 -0.000357557234109854 -0.000575450953834037 -0.000503117151894435 0.000271253196013473 2.7054396082473e-05 -0.000808308532327308
"163" 0.00105475301914417 -0.000447470081374017 -0.000649844422085515 0.000309013314826596 0.00114259433106249 0.000641085305811822 0.000327575625992442 -0.000468081301693279 4.42006646470204e-05 -0.000161422779682135 -0.000361321312608638 -0.000596028068743935 -0.000493063091838086 0.000274999899601088 6.26669544312092e-05 -0.000782052304826013
"164" 0.00110082336376999 -0.000438266684127996 -0.000587305049568246 0.00033551652202963 0.0012004106804289 0.000658251219073007 0.000338114213295934 -0.000461844316566437 6.93220700201639e-05 -0.000166274127330114 -0.00036314621094993 -0.00060967488188215 -0.000479053856734971 0.000280091361170567 0.000100072829042704 -0.000751511797366413
"165" 0.00114843366783928 -0.000426997067322374 -0.000518414771679437 0.000362002522547668 0.00126322247073537 0.00067446063812475 0.000347423400526565 -0.000453477949685594 9.88005825448533e-05 -0.000166815604612441 -0.000362970878550153 -0.000616337389855833 -0.000461028872388278 0.000286572770374676 0.000139235334113101 -0.000716732245017588
"166" 0.00119703220463592 -0.000413965502738698 -0.000443704702329892 0.000388273565759105 0.00133061201509665 0.000689557808857169 0.00035530486793197 -0.000443193683844244 0.000132598585477058 -0.000162980279937913 -0.000360754254554461 -0.000616034989763163 -0.000438961367088005 0.00029447161306123 0.000180088843621933 -0.000677793156348121
"167" 0.00124604497727777 -0.000399489789992895 -0.0003637868717031 0.000414134816594832 0.00140206511122967 0.00070340199577587 0.000361592421828944 -0.000431207274037464 0.000170601915341633 -0.000154767072320837 -0.000356489812021353 -0.000608870051721938 -0.00041288391543822 0.000303815066982504 0.000222547023416831 -0.000634811456914116
"168" 0.00129486310163031 -0.000383927292411054 -0.000279341046509599 0.000439370464639998 0.00147696825844052 0.000715844893306796 0.000366119775573807 -0.000417768899199318 0.000212667043734816 -0.000142210749626833 -0.000350182821359543 -0.000594982420121924 -0.000382844534213285 0.000314601820956425 0.000266518136552391 -0.000587920307913665
"169" 0.00134286125547884 -0.000367645633189576 -0.000191124184011131 0.000463767522881946 0.00155459259607667 0.000726745520647545 0.00036872869919906 -0.000403149454633146 0.000258575895190309 -0.000125402829419986 -0.000341876054124707 -0.000574619316188747 -0.000348957666518198 0.00032681921895298 0.000311878715369605 -0.00053730179014509
"170" 0.00138938769235265 -0.000351033766714259 -9.9969554766159e-05 0.000487098175034348 0.00163412702497571 0.000735966473473771 0.000369270215724236 -0.000387636461185462 0.000308056795681674 -0.00010447076777814 -0.000331625586075652 -0.000548060536210853 -0.000311359483911677 0.000340445526484314 0.000358497840291503 -0.000483160101648332
"171" 0.00143377885998726 -0.000334493326873706 -6.77464880456461e-06 0.000509141776918064 0.00171461431812713 0.00074338384446343 0.000367630002277019 -0.000371531617013018 0.000360776287682601 -7.96095614249349e-05 -0.000319522890772475 -0.000515659546131205 -0.000270233425144122 0.000355433650707234 0.000406224805206159 -0.000425728510115377
"172" 0.00147537119649675 -0.000318450128998175 8.74899871130097e-05 0.000529668828487609 0.00179499419816724 0.000748871117006264 0.000363692167383449 -0.000355154595247592 0.000416338019934115 -5.10558781924595e-05 -0.000305680313755568 -0.000477834204776872 -0.000225804303859746 0.000371724487304264 0.000454889814485839 -0.00036527151327316
"173" 0.00151349601615556 -0.000303320012683747 0.000181801242753465 0.000548450135315321 0.00187413271962745 0.000752318691377143 0.000357358890565086 -0.000338838554456956 0.000474295298904463 -1.90863569437282e-05 -0.000290232713144798 -0.000435054636717774 -0.000178340110417229 0.000389250722851489 0.000504308476769124 -0.00030209262756243
"174" 0.00154747946423407 -0.000289536407798678 0.00027507459091767 0.000565255197268062 0.00195075493457704 0.000753624041292595 0.000348555759563078 -0.000322919245279111 0.000534127901920733 1.59580891698403e-05 -0.00027334321530576 -0.000387840848352792 -0.000128131519880816 0.000407921826877642 0.000554280976818706 -0.000236503783631986
"175" 0.0015766704851039 -0.000277535316749561 0.000366184529829897 0.000579860746795659 0.00202351658350581 0.000752697135308232 0.00033721205708367 -0.000307754263098227 0.000595269105172251 5.37081108989965e-05 -0.000255194869179413 -0.000336769675964436 -7.55190530200879e-05 0.000427630803227442 0.000604586705500261 -0.000168870451344403
"176" 0.00160044070012965 -0.000267734978063481 0.000453964445219124 0.000592044997825645 0.002090997671243 0.000749461435645779 0.00032330173493625 -0.000293683106762991 0.000657086650950745 9.37322592188899e-05 -0.000235991707030147 -0.000282446602691105 -2.08651962298083e-05 0.000448253204171273 0.000654999295810662 -9.95556380208436e-05
"177" 0.00161818392167323 -0.00026055241208187 0.000537229341728712 0.000601595270825054 0.0021517146408313 0.000743855505296525 0.00030680696214552 -0.000281057392895019 0.00071889847736502 0.000135563027135656 -0.000215959546238926 -0.000225524352916332 3.54341071776064e-05 0.000469652840989991 0.000705269742330063 -2.89559119654344e-05
"178" 0.00162933779786462 -0.000256386079504742 0.000614794826760874 0.000608306650795842 0.00220418958623996 0.000735833410956338 0.000287717592724155 -0.000270219620946981 0.000779976343637163 0.000178691946329235 -0.000195345283009139 -0.000166691250330779 9.29522972140212e-05 0.000491667971862709 0.00075513863564762 4.25038288051432e-05
"179" 0.00163338620559472 -0.00025561721696558 0.000685472645120319 0.00061199379206204 0.00224689684969619 0.000725364201503125 0.00026606788077965 -0.000261505919002958 0.000839548653760522 0.000222573198957082 -0.000174406672400491 -0.000106645901278672 0.000151251361190035 0.000514122754416834 0.000804336543852965 0.000114400154688242
"180" 0.00162985953023181 -0.000258592375155657 0.000748106203853456 0.000612473630063097 0.00227838976255335 0.00071243753671474 0.000241900254174944 -0.000255230350179297 0.00089680417593116 0.000266623555817744 -0.000153422836134286 -4.61141067540016e-05 0.000209866193081888 0.000536817387476398 0.000852582816765591 0.000186283699812805
"181" 0.00161836427581944 -0.000265625427621861 0.000801591911402604 0.000609593136229689 0.0022972863288144 0.00069706227200495 0.000215285975792688 -0.000251693406024497 0.000950910119887337 0.000310232149781194 -0.000132681488383419 1.41684173240121e-05 0.000268321607220448 0.000559526214597161 0.00089957791157629 0.000257706246277396
"182" 0.00159856405074171 -0.000277003347112479 0.000844881021530371 0.000603206581714222 0.00230230548204533 0.00067926745901592 0.000186316237303541 -0.00025117265899817 0.00100100757464176 0.000352760504727513 -0.000112480892571371 7.34815875256884e-05 0.000326138337000757 0.00058200928757147 0.000945030427893366 0.000328212701203516
"183" 0.00157021368390551 -0.000292946765059092 0.000877025331061321 0.000593204386829166 0.00229234578347771 0.000659102897728306 0.000155105456674323 -0.000253910060957434 0.00104624207108673 0.000393553598654208 -9.31280068171579e-05 0.000131086446133114 0.000382821923231515 0.000603998670431844 0.000988624808974775 0.000397344753673494
"184" 0.00153315124621039 -0.000313647101351684 0.000897177569136462 0.000579499228815175 0.00226647920206437 0.000636638774760912 0.000121790582362957 -0.000260121735699294 0.00108575810232725 0.000431943055772993 -7.49318180749275e-05 0.000186272962566621 0.000437887244220803 0.000625200275929281 0.00103005257744468 0.000464654466964608
"185" 0.00148728713867023 -0.000339236858162936 0.000904612607446162 0.000562020529700547 0.0022240055372016 0.00061196405118575 8.65291805074397e-05 -0.000269989537758597 0.00111872452993551 0.000467260091278474 -5.81983020710609e-05 0.000238365555132667 0.0004908593960412 0.000645300745852645 0.00106899732276376 0.000529703024281869
"186" 0.0014326524719012 -0.000369781557610485 0.000898761327958992 0.000540748892023765 0.00216450017644326 0.000585194666744272 4.95092259845974e-05 -0.000283637345829289 0.00114434401707337 0.00049883106939317 -4.32411099251864e-05 0.000286695621768282 0.000541264864732977 0.000663968473808904 0.00110514222219499 0.00059206387984699
"187" 0.00136935092679614 -0.000405299843664156 0.00087920042130902 0.000515671496906594 0.00208779843808835 0.000556466247098364 1.09262937968808e-05 -0.00030115979907668 0.00116186543087169 0.000526003947956454 -3.03559396689542e-05 0.00033066894167024 0.000588663586418367 0.000680849208564361 0.00113817678469742 0.000651340417387876
"188" 0.00129759172789771 -0.000445748136452553 0.000845685188860677 0.0004868312108416 0.00199401828721029 0.000525924358130811 -2.89926112078014e-05 -0.000322596646771203 0.00117060509158348 0.00054813910727015 -1.98348793370063e-05 0.000369704211216786 0.000632618271215666 0.000695574444832635 0.0011677872786308 0.000707148968509303
"189" 0.00121768274480168 -0.000491008812873825 0.000798152125874281 0.000454296219870925 0.00188359513578635 0.000493750941637756 -7.00092364539396e-05 -0.000347941008836893 0.00116996201855758 0.000564639711645623 -1.19514153930533e-05 0.00040329687758406 0.000672730725479872 0.000707770326080904 0.00119367442080001 0.000759138264136101
"190" 0.00113001497392824 -0.000540916699046525 0.0007367108896909 0.000418167484175169 0.00175723611669065 0.000460135911969273 -0.000111868736697849 -0.00037713047981758 0.0011594231710084 0.000574940487881628 -6.9626880312798e-06 0.000430992725826075 0.000708627193841696 0.000717059414484604 0.00121554508701593 0.000806986640117187
"191" 0.00103507934058684 -0.000595240300514933 0.000661657917327462 0.000378587399826548 0.00161589573973914 0.000425284554967586 -0.000154288570675197 -0.000410050646638873 0.0011385864350822 0.000578535431677275 -5.10401137935328e-06 0.000452416302002101 0.000739978831962377 0.000723078172291025 0.00123312777482616 0.000850416896393697
"192" 0.000933437314955283 -0.000653693841850158 0.000573464917064769 0.000335731694537721 0.0014607728448388 0.000389417811279869 -0.000196990759606091 -0.000446542080259499 0.00110715833528764 0.000574975766703406 -6.58526773142141e-06 0.000467244777432061 0.000766479865071931 0.000725473096712 0.00124616149931143 0.000889176722230228
"193" 0.000825738837148969 -0.000715937070649578 0.000472780241659072 0.000289808139888876 0.00129328676584603 0.000352774117506445 -0.000239674412450679 -0.00048638488533935 0.0010649839521707 0.000563887882108318 -1.15825104871261e-05 0.000475240479333978 0.00078787505946274 0.000723928229118564 0.00125441113416665 0.000923052356671982
"194" 0.000712686552672918 -0.00078158088025701 0.000360392701472996 0.000241054966977954 0.00111498897268191 0.00031559082107718 -0.000282043295711739 -0.000529324902271902 0.00101202887172052 0.000544971623617428 -2.02442320968523e-05 0.00047621953176142 0.000803939117064125 0.000718165200505608 0.00125766314502677 0.000951867021566612
"195" 0.000595048915074361 -0.000850193461074318 0.00023724285026971 0.000189743099494724 0.000927559916184046 0.000278122429715872 -0.000323779430326533 -0.000575046176055907 0.000948396246627284 0.000518018028646049 -3.26788266857359e-05 0.000470099441474271 0.000814507248479941 0.000707952350364583 0.00125574161331204 0.00097549388445794
"196" 0.000473632849567319 -0.000921307501788339 0.000104387431921877 0.000136164654868053 0.00073274105775611 0.000240622907717492 -0.000364581805072691 -0.00062320965213083 0.000874327990467312 0.000482910061145196 -4.89565922305292e-05 0.000456852766392322 0.000819443829941886 0.000693117011772226 0.00124850453019309 0.000993831595990051
"197" 0.000349291454308251 -0.000994426629684891 -3.70193494024113e-05 8.06434878019938e-05 0.000532295435093915 0.000203347450067002 -0.000404140515099879 -0.000673430316235866 0.000790193926118346 0.000439624673209278 -6.9107840501227e-05 0.000436520175922275 0.000818660339484691 0.000673559179790119 0.00123583283784601 0.00100681825579698
"198" 0.00022289102457568 -0.00106902836091934 -0.000185740684887738 2.35174384749331e-05 0.000327969106988443 0.000166543577325764 -0.000442154716446423 -0.000725300374598424 0.000696493510314164 0.000388239344664319 -9.31207547936175e-05 0.000409222148709764 0.00081211379079827 0.00064924571589065 0.00121766320327016 0.00101442844751059
"199" 9.53193962142342e-05 -0.00114457722828616 -0.0003404869400419 -3.48610535745939e-05 0.000121463554145903 0.000130466774448658 -0.000478327727114281 -0.000778378409369836 0.000593838666031721 0.000328932608578689 -0.000120939622736092 0.000375135757598191 0.000799807879461533 0.000620226040770009 0.00119397036177597 0.00101666802154144
"200" -3.25403052386765e-05 -0.00122052466238748 -0.000499926333839611 -9.41249289760987e-05 -8.56165193490599e-05 9.53506304755547e-05 -0.000512379683290495 -0.00083220808060502 0.000482951318374757 0.000261976943020674 -0.000152463673397017 0.000334491753384865 0.000781775251890405 0.000586620443044044 0.00116476862899416 0.00101357149682957
"201" -0.000159798210380048 -0.0012963164719916 -0.000662717384768938 -0.000153894814763561 -0.000291760901055133 6.14337529186985e-05 -0.000544054564077387 -0.000886328546919311 0.000364657735062691 0.000187752309679168 -0.000187551127110105 0.0002875860607118 0.000758097880705869 0.000548629248799897 0.00113012133528106 0.00100520081578253
"202" -0.000285613101617563 -0.00137141776729126 -0.000827529913997518 -0.000213802821788649 -0.000495639634486444 2.89191930442058e-05 -0.000573094499217265 -0.000940265016997259 0.000239845800809399 0.000106713403993622 -0.000226014481181139 0.000234767903960934 0.000728903033962672 0.000506517101208045 0.00109014913434051 0.000991662816135518
"203" -0.000409136790260035 -0.00144527891232032 -0.000993036135117463 -0.000273465653596042 -0.000695985737337099 -1.9784587054146e-06 -0.00059928139948922 -0.000993542246654688 0.00010948564071034 1.94133241957528e-05 -0.000267629230700358 0.000176415568496442 0.000694336205923775 0.000460620834186879 0.00104500200805695 0.000973060098329028
"204" -0.00052957218816411 -0.00151738762451295 -0.00115795868919124 -0.000332514953401555 -0.000891753611229859 -3.1078799690053e-05 -0.000622403131919819 -0.00104569007829743 -2.54216679018717e-05 -7.35295382562708e-05 -0.000312128790510035 0.000112969317154382 0.000654602257810063 0.000411326007599847 0.000994897657124456 0.000949555311171393
"205" -0.000646174103618744 -0.001587244149061 -0.00132108019522472 -0.000390592719374532 -0.00108203144170175 -5.82258505988472e-05 -0.000642291596899633 -0.00109626044609046 -0.000163825623830068 -0.000171422429340813 -0.000359212701540545 4.48895387327764e-05 0.000609929446228155 0.000359066776298853 0.000940084874740399 0.000921308400769276
"206" -0.000758224881480025 -0.00165436625622862 -0.00148121854375063 -0.000447340745188864 -0.00126602527182308 -8.32660642011648e-05 -0.000658799385795552 -0.00114480543588251 -0.000304661014996905 -0.000273514879719222 -0.000408546084681017 -2.73366591190246e-05 0.00056056775006358 0.000304324564435947 0.000880856462407671 0.000888503847999489
"207" -0.000865078481231519 -0.00171830507468661 -0.00163727761946019 -0.000502433670924421 -0.00144311811879929 -0.000106077861169464 -0.000671797975969655 -0.00119090208306038 -0.000446862182602177 -0.000379010840712007 -0.000459766696696074 -0.000103173168976902 0.000506826864617629 0.000247594438616421 0.000817560091321552 0.000851371615918057
"208" -0.000966129903910064 -0.00177863929043769 -0.00178822762671517 -0.000555545786997679 -0.00161281742512833 -0.000126561131640212 -0.00068120650041405 -0.00123415876178632 -0.000589364743033452 -0.00048707209837742 -0.000512486540500986 -0.00018208070562095 0.000449026011479431 0.000189397601977642 0.000750570086600397 0.000810138155795074
"209" -0.00106084806106603 -0.0018349872133208 -0.0019331210650345 -0.0006063884810272 -0.00177475017912309 -0.000144638693391987 -0.000686957276621397 -0.00127420221968713 -0.00073113787602219 -0.000596846139310556 -0.000566297601041142 -0.000263495479794241 0.000387518476076281 0.000130256714706305 0.00068028924584092 0.000765069046419756
"210" -0.00114875860775525 -0.0018869892491975 -0.00207109073010653 -0.000654686043225841 -0.00192865649422439 -0.000160252702692337 -0.000689030722585999 -0.00131068845648567 -0.000871174263350519 -0.000707462852788929 -0.000620778951555946 -0.000346838717713339 0.000322687249126184 7.06947878324526e-05 0.000607162190438615 0.000716443183809743
"211" -0.00122943677713952 -0.00193432133782241 -0.00220133812364237 -0.000700181837337878 -0.00207434770893249 -0.000173361886627878 -0.000687415608870802 -0.00134330095320007 -0.00100850131263279 -0.000818036271012958 -0.000675495081327511 -0.000431519347731961 0.000254941288947593 1.12361963952614e-05 0.000531654253335554 0.000664567753099794
"212" -0.00130254595352781 -0.00197670221012134 -0.00232316732317628 -0.000742660139091327 -0.00221175241018464 -0.000183958979195788 -0.000682147734154692 -0.00137175896182126 -0.00114221221193084 -0.000927708877551346 -0.000730008193895076 -0.000516937825845954 0.000184710669219754 -4.76363414346562e-05 0.000454236068894617 0.000609772213103326
"213" -0.00136779123663012 -0.00201387479973276 -0.00243593666278989 -0.000781919198819028 -0.00234081651807803 -0.000192039489213206 -0.000673282866666437 -0.00139580792843978 -0.00127143455313132 -0.00103561276468298 -0.00078387602557496 -0.00060248556467177 0.000112453906953955 -0.000105435646710256 0.00037541345235244 0.000552402934725673
"214" -0.00142495590147195 -0.00204562449736616 -0.00253910255367762 -0.00081778830446991 -0.00246158856095195 -0.000197639354004718 -0.000660917898493168 -0.00141524301922993 -0.00139536904209269 -0.00114092900575728 -0.000836664435756193 -0.000687560867620308 3.86424402362007e-05 -0.000161724653127694 0.000295681457825013 0.000492826833757719
"215" -0.0014738618548302 -0.00207175782672946 -0.00263217214116298 -0.000850113807762751 -0.00257410637565916 -0.000200789283459261 -0.00064514784181267 -0.00142986265294337 -0.0015132747637994 -0.00124285763834771 -0.000887946292683716 -0.000771558726190377 -3.62357925536277e-05 -0.000216088664231009 0.000215547670594424 0.000431436852766934
"216" -0.00151441248675849 -0.00209212486634086 -0.00271473902655117 -0.00087878949392126 -0.0026784592832202 -0.000201552280376635 -0.000626117756322696 -0.00143952046080553 -0.0016244706097752 -0.00134063864456903 -0.000937302468187804 -0.000853870498921249 -0.000111665632684542 -0.000268148614882008 0.000135512766641538 0.000368638251657704
"217" -0.00154655610549525 -0.00210660214229632 -0.00278645561830108 -0.000903721966495709 -0.00277473471300735 -0.000200004433391142 -0.000603994379594973 -0.0014440961929104 -0.00172834737505974 -0.00143355960503109 -0.000984337371270762 -0.000933915727037431 -0.000187146780241315 -0.000317571735363893 5.60633524798977e-05 0.000304844672376206
"218" -0.00157028596575512 -0.00211508132806071 -0.00284703437752819 -0.000924839081585689 -0.00286302617207561 -0.000196221400476361 -0.000578936701068853 -0.00144348700830904 -0.00182435805081586 -0.00152096086694583 -0.00102867221430913 -0.00101110529718184 -0.000262150685336461 -0.000364053833209255 -2.23149933422185e-05 0.000240496545885126
"219" -0.00158566898111611 -0.00211750289403153 -0.0028962472417997 -0.000942110962597367 -0.00294341084938777 -0.000190305004067373 -0.000551148262836525 -0.00143762962463253 -0.00191202703132666 -0.00160223606321649 -0.00106995439329629 -0.00108487480944458 -0.000336147629935441 -0.000407342224862816 -9.91663414263561e-05 0.000176039412458667
"220" -0.00159280068313313 -0.00211381699327255 -0.00293392085197943 -0.000955514939192615 -0.00301595656765427 -0.000182363915245263 -0.00052084048284572 -0.00142648996341255 -0.00199093826334818 -0.00167683692809685 -0.00110785438505076 -0.00115468314089914 -0.000408629695321385 -0.000447223589810344 -0.000174052885273503 0.000111911957070492
"221" -0.0015918350401112 -0.00210401281009824 -0.00295993750311408 -0.000965066734044104 -0.00308071534450596 -0.000172519184000025 -0.000488232980280798 -0.00141005177046285 -0.00206074380824137 -0.00174427708893916 -0.00114207499330978 -0.00122000308470574 -0.000479066315368624 -0.000483520132301886 -0.000246560707608311 4.85751021740788e-05
"222" -0.0015829609350867 -0.00208808703575609 -0.00297422204053662 -0.00097079315788064 -0.00313769941371103 -0.000160888156108017 -0.000453559729474464 -0.00138833468358092 -0.00212115273994416 -0.00180413020503855 -0.00117234639921662 -0.00128034354736668 -0.00054696374690496 -0.000516103191621013 -0.000316306926337437 -1.35231908140283e-05
"223" -0.00156640471216114 -0.00206606995731202 -0.00297674246333986 -0.000972744952394441 -0.00318686965136587 -0.00014760141550162 -0.000417058924669886 -0.00136137725508385 -0.00217193510318153 -0.0018560351994646 -0.00119843397943453 -0.00133524076448668 -0.000611832798508152 -0.000544872928255224 -0.000382945941066714 -7.39449155040135e-05
"224" -0.00154245635871478 -0.00203801588100983 -0.00296752965092359 -0.000971005232875374 -0.00322820753204919 -0.000132806539321042 -0.000378979086038476 -0.00132924467602127 -0.0022129219131376 -0.001899691943647 -0.001220135996344 -0.00138426086501742 -0.000673196137755361 -0.000569775536769715 -0.000446151669777626 -0.000132244184111287
"225" -0.00151141359975124 -0.00200399088904355 -0.00294663752999507 -0.000965656913980305 -0.00326159636433377 -0.000116632013797696 -0.000339569725241076 -0.00129202822350864 -0.00224399926732862 -0.00193486619986431 -0.0012372858642144 -0.00142701754457672 -0.000730615624156444 -0.000590792706846387 -0.00050564775044068 -0.00018800687566729
"226" -0.00147362655821743 -0.00196409891123322 -0.00291417727372441 -0.000956821080449708 -0.0032869214436551 -9.92337485573739e-05 -0.000299091945425696 -0.00124983900884739 -0.00226509832711953 -0.00196138498712123 -0.00124975188226591 -0.00146316373370021 -0.000783678607642004 -0.000607936549044117 -0.000561189322060674 -0.000240832821555278
"227" -0.00142946418306663 -0.00191844828902351 -0.00287029942520538 -0.000944611068037273 -0.00330402854811948 -8.07536080373416e-05 -0.000257786629172251 -0.00120281912564362 -0.00227621022233066 -0.00197913829707561 -0.00125743477182301 -0.00149239529934959 -0.000832000098888594 -0.000621250216268297 -0.000612564201437105 -0.000290334369595684
"228" -0.0013793395032951 -0.00186718608282873 -0.00281520104780617 -0.000929181150120233 -0.0033127285793817 -6.13455665306073e-05 -0.000215904031203695 -0.00115112216573109 -0.00227737671540178 -0.00198807502929026 -0.00126027482807807 -0.00151445598149331 -0.000875234005060874 -0.000630817516500967 -0.000659603000692133 -0.000336156149776048
"229" -0.00132367700944019 -0.00181046893413313 -0.00274911890247953 -0.000910680556916996 -0.00331280885894967 -4.11618856608203e-05 -0.000173695013365722 -0.00109493934590029 -0.00226867757109473 -0.00198819691371365 -0.00125824121722145 -0.00152914080186818 -0.000913073712931597 -0.000636733915768046 -0.00070216678308582 -0.000377970682415243
"230" -0.00126294978669586 -0.00174848700109072 -0.00267234807172572 -0.000889279526238997 -0.00330404161470544 -2.03560251983913e-05 -0.000131395374235396 -0.00103447898622943 -0.0022502439777486 -0.00197957313061783 -0.00125134147976686 -0.00153629185116825 -0.000945255236313049 -0.000639132905970415 -0.000740158093053531 -0.000415480767782981
"231" -0.00119763063732202 -0.00168145005567165 -0.00258521274890137 -0.000865158504679329 -0.00328617210822343 9.17865752989584e-07 -8.92397446183931e-05 -0.000969972198851502 -0.00222224775391733 -0.00196231375331375 -0.00123961290832869 -0.00153581242908864 -0.000971555691221011 -0.000638164556771773 -0.000773509377844679 -0.000448427647050441
"232" -0.00112823121384538 -0.00160959945581136 -0.00248810848664544 -0.000838507885794559 -0.00325895496606528 2.25017825632577e-05 -4.74555616293154e-05 -0.000901686315333392 -0.00218490838440796 -0.0019365815837683 -0.00122312474175215 -0.00152765631625297 -0.00099180652262973 -0.000633996287950615 -0.0008021866229288 -0.000476581881032038
"233" -0.0010552777716753 -0.0015331901653179 -0.00238146764510064 -0.000809529803987032 -0.00322213220845079 4.42448391279691e-05 -6.25479380791114e-06 -0.000829898743961994 -0.00213848288463675 -0.00190259286014257 -0.00120197663886292 -0.00151183033841284 -0.00100587893937607 -0.000626823385929568 -0.000826193569809847 -0.00049976265559049
"234" -0.000979301990886694 -0.00145251467073437 -0.00226578388393298 -0.000778419880331168 -0.00317547027439982 6.59907005769285e-05 3.41521379176477e-05 -0.000754923272237286 -0.0020832706622584 -0.00186060814835479 -0.001176297384291 -0.00148840858106262 -0.00101369949501281 -0.000616852116783211 -0.000845558690426801 -0.000517822875995058
"235" -0.000900867731855411 -0.00136789620414119 -0.00214161080533382 -0.000745403379864956 -0.00311876555380199 8.75858527396532e-05 7.35773631330919e-05 -0.000677092748650041 -0.00201961368093522 -0.00181093065156148 -0.00114624228960251 -0.00145750070134292 -0.00101523490674781 -0.000604299638168097 -0.000860334082051357 -0.000530656800939667
"236" -0.000820538430131972 -0.00127967032530246 -0.00200955237280774 -0.000710692623328982 -0.00305181935639909 0.000108881170457782 0.000111829855683091 -0.000596767332565144 -0.00194788993466784 -0.00175389972605114 -0.00111199336943778 -0.00141928601295388 -0.00101050957580675 -0.000589393822198846 -0.000870607168329168 -0.000538207027308581
"237" -0.000738882494429327 -0.0011882196211453 -0.00187026901140729 -0.000674509502056091 -0.00297451282980559 0.000129730863364447 0.000148752883705533 -0.000514331837032716 -0.00186852061260126 -0.00168989949200279 -0.00107375518253994 -0.00137399420181809 -0.000999586941989323 -0.000572378796932612 -0.000876481400781631 -0.000540453778123031
"238" -0.00065647996645914 -0.00109394225635469 -0.00172449345983761 -0.000637081399101993 -0.00288676251382882 0.00014998795010945 0.000184183503156902 -0.00043019137309918 -0.00178196368559034 -0.00161934108465447 -0.00103175322363195 -0.00132190378872913 -0.000982584762998339 -0.000553497152358228 -0.000878082380910785 -0.000537423435598781
"239" -0.000573913012527691 -0.000997271795976664 -0.0015730127006434 -0.000598639076038663 -0.00278857010879342 0.000169512928448816 0.000217976078571565 -0.000344777788949636 -0.00168871943805392 -0.00154268010580109 -0.000986236976280918 -0.00126335222476484 -0.000959665975298711 -0.00053300553448687 -0.000875558169767226 -0.000529185130457566
"240" -0.000491747080931392 -0.000898659336686189 -0.00141666842944188 -0.000559408568275645 -0.00268000969472083 0.000188173004327918 0.000250004242661489 -0.000258544504379894 -0.00158932307724258 -0.00146038492978992 -0.000937469459797307 -0.00119871175390518 -0.000931031266959786 -0.000511148189282266 -0.000869072658925639 -0.00051585457495689
"241" -0.000410554611592359 -0.000798595226497381 -0.00125636684704846 -0.000519625113609705 -0.00256125951597626 0.000205837524706365 0.000280160045308627 -0.000171952279876183 -0.00148435170302814 -0.00137296793075853 -0.000885733294322338 -0.00112840541069064 -0.000896924162500595 -0.000488192567351897 -0.000858797155456024 -0.000497577178656847
"242" -0.000330876559507542 -0.000697578508754599 -0.00109306286949175 -0.000479511959591596 -0.00243260133686555 0.000222388095697226 0.00030834037774405 -8.54899847965282e-05 -0.00137441814289135 -0.0012809584561897 -0.000831327629545523 -0.00105291316825423 -0.000857640025379565 -0.000464374173397738 -0.000844928141121847 -0.000474558130801112
"243" -0.000253252030384721 -0.000596132207798222 -0.000927759829026646 -0.000439296896178773 -0.00229441720524521 0.000237713285257437 0.000334450791419046 3.47812330658508e-07 -0.00126016705979456 -0.00118490590767418 -0.000774558090111517 -0.000972745235447617 -0.000813503825948342 -0.000439945557355403 -0.000827668178618315 -0.000447036234057746
"244" -0.000178187989064252 -0.000494798686488979 -0.000761507241142339 -0.000399204117983072 -0.00214726414164826 0.000251709742852423 0.00035843444412137 8.50557811094916e-05 -0.00114228935452577 -0.00108538499634842 -0.000715746040445462 -0.000888443052994436 -0.000764868534234546 -0.000415145011839148 -0.00080721816803968 -0.000415276338083885
"245" -0.00010617805914862 -0.00039413238614278 -0.000595385899123592 -0.00035945920968828 -0.00199178251440549 0.000264284322887603 0.000380232037225087 0.000168130768719774 -0.00102150061195696 -0.000982986588038611 -0.000655221971335221 -0.000800590992366917 -0.000712130540946964 -0.000390202020294269 -0.000783803383767016 -0.000379592470278747
"246" -3.76591157620289e-05 -0.000294689964578842 -0.00043050188517367 -0.000320271328515855 -0.0018287674988673 0.000275359931970138 0.00039979490707108 0.000249058303864056 -0.000898544354386001 -0.000878305437508211 -0.000593315873019688 -0.000709799766804338 -0.000655709779613358 -0.000365333003555851 -0.000757640153291873 -0.000340333558860521
"247" 2.69381045103221e-05 -0.000197034733472228 -0.000267983055356259 -0.000281858325079118 -0.00165919249076959 0.000284863342525019 0.000417103798121864 0.000327338110613077 -0.000774194619103629 -0.000771956189507418 -0.000530367411215589 -0.000616696289101418 -0.000596042675782554 -0.000340734677119464 -0.000728957999909271 -0.00029786300193267
"248" 8.72550924303234e-05 -0.00010171752450862 -0.000108945843742653 -0.000244414217870766 -0.00148412326971585 0.000292746266879265 0.000432147516110641 0.000402483426898022 -0.00064925057084774 -0.000664558759946704 -0.000466720730721755 -0.000521943027321403 -0.000533604061585273 -0.000316588241525975 -0.00069798109351882 -0.000252591850161312
"249" 0.000142958307238355 -9.28631554571577e-06 4.55000728542984e-05 -0.000208138259735221 -0.00130479547631501 0.000298966158782202 0.000444921081090474 0.000474017950052237 -0.000524520982294962 -0.000556733713575512 -0.000402715240632375 -0.000426199537361291 -0.000468868777932407 -0.000293057959903538 -0.000664942020707936 -0.000204939443576243
"250" 0.000193771295344334 7.97346108451911e-05 0.000194274733348136 -0.000173207705493901 -0.00112257358264405 0.000303498320797782 0.0004554519236949 0.000541491204646916 -0.000400827139691063 -0.000449098037082744 -0.000338686020609766 -0.000330144121265063 -0.000402333139616267 -0.000270282929041776 -0.000630071776705516 -0.000155349734053465
"251" 0.000239467106058033 0.000164845232931978 0.000336341803810989 -0.000139802079626918 -0.000938903863685676 0.000306329404510115 0.000463753598916282 0.000604478843730576 -0.000278990205542818 -0.000342268112727023 -0.000274967956493153 -0.000234458539463255 -0.000334503601128299 -0.000248374141998702 -0.000593600264314484 -0.000104290655079836
"252" 0.000279878285029641 0.000245576737137326 0.000470728825116009 -0.000108071809303789 -0.000755378202677705 0.000307466524174753 0.000469874546216082 0.000662595342571624 -0.00015982614616743 -0.000236841955266768 -0.000211885544533303 -0.000139802493246685 -0.000265879398583752 -0.000227419014103019 -0.000555754847857625 -5.22259709242835e-05
"253" 0.000314888844095682 0.000321512428514068 0.000596542346190054 -7.81673941138396e-05 -0.000573616815927648 0.00030693563014305 0.000473878497879293 0.000715503818387818 -4.41481301476393e-05 -0.000133417625706351 -0.000149755119442567 -4.68393342843249e-05 -0.000196969618019287 -0.000207485402184362 -0.000516758980044253 3.76299578755206e-07
"254" 0.000344443269835407 0.000392261908068658 0.000712979247851463 -5.02120145920069e-05 -0.000395299800858236 0.000304768205343336 0.000475817361540834 0.00076289347114575 6.72771574767609e-05 -3.25540949359901e-05 -8.88806529254964e-05 4.37959438458951e-05 -0.000128267159861018 -0.000188601703143275 -0.000476839905473861 5.30306258456422e-05
"255" 0.000368542737044656 0.000457506004595435 0.000819351271166615 -2.43180301021334e-05 -0.000222120257910941 0.000301018140019419 0.000475781066488747 0.00080452514707385 0.000173697766819275 6.51940982904752e-05 -2.95490025506872e-05 0.000131498156770975 -6.02580678452294e-05 -0.000170788221804901 -0.000436214302255495 0.00010527988353693
"256" 0.000387243982374608 0.000516973871790855 0.000915082136143516 -5.72621116069737e-07 -5.57489378067609e-05 0.000295754181275646 0.000473859830690506 0.00084020755703226 0.000274412746672299 0.000159314071888722 2.79633417524988e-05 0.000215690837542929 6.59264295111958e-06 -0.000154029324065925 -0.000395097666175309 0.000156672685167781
"257" 0.000400662318477684 0.000570462297443868 0.000999740420543133 2.09457094364124e-05 0.000102248277277717 0.00028905995815971 0.000470142847570599 0.000869801364190195 0.000368785543491099 0.000249326623720017 8.34077551972103e-05 0.000295848337275795 7.18348921386553e-05 -0.000138297629362696 -0.000353706928017136 0.000206765982555737
"258" 0.000408962841056195 0.000617828879746792 0.00107302691759276 4.01956379082631e-05 0.000250344558723912 0.000281028952286798 0.00046475949291768 0.000893245138077064 0.000456223808858226 0.000334777286492919 0.000136546510977469 0.000371490057490418 0.000135054629180646 -0.000123553403215504 -0.000312241677056397 0.00025515723741668
"259" 0.000412372825294738 0.000659004909055983 0.00113479067782425 5.71501848774191e-05 0.000387221500347947 0.000271774381628072 0.000457820293977669 0.000910532747555633 0.000536228847010714 0.000415272690503731 0.000187170602740066 0.000442193070236825 0.000195864753574141 -0.000109743870356053 -0.000270905077290728 0.000301463526201059
"260" 0.000411147358309136 0.000693985583086859 0.00118502665510974 7.18049044525561e-05 0.000511691080687707 0.000261411745613031 0.000449453269469231 0.000921715745245517 0.000608373480722714 0.000490458844816434 0.000235093508115298 0.000507597868030836 0.000253911625055942 -9.68192863615278e-05 -0.00022989383426565 0.000345338725082745
"261" 0.00040559667770864 0.00072283965360245 0.00122387659378126 8.41796839264411e-05 0.000622802910792494 0.000250077685321081 0.000439801973046719 0.000926924188177336 0.000672325186291038 0.00056002667049748 0.000280155512186668 0.000567409498717058 0.000308880223236466 -8.47237506441814e-05 -0.000189397307484093 0.000386477791187984
"262" 0.000396063800932578 0.00074569303034899 0.0012516209337261 9.43180005149341e-05 0.000719824222320691 0.000237907600764994 0.000429003670928264 0.000926336968537533 0.000727840538749104 0.000623729676815099 0.000322220375764312 0.000621400399408222 0.000360492690166337 -7.34162270460453e-05 -0.000149605583734431 0.000424607662044973
"263" 0.000382939674175221 0.000762748385987276 0.00126868157526213 0.000102295690960506 0.000802289429966083 0.000225055696211788 0.000417211650738938 0.000920200346284993 0.000774780283472743 0.000681372774575949 0.000361180313822614 0.00066941427622835 0.000408519850637497 -6.28547353611093e-05 -0.000110686397171072 0.000459508126178507
"264" 0.000366615133752045 0.000774254507010362 0.00127558926840778 0.000108196384929665 0.000869969896520678 0.000211670786047891 0.00040458457212619 0.000908819741313768 0.000813106386061274 0.000732819509459645 0.0003969603808557 0.000711384748954244 0.000452786490283218 -5.30246767810882e-05 -7.28037805869023e-05 0.000491015778644043
"265" 0.000347508097491028 0.000780512808857414 0.00127298673236106 0.000112124587548491 0.000922908961652142 0.000197903690337802 0.000391254933710817 0.000892528478474248 0.000842878470282922 0.000777999877876678 0.000429508345454412 0.000747292560682055 0.000493136186641888 -4.39181742237311e-05 -3.61236563909845e-05 0.000518989345996665
"266" 0.000326075572913012 0.000781884465106778 0.00126161618897062 0.000114224012915885 0.0009613908894985 0.000183920728368033 0.000377401475726161 0.000871732886926009 0.000864256310625584 0.00081689273747091 0.000458801240265275 0.000777208441937171 0.000529479292647872 -3.55450056772161e-05 -7.89052981936723e-07 0.000543352287213596
"267" 0.00030275244532054 0.000778762720105129 0.00124230018047912 0.000114632595541305 0.000985948239681242 0.000169877361997022 0.000363177218432164 0.000846868542502178 0.000877494686981571 0.000849543122351269 0.000484847397733729 0.000801261490825261 0.000561760524771726 -2.79246720527407e-05 3.30641588067953e-05 0.000564069691813341
"268" 0.000277988435092477 0.000771571279007988 0.00121590421276066 0.000113512315528226 0.000997298401330008 0.00015592388283124 0.000348719461049052 0.000818386332270248 0.00088293996127597 0.0008760569557197 0.000507677239395325 0.000819648819559275 0.000589967938954863 -2.10953605466696e-05 6.53092076468691e-05 0.000581147056175912
"269" 0.000252229749963677 0.000760765645338024 0.00118335466805042 0.000111039460431847 0.000996362433128226 0.000142211521593805 0.000334181206907788 0.00078678127161567 0.000881015766836697 0.000896591702282155 0.000527351454721713 0.000832617648269044 0.000614124618481658 -1.50907772615807e-05 9.58351954972835e-05 0.000594626726195041
"270" 0.000225910358919723 0.000746815035626956 0.00114559676004169 0.00010739651336391 0.000984184750248361 0.000128885736286185 0.000319709065829874 0.000752556592562386 0.000872215075173103 0.000911359284665214 0.000543955042514842 0.000840485274119041 0.000634306866869357 -9.95475819815568e-06 0.000124547954173401 0.000604601939605316
"271" 0.000199441536422021 0.000730197622118168 0.00110358404477584 0.000102766824426507 0.000961941173891229 0.000116077412544815 0.000305426832397822 0.000716221463329185 0.000857106897761408 0.000920622124131275 0.000557592646831038 0.00084358611616883 0.000650599259356764 -5.73062219320096e-06 0.000151352879592886 0.00061118365913022
"272" 0.000173235978592808 0.00071140258082801 0.00105826800884363 9.73507663304877e-05 0.000930868114028365 0.000103914642412143 0.000291466376224918 0.000678293520669864 0.000836296429591866 0.000924684082061929 0.000568390110553558 0.000842316065349645 0.00066313801456983 -2.44405470902739e-06 0.000176192811383439 0.000614526779505263
"273" 0.000147660247031492 0.000690907692612927 0.00101057933301058 9.13303605888386e-05 0.000892273264394321 9.25092542709674e-05 0.000277945669286176 0.000639286998396581 0.000810434892605686 0.000923891337982424 0.000576497775407107 0.00083709773853367 0.000672082701856716 -1.13524735100313e-07 0.000199012183154371 0.00061480251409813
"274" 0.000123068612274054 0.00066918321581404 0.000961417017424923 8.49028816310101e-05 0.000847448758426326 8.19580505080248e-05 0.000264956375632501 0.000599688999255704 0.000780205335609781 0.000918628366185341 0.000582074523281187 0.000828351421649321 0.000677597340988191 1.25493155447981e-06 0.000219763208442229 0.000612196521859899
"275" 9.97659431676308e-05 0.000646682086163197 0.000911633225209533 7.82447028677965e-05 0.000797692187002561 7.2346043174479e-05 0.000252586331789716 0.000559981721849386 0.000746303788489429 0.000909302993334077 0.000585300602814645 0.000816550339253866 0.000679899956052315 1.6707932332911e-06 0.000238436605042009 0.000606928832593927
"276" 7.80466052213696e-05 0.000623840565041349 0.000862039710545909 7.15366221343717e-05 0.000744262096034202 6.37484144336805e-05 0.000240923213416611 0.000520625123008915 0.000709432220231184 0.000896343878795011 0.000586359334965012 0.000802138511742923 0.000679186637551366 1.17166072649513e-06 0.000255012573855799 0.000599217329670231
"277" 5.81515459983941e-05 0.000601067917097043 0.000813384030687539 6.49403485267602e-05 0.000688368266971732 5.62211561697565e-05 0.000230024435938954 0.000482052036867305 0.000670289617574213 0.000880198565372411 0.000585447312034809 0.000785578227558306 0.000675688180922703 -1.94187305247108e-07 0.000269500829601112 0.000589289591457894
"278" 4.02988912925299e-05 0.00057874498589231 0.000766341617550372 5.86148689131521e-05 0.000631130199901557 4.97990757604222e-05 0.000219939808161788 0.000444654752508135 0.000629560303518593 0.000861324132697662 0.000582769728631135 0.000767319825312447 0.000669641548762986 -2.36117652022716e-06 0.000281916740073449 0.000577389216727065
"279" 2.46464558717552e-05 0.000557212524447409 0.000721525430184048 5.26865437582206e-05 0.000573593271398976 4.45089488984971e-05 0.000210706707755063 0.000408799561475439 0.000587902934108428 0.000840180487483752 0.000578529611643423 0.000747815454827396 0.00066129546702027 -5.24607916087849e-06 0.000292301394737249 0.000563754958779261
"280" 1.13309054834126e-05 0.000536787674143348 0.000679480336674807 4.72901601951179e-05 0.000516718091276497 4.03567357295836e-05 0.000202349210903276 0.00037481736363499 0.000545947306862994 0.000817220770085695 0.000572930248250562 0.000727473699184183 0.000650884446965855 -8.75261512469513e-06 0.000300690696633496 0.000548624924629684
"281" 4.51241680322511e-07 0.000517746158673398 0.000640668133050245 4.25254845901163e-05 0.000461361374146965 3.73348247037943e-05 0.000194872319549424 0.000342995271434362 0.000504284857857412 0.000792899541212048 0.000566177253965387 0.00070670061992045 0.000638661879401134 -1.27797419656328e-05 0.000307139351194274 0.000532230804363521
"282" -7.94162282475675e-06 0.000500325789514312 0.000605484455168977 3.84874001913423e-05 0.000408278138936487 3.54211634559899e-05 0.000188286199697585 0.000313594193134863 0.000463460754090645 0.000767644762607718 0.000558470674002213 0.000685874195881387 0.000624876912773677 -1.72148425372848e-05 0.000311711025291639 0.000514813082189052
"283" -1.3827223188211e-05 0.000484728903944512 0.000574248142482833 3.52487329454924e-05 0.000358141464551119 3.45821626243998e-05 0.000182567359089878 0.000286817446986529 0.000423982079900223 0.000741878353033123 0.000550003482648928 0.000665339081811415 0.000609773230347518 -2.1938797277726e-05 0.000314482125085486 0.000496586355506693
"284" -1.7221603720906e-05 0.000471117658474661 0.000547199887795312 3.28627139870933e-05 0.000311507050484908 3.4763920479186e-05 0.000177705933455296 0.000262846720103644 0.000386293041975167 0.000715990567388428 0.000540958228173511 0.000645414843565228 0.000593592670177088 -2.68391450726866e-05 0.000315530565315881 0.000477776106024677
"285" -1.81652944697236e-05 0.00045961836155895 0.000524520430841401 3.13743369376069e-05 0.000268860187298829 3.59124525467599e-05 0.000173660987664712 0.000241819471169107 0.000350790665805275 0.000690352512164844 0.000531514978666955 0.000626384601458814 0.000576572300949348 -3.18072669558929e-05 0.000314936573656122 0.000458581802865722
"286" -1.67513988523539e-05 0.000450319321299082 0.0005063101989588 3.07978005087389e-05 0.000230580261386954 3.79503166845121e-05 0.00017039291257175 0.000223829893242366 0.000317817886922666 0.000665307128994596 0.000521838210277463 0.000608504765049126 0.000558941770852187 -3.67379585997753e-05 0.000312796185633923 0.000439203193878549
"287" -1.30813701520761e-05 0.000443269119648795 0.000492608404267024 3.1144662774183e-05 0.000196957829505251 4.08026715203226e-05 0.000167871836624361 0.000208956034344813 0.000287655643487794 0.000641153803319652 0.000512076534926082 0.000591986734508812 0.000540928233692853 -4.15267782357475e-05 0.000309198550448634 0.000419829757337682
"288" -7.29230862302569e-06 0.00043849086978639 0.000483394094411118 3.24011896185098e-05 0.000168224856976244 4.43796983348793e-05 0.000166032667144724 0.000197220178494447 0.000260536559173582 0.000618176895413082 0.000502372915176948 0.000577024584217355 0.00052274558535473 -4.60954619635215e-05 0.000304239436229317 0.000400625485289926
"289" 4.58156798847142e-07 0.000435962190408888 0.000478581711151043 3.45493394900732e-05 0.000144503615505351 4.85870957320222e-05 0.00016483402393009 0.000188627143113561 0.000236635048387218 0.000596611859437545 0.000492853424042061 0.00056376869594209 0.000504603051981033 -5.03606219314744e-05 0.000298020629949515 0.000381760215602616
"290" 9.99679183614371e-06 0.000435644099024446 0.000478034508316144 3.75494550869653e-05 0.000125876858619377 5.33278412993814e-05 0.000164210536124509 0.000183147437363715 0.000216076268052776 0.00057666499880843 0.000483630412958177 0.000552338815733981 0.000486694008516618 -5.42632455340256e-05 0.000290633457123431 0.000363373039030732
"291" 2.11226229646534e-05 0.000437454636701183 0.000481557982903981 4.13543119775953e-05 0.000112351858156757 5.85002990313045e-05 0.000164109987285546 0.000180723667904653 0.000198928122184111 0.000558512729791118 0.000474800344898967 0.000542828226849749 0.000469212151835405 -5.77539391879604e-05 0.000282184502566956 0.000345599720150712
"292" 3.36218376873645e-05 0.000441288591131632 0.000488912537708077 4.58999481109893e-05 0.000103853576457689 6.39966298556389e-05 0.000164470748449986 0.000181275764562746 0.000185213163153138 0.000542285308932876 0.000466450519828758 0.000535303646734883 0.000452339137544113 -6.07950541844387e-05 0.000272766002081065 0.000328563113283717
"293" 4.72830861827154e-05 0.000447026516023657 0.000499823252693355 5.11228177232275e-05 0.000100277802672745 6.97197784162741e-05 0.000165243814347354 0.000184702144105226 0.000174907703117267 0.000528085412886056 0.000458649571054204 0.000529793535423189 0.000436236484393868 -6.3364670540596e-05 0.000262478814933347 0.000312366105304588
"294" 6.18706258761381e-05 0.000454507714322043 0.000513960446490574 5.69399438938988e-05 0.000101437111919992 7.556198395491e-05 0.000166372422554952 0.000190876140576416 0.000167942149663675 0.000515978916980017 0.000451453311712444 0.000526313063105032 0.000421063519417953 -6.54548144415473e-05 0.000251419500839401 0.000297102870305018
"295" 7.7150196174308e-05 0.000463570698625846 0.000530975374789384 6.32666370866344e-05 0.000107138988349042 8.14269508105743e-05 0.000167799662210222 0.00019965768103191 0.000164212245521401 0.000506006911971524 0.000444908939830409 0.000524846047362028 0.000406966539184301 -6.70634522894794e-05 0.000239684012348408 0.000282847585301478
"296" 9.28928122421535e-05 0.000474018920741996 0.00055048064486863 7.00181419678107e-05 0.000117093372752348 8.72152917064332e-05 0.000169477553678347 0.00021088603150892 0.000163575735495818 0.000498174120415478 0.000439047023171631 0.000525359465665758 0.000394078477316251 -6.82062687766564e-05 0.000227362913872201 0.000269666801465346
"297" 0.000108857274203541 0.000485653694709629 0.000572069420075614 7.70956033246117e-05 0.000131011617081263 9.28371862085269e-05 0.000171360808486876 0.000224388749736057 0.000165856009262504 0.000492460241547433 0.000433888621999481 0.000527798862959606 0.000382518576408689 -6.89105984854879e-05 0.000214547840188043 0.000257603572804237
"298" 0.000124809463750202 0.000498252142512012 0.000595308691736084 8.44017765762002e-05 0.000148528450885632 9.82023345913724e-05 0.000173409330434338 0.000239978222580069 0.000170847782270834 0.000488813343122235 0.000429444848178404 0.000532090220596035 0.000372397045341122 -6.92051608993932e-05 0.000201328163501388 0.000246696642363591
"299" 0.000140531992452186 0.000511595702819713 0.000619760486681714 9.18391555949737e-05 0.000169271343501308 0.000103236542588248 0.000175588228238574 0.000257467251689892 0.00017832089544281 0.00048716411437919 0.000425717091179343 0.000538148490494672 0.000363808002053231 -6.91356235199447e-05 0.00018778896558625 0.000236974429324977
"300" 0.000155810189740327 0.000525449672133895 0.000644976139498617 9.93119660822534e-05 0.000192846315913638 0.000107867937674245 0.000177866687935435 0.000276654035567421 0.000188027503187394 0.000487418118467808 0.000422695727323853 0.00054586514725206 0.000356829844799368 -6.87452417172385e-05 0.000174018602452343 0.000228432291103615
"301" 0.000170426556650968 0.000539569765449351 0.000670489338491215 0.000106712416332457 0.000218803549354418 0.000112028045435302 0.000180216988064478 0.000297328860884847 0.000199692379522297 0.000489460457167221 0.000420365602352932 0.000555135698019878 0.000351535063546714 -6.8091317195981e-05 0.000160098809215641 0.0002210764522816
"302" 0.000184203522241945 0.000553725337381232 0.000695860776498058 0.00011395459593304 0.000246719612551007 0.000115668692325873 0.000182616092159056 0.000319279900512657 0.000213045003052468 0.000493169761698222 0.000418708164747009 0.000565827407667335 0.000347970833436252 -6.7224470434711e-05 0.000146105420753949 0.000214879214407103
"303" 0.000196957865296452 0.000567670484631863 0.000720636982879779 0.000120940821425848 0.000276106602017577 0.000118741947123491 0.000185052991980045 0.000342299905174769 0.000227785681182734 0.000498393919059117 0.000417691270751688 0.000577809282670895 0.000346179079600448 -6.62078562641707e-05 0.000132119223420112 0.000209818643831052
"304" 0.000208538588199789 0.000581177505351457 0.000744391422491053 0.000127584602760238 0.000306507682472264 0.000121214282095555 0.000187523729662433 0.000366182387365487 0.000243619912653871 0.000504979608984721 0.000417284183398232 0.000590947341375961 0.000346189146329574 -6.50980559487245e-05 0.000118220652926444 0.00020585650462755
"305" 0.000218784467335186 0.000594005144940896 0.000766696791447144 0.000133791364493547 0.000337440970143414 0.000123053170730037 0.000190008265009138 0.000390702804369976 0.000260250737549968 0.000512767831588392 0.000417454496505572 0.00060509249211334 0.000348010621332258 -6.3958382015695e-05 0.000104476972927866 0.00020293949935454
"306" 0.000227590335916407 0.000605944698465145 0.000787174436139759 0.000139497225523627 0.000368454812390874 0.000124251743762113 0.000192513694184165 0.000415662925241588 0.000277383110450219 0.000521588284885658 0.000418159305874583 0.000620089528467416 0.000351632147760447 -6.28407619499937e-05 9.0959187733669e-05 0.000201003460665995
"307" 0.000234848815589984 0.000616779151027829 0.00080545271000016 0.000144620604875772 0.000399085676961957 0.000124799955324119 0.000195045502106057 0.000440862788025542 0.000294723071783297 0.00053126352178189 0.000419361275625087 0.000635801898582738 0.00035704978002058 -6.18022138895632e-05 7.77377033530796e-05 0.000199986928162913
"308" 0.000240477233066883 0.000626311841742357 0.000821198961388479 0.000149098449966732 0.000428892559350488 0.000124699298131629 0.000197609104303962 0.000466106159371288 0.000311987133216111 0.000541613905988572 0.000421013633641984 0.000652057203642402 0.000364218092619045 -6.09010176745867e-05 6.48730759705941e-05 0.000199810676630723
"309" 0.000244411030977481 0.000634364161536171 0.000834116901593787 0.000152873623234164 0.000457466067594381 0.000123967095645708 0.000200223239407882 0.000491209349058703 0.00032890522104256 0.000552468289878103 0.000423077810302212 0.000668722922163073 0.000373109813298933 -6.0175498429339e-05 5.2436669619985e-05 0.000200397418664915
"310" 0.000246617098510799 0.000640772293061123 0.000843952879558161 0.000155897777941132 0.000484415788743047 0.00012262651138726 0.000202899770325298 0.000515998881366804 0.000345222218321717 0.000563645627161184 0.00042550784764803 0.000685634551623103 0.000383656487832222 -5.96824652074272e-05 4.04804659027726e-05 0.000201660384413002
"311" 0.000247076253871548 0.000645393274639675 0.000850493634949633 0.000158133746576335 0.000509414500122082 0.000120706933825402 0.000205643871919668 0.000540302287095394 0.000360702811413789 0.000574983471000373 0.000428264785641509 0.000702641591469535 0.00039578821060262 -5.94503206977943e-05 2.90554082489873e-05 0.000203494480804971
"312" 0.000245793269501636 0.000648103834906969 0.000853569628761752 0.000159546798961248 0.000532134513128393 0.000118250392237625 0.00020849307457495 0.000563977715193292 0.000375123091275116 0.000586308801682598 0.000431304861488414 0.00071960476708108 0.00040942553883244 -5.95208552817716e-05 1.82218861325083e-05 0.000205818841502357
"313" 0.000242780704052833 0.000648797586021336 0.000853054453700612 0.000160114758022708 0.000552303136418792 0.000115297045767787 0.000211460796334124 0.000586875656796038 0.000388289088090284 0.00059746991663714 0.000434590608944038 0.000736383465550106 0.00042448104720779 -5.99205522008313e-05 8.0281495172024e-06 0.000208537815083833
"314" 0.000238095643778942 0.000647406081962226 0.000848884547524153 0.000159830148329982 0.000569735920478171 0.000111908664729894 0.000214564214507648 0.000608875717245448 0.000400033311801827 0.000608315340475945 0.000438084129511662 0.00075283053334565 0.000440835228264881 -6.06730606737192e-05 -1.49031191613482e-06 0.000211540723397683
"315" 0.000231790400404207 0.000643871521317251 0.000841026664266199 0.000158686456989002 0.000584241200526582 0.000108142091587289 0.000217832172522941 0.000629866032067565 0.000410203534595821 0.000618700876835472 0.000441746409667896 0.000768825390354627 0.000458384246443861 -6.18013029696304e-05 -1.02913222525805e-05 0.000214739449230941
"316" 0.0002239374473227 0.000638166398779413 0.000829506150043768 0.000156685547153888 0.000595726544733763 0.000104060596426923 0.00022128392147548 0.000649755602656672 0.000418686118357263 0.000628506322731587 0.000445546387478737 0.000784244394884232 0.000477004175692592 -6.3311745593458e-05 -1.8336076258651e-05 0.000218037268253768
"317" 0.00021464115178359 0.000630286233410245 0.000814389665101306 0.000153848412072499 0.000604113015548999 9.97302980645413e-05 0.000224942256493863 0.000668460107174498 0.000425384240441241 0.0006376075147308 0.00044945326567176 0.000798967739304744 0.000496564009979115 -6.5224505922472e-05 -2.55994778186845e-05 0.000221340320797633
"318" 0.000204003637948169 0.000620257225546448 0.000795794633444654 0.000150194894439917 0.000609408791770277 9.52318979549513e-05 0.000228833836917002 0.000685922774670163 0.000430233254013243 0.000645900209297089 0.000453437631431427 0.00081288961611573 0.000516916781568174 -6.75363270467634e-05 -3.20575155974411e-05 0.000224561018013697
"319" 0.0001921427178761 0.000608121588660244 0.000773874214984767 0.000145758356327035 0.000611644613784501 9.06336481937803e-05 0.00023296567971341 0.000702087121385546 0.000433203380657232 0.000653296489606722 0.000457471062098092 0.000825909328215476 0.000537920928652176 -7.02527688367467e-05 -3.76921000644754e-05 0.000227610028504884
"320" 0.000179193528611012 0.000593953176520069 0.000748827575622142 0.000140583845367032 0.000610919913083655 8.60122623193345e-05 0.000237361478703182 0.000716931760441663 0.000434284747439002 0.000659714369123107 0.000461532084124083 0.000837930399248491 0.000559414701950848 -7.33722411837757e-05 -4.24913761548581e-05 0.000230407658467677
"321" 0.000165285762555839 0.00057784124635339 0.000720883738425828 0.000134702986789365 0.000607368943136847 8.14443209960401e-05 0.000242034672082516 0.000730436180025925 0.000433495183388097 0.000665088811693015 0.000465598230020315 0.000848882571731938 0.000581252110792561 -7.68832582372883e-05 -4.64390141100368e-05 0.000232883739686564
"322" 0.000150573122554933 0.000559904899732426 0.000690308722319506 0.00012818183954411 0.000601169741610067 7.7008148762169e-05 0.000246995753841669 0.000742599045117228 0.000430882701433023 0.000669370030206818 0.000469651164222915 0.000858682997199821 0.00060325802135155 -8.07781785574031e-05 -4.95410759594374e-05 0.000234965634145835
"323" 0.00013520862306956 0.000540278833450875 0.000657392005189192 0.000121080625105947 0.000592527338539088 7.27739395505641e-05 0.000252253905777298 0.000753438012527783 0.00042651537229721 0.000672515336653741 0.000473669196241613 0.000867265132097064 0.000625270923942272 -8.50394519614684e-05 -5.18005294311277e-05 0.000236591254868305
"324" 0.000119334077715625 0.000519113602919734 0.000622444780195774 0.000113455312774919 0.000581680024983699 6.88138794396816e-05 0.000257813770951594 0.000762974835128029 0.000420482388289116 0.000674499523001997 0.000477639829554014 0.00087458063980852 0.000647123507903562 -8.96542940552082e-05 -5.32217678266807e-05 0.000237712915833739
"325" 0.000103112144871167 0.00049658121920546 0.000585802991763043 0.000105383931096006 0.000568902876383707 6.51973763922952e-05 0.000263671046903932 0.000771250915802468 0.000412907997000478 0.000675314446588508 0.000481547731164371 0.00088057484964994 0.000668638563618774 -9.46006136696312e-05 -5.38265119393858e-05 0.000238275185652478
"326" 8.66870147227402e-05 0.000472865289042108 0.000547811435419141 9.6929009800111e-05 0.000554475186203373 6.19885141490468e-05 0.000269827983624421 0.000778316122295253 0.000403914263128967 0.000674953015978624 0.000485379013326197 0.000885217732198518 0.000689650595105132 -9.98569442980155e-05 -5.36280190767121e-05 0.000238251954668497
"327" 7.02122896285651e-05 0.000448160489998717 0.000508820046928868 8.81698899828797e-05 0.000538688408842381 5.92425796040329e-05 0.000276278036872074 0.000784231148181508 0.000393651737869962 0.00067342316760627 0.000489119838883739 0.000888467307946334 0.000709981127115074 -0.000105402144184762 -5.26604196391787e-05 0.000237605774564076
"328" 5.38333562216254e-05 0.000422674660147941 0.00046919132186904 7.91861091734896e-05 0.000521851585110837 5.70155531231425e-05 0.000283012895871767 0.000789065699715695 0.000382282414916006 0.000670751391172729 0.00049275948791331 0.000890308646874725 0.000729470950213194 -0.000111202957050906 -5.0946221332783e-05 0.000236314817092486
"329" 3.76804870271245e-05 0.000396616242683339 0.000429277101911742 7.00527637297721e-05 0.00050426666415262 5.53515659361878e-05 0.000290007282263073 0.000792891519994235 0.000369983196776151 0.000666965802167376 0.000496286821633083 0.000890722836157981 0.000747947228076837 -0.000117233946319351 -4.85250530780423e-05 0.000234367704453561
"330" 2.18878243522066e-05 0.000370211016061577 0.000389435811561935 6.08473555219175e-05 0.000486257362750766 5.42949526773478e-05 0.000297249960201366 0.000795795541478979 0.00035693339501862 0.000662105018248617 0.000499689628704485 0.000889696576647554 0.000765241817984695 -0.000123458868154313 -4.54425878328472e-05 0.000231750468387663
"331" 6.57333022871169e-06 0.000343670615970828 0.00035000534395477 5.16502129587619e-05 0.000468094360597825 5.38704560828987e-05 0.000304721121973164 0.000797862399663099 0.00034331945220109 0.000656215564667394 0.000502958205409295 0.000887230661007807 0.000781203831273819 -0.000129846788027884 -4.17382881318676e-05 0.000228471855526412
"332" -8.15903702362064e-06 0.000317223492705895 0.000311319169054207 4.25295200026523e-05 0.000450086630476002 5.41087947272002e-05 0.000312382698397456 0.000799183042939425 0.000329330071485 0.000649354965067065 0.000506078570549691 0.000883324262544656 0.000795675146705872 -0.000136365460308344 -3.74635617839567e-05 0.000224534880327594
"333" -2.22065709980891e-05 0.000291078005752068 0.000273687525289063 3.35677572618312e-05 0.000432484765727827 5.50195230426139e-05 0.000320217865029992 0.000799841107368752 0.00031515452234466 0.000641582582636522 0.000509041598720317 0.00087798905096102 0.000808515085577439 -0.000142971386508131 -3.26690386442593e-05 0.000219951315687105
"334" -3.54881350021519e-05 0.000265453251823605 0.000237411457255534 2.4828813055562e-05 0.000415565055266038 5.66173644443619e-05 0.000328185573362404 0.000799935312567379 0.00030097812541035 0.00063296221250097 0.000511830967970236 0.000871232350288267 0.000819581182975707 -0.00014963444735494 -2.74159081797776e-05 0.000214744859760039
"335" -4.7930851497579e-05 0.000240558866274052 0.000202763624084985 1.63877365792841e-05 0.000399549397373799 5.889546691728e-05 0.000336248846103659 0.000799548051447735 0.00028698835301889 0.000623568286913974 0.000514435810106352 0.000863069026469462 0.000828747329980535 -0.000156307101819179 -2.17622563623816e-05 0.000208932409469211
"336" -5.94897363563495e-05 0.000216581785837226 0.000169986349706922 8.29372910602559e-06 0.000384639959134915 6.1844217873477e-05 0.00034437713092138 0.000798773406456249 0.000273350016138178 0.000613469316856662 0.000516839775934466 0.000853529078200925 0.000835898562176833 -0.000162962321736453 -1.57662726590538e-05 0.00020255772537856
"337" -7.01094295335278e-05 0.000193719443494374 0.000139317022421917 6.18073476051461e-07 0.000371044315990428 6.54495293367207e-05 0.000352516874677032 0.000797685495788938 0.000260237153260079 0.000602744874475405 0.000519031247809166 0.000842627592195076 0.000840928508558702 -0.000169559674575934 -9.49766624941298e-06 0.000195643633747463
"338" -7.97739665087638e-05 0.000172134914436582 0.000110940479456798 -6.59714626972075e-06 0.000358901811381991 6.96749024214677e-05 0.000360629993446919 0.000796361034539409 0.000247796563070204 0.000591474954943609 0.00052099326997344 0.000830403902763024 0.000843752611959445 -0.000176051804981148 -3.01197657122168e-06 0.000188235360694499
"339" -8.84552497423649e-05 0.000152004243048397 8.50402418030987e-05 -1.32945887728235e-05 0.000348371845868447 7.44976896317449e-05 0.000368672247057969 0.000794879119714826 0.000236168579077402 0.000579730253616843 0.000522708477994119 0.00081687745944199 0.000844281062290584 -0.000182410798635637 3.61439321556554e-06 0.000180369704957722
"340" -9.61615366639029e-05 0.000133461063012208 6.17488225802107e-05 -1.94374177801359e-05 0.000339550460595814 7.9869249957749e-05 0.000376594592062025 0.000793300341451902 0.000225480973075141 0.000567596566088654 0.000524160246704283 0.000802092437837463 0.000842461929536199 -0.000188596591166315 1.03221455622896e-05 0.000172093916718765
"341" -0.000102900560000782 0.000116641588106358 4.11838571453041e-05 -2.49951678486424e-05 0.000332527900399579 8.57438489524932e-05 0.000384355741034444 0.00079168975640021 0.000215839543515029 0.000555147323604751 0.000525335149488087 0.000786089302137702 0.000838253747605525 -0.000194573817576603 1.70469842232743e-05 0.000163459969571137
"342" -0.000108701297836502 0.00010166200781323 2.34299197740493e-05 -2.99296880720425e-05 0.000327353056109572 9.20628273308906e-05 0.00039190291782875 0.000790088494613171 0.000207345516421624 0.000542466926994623 0.000526214692238279 0.000768911066120486 0.000831624288838289 -0.000200314471844408 2.37254333158971e-05 0.000154515592748353
"343" -0.000113588254601014 8.86141879255987e-05 8.54198204709901e-06 -3.42197168081731e-05 0.000324059117327827 9.87693997168931e-05 0.000399196787314261 0.000788546011902977 0.000200069310030436 0.000529623397520699 0.000526785452882394 0.000750606461187015 0.000822574829148309 -0.000205781860516571 3.02993107101823e-05 0.000145314740112414
"344" -0.000117614066273122 7.75796340665236e-05 -3.44728088458239e-06 -3.78491214823016e-05 0.000322661899900734 0.000105793331006074 0.00040617898313688 0.000787091078716387 0.000194075238702253 0.000516698892298889 0.00052703393427965 0.00073122203192953 0.000811105254102673 -0.0002109444386003 3.67037272975332e-05 0.000135903746573289
"345" -0.000120829894784991 6.8621847662241e-05 -1.25350598102552e-05 -4.08051622476379e-05 0.000323134420660514 0.000113071317064537 0.000412822997470589 0.000785757680820215 0.000189406636864218 0.000503762760331153 0.000526946631465487 0.000710824981368469 0.000797259862724743 -0.00021577293343006 4.28920494014877e-05 0.00012635079907375
