"V1" "V2" "V4" "V5" "V7" "V8" "V10" "V11" "V13" "V14" "V15" "V17" "V18" "V20" "V21" "V23"
"1" 0.000345234814246776 5.06293245161561e-05 0.000284601976545509 -0.000139445268289126 0.000291328114356362 0.000338290940863693 0.000173684442089304 0.00013074636177535 -0.000476589180453262 0.00102743318555777 0.000104612209972202 0.000179275420538147 0.000476802156010721 0.000220475715399448 -0.000989092647887539 -0.00103966229544991
"2" 0.000349158205819745 4.23304308510581e-05 0.000279298557969928 -0.000140001252771064 0.00029029797130256 0.000340170888956431 0.000169864908179053 0.000133150006363798 -0.000649248380135444 0.00105821423436052 0.000100060131868012 0.000171586743987302 0.000468746698831296 0.000191767625560773 -0.000964574439316979 -0.0010927824181273
"3" 0.000352322962033766 3.35577509266879e-05 0.000273661773409666 -0.00014047522054754 0.000289413348982882 0.000341194950902533 0.000165817543813556 0.000134895155985612 -0.000800076505723731 0.0010804837217074 9.59823389101102e-05 0.00016347657966766 0.000459540246136696 0.000161050949600259 -0.000934461118096213 -0.00114139447232684
"4" 0.00035477655100991 2.44489528502987e-05 0.000267764862959417 -0.000140858991376303 0.000288681451506201 0.000341367498262441 0.000161605661059844 0.000136001168094199 -0.00092744652190334 0.00109428634864688 9.24421391722962e-05 0.00015500064243809 0.000449268038482067 0.000128591840548665 -0.000898619429487638 -0.00118517025615872
"5" 0.000356572329751445 1.51615904659595e-05 0.000261696095401291 -0.000141137830393995 0.00028812953970696 0.000340715243428095 0.000157314636012297 0.000136519955255177 -0.00102987292077685 0.00109969289345151 8.94976008654167e-05 0.000146212898993604 0.000438029953772338 9.4663544891211e-05 -0.000856957113722697 -0.00122382239826573
"6" 0.000357768686878858 5.84414349376305e-06 0.000255535841703489 -0.000141301957489079 0.000287776262376722 0.00033926299770093 0.000153009454566437 0.000136485674615459 -0.00110608909710594 0.00109690072557818 8.71994961752751e-05 0.000137166544602919 0.000425916796716875 5.95512873569347e-05 -0.000809435457876259 -0.00125708889660874
"7" 0.000358422027937314 -3.34763227724862e-06 0.000249373530065171 -0.000141345275372452 0.00028763509886388 0.000337051808987575 0.000148772882515469 0.000135958620336204 -0.00115501009214596 0.00108613569343258 8.55780739716019e-05 0.000127913891682717 0.000413029226555893 2.35433868081476e-05 -0.000756081541118327 -0.00128474985394242
"8" 0.000358598243080498 -1.22566088084794e-05 0.000243289329614896 -0.00014125285585572 0.000287721678228857 0.000334124627013637 0.000144672521391369 0.000134991867669862 -0.0011757938904294 0.00106771750183691 8.46660712677609e-05 0.000118511495945201 0.000399473634475663 -1.30670646409782e-05 -0.000696962528122727 -0.00130661459965272
"9" 0.000358362583888801 -2.07278102284403e-05 0.000237369539872346 -0.000141016249993776 0.000288046159376418 0.000330537980683704 0.000140784165006722 0.000133651739143254 -0.00116780530829245 0.00104201727860407 8.44766611195473e-05 0.000109010157341651 0.000385352255784331 -4.99827754752203e-05 -0.000632208782223856 -0.00132253757873971
"10" 0.000357779214590528 -2.86178369255733e-05 0.000231697905869331 -0.000140631199822094 0.000288613781828855 0.000326350548469166 0.000137179712508836 0.000132004798965481 -0.00113069364182211 0.00100947093806566 8.50191430234245e-05 9.94629971765204e-05 0.000370773150228345 -8.69126030593376e-05 -0.000562005543885097 -0.00133240764304841
"11" 0.000356914655606034 -3.57797314225027e-05 0.000226351493579452 -0.000140094806469433 0.000289431492132582 0.000321630367757152 0.000133920794300947 0.000130122797402251 -0.00106435682275679 0.000970557087285616 8.62911443499013e-05 8.99183573807147e-05 0.000355836819158691 -0.000123573411258708 -0.000486594810444106 -0.001336157553254
"12" 0.000355832320240267 -4.20740160537255e-05 0.000221409069294125 -0.000139390577569333 0.000290496944501032 0.00031645198466615 0.00013106895818329 0.000128076244151373 -0.000968999239263452 0.000925812256856211 8.8279595054517e-05 8.04297442824809e-05 0.000340650694110777 -0.000159680037771249 -0.000406269596000306 -0.00133376404891366
"13" 0.000354595298386437 -4.7381407364652e-05 0.000216940344655102 -0.00013851997022781 0.000291806729678303 0.000310892200274046 0.000128683204325015 0.000125944243218516 -0.000845129864408086 0.000875810445157199 9.0967326246095e-05 7.10410476287123e-05 0.00032531304739423 -0.000194961389879871 -0.000321377012233213 -0.0013252425259292
"14" 0.000353263407274237 -5.15797753876595e-05 0.000213016180221793 -0.000137480967221334 0.000293353227373045 0.000305030054552825 0.000126816395685632 0.000123801867988764 -0.000693585198879229 0.0008211605728631 9.43261593513013e-05 6.17990469660946e-05 0.00030992514195285 -0.000229153832940928 -0.000232315324519424 -0.00131065037540877
"15" 0.00035189359336433 -5.45637732356164e-05 0.000209698658765532 -0.00013625526052275 0.000295134865444864 0.000298959962156902 0.000125509448951496 0.00012172895028559 -0.000515521208190615 0.000762494174989672 9.83195902112723e-05 5.2750865803731e-05 0.000294584005593595 -0.000262010640553674 -0.000139529102982406 -0.00129009434641641
"16" 0.000350534486317055 -5.62383672312971e-05 0.000207041686425354 -0.000134843208749204 0.000297131361418075 0.000292761441254015 0.000124796655153356 0.000119798215414806 -0.000312448076729893 0.00070047897330995 0.000102911827981995 4.39354152514135e-05 0.000279379817143156 -0.000293290495449178 -4.35043763174355e-05 -0.00126371459812395
"17" 0.000349236218570572 -5.65277485113382e-05 0.000205095239681559 -0.000133234752450784 0.000299327800826945 0.000286531784015354 0.000124710867533177 0.000118086290754813 -8.62040053348602e-05 0.000635796366449407 0.000108056023746131 3.53961047283982e-05 0.000264404518857051 -0.000322772384764002 5.52263684256899e-05 -0.00123170137128
"18" 0.000348035372693501 -5.5366743214669e-05 0.000203899062312089 -0.000131421359459414 0.000301702470550345 0.000280354748831752 0.000125273420282347 0.000116662135295655 0.000161035387387748 0.000569148226525419 0.00011369869676904 2.71651069857258e-05 0.000249736209441838 -0.000350250268527443 0.000156088946324806 -0.00119428162728406
"19" 0.000346966890966305 -5.27045139593203e-05 0.000203492596801704 -0.000129391276667007 0.000304235723345099 0.000274322626051783 0.000126491760248448 0.00011559862730936 0.000426776631072475 0.00050123466250196 0.000119792330577678 1.92798084754796e-05 0.000235451034079206 -0.000375529713578938 0.000258481998392341 -0.00115172000854839
"20" 0.000346055725978324 -4.85120231416657e-05 0.000203896121150554 -0.000127135120196404 0.000306893414065918 0.000268523049030426 0.000128371806023548 0.000114956062720247 0.000708224254086625 0.000432761455206381 0.000126276976271215 1.17696350648847e-05 0.000221623966975606 -0.000398436506535365 0.00036177391536693 -0.00110432482760076
"21" 0.000345322662439971 -4.27678291798432e-05 0.000205128330730535 -0.000124640492668974 0.000309650624113065 0.000263041076623788 0.000130906259088439 0.000114793682009604 0.00100232653785135 0.000364442724486419 0.000133096690798816 4.66563005358513e-06 0.000208312849333186 -0.000418811391932967 0.000465300284024167 -0.00105243424016206
"22" 0.000344778128955983 -3.54841027435808e-05 0.000207195751072359 -0.000121895814709679 0.000312469087429221 0.00025795138404678 0.000134077071550287 0.00011516296285195 0.00130576948050754 0.00029697986712689 0.000140189396547035 -2.00999564200037e-06 0.000195579213771848 -0.00043651313481355 0.000568380397273976 -0.000996424811669921
"23" 0.00034442239041225 -2.66716160125694e-05 0.000210096288747879 -0.000118881172555757 0.000315314243845663 0.000253336940412687 0.000137854022009557 0.000116105966540542 0.00161506056865902 0.000231065431544738 0.000147500121107861 -8.23696433032475e-06 0.000183469338822274 -0.000451419346616165 0.00067031542621029 -0.000936702991714709
"24" 0.000344248741307056 -1.63714491444473e-05 0.000213823467402221 -0.000115592145679427 0.000318143172765295 0.000249263478654859 0.00014220792494431 0.000117666063635719 0.00192654920714086 0.000167361455812118 0.000154970088104942 -1.39948948707574e-05 0.000172026957064287 -0.000463425560224924 0.000770393944898542 -0.000873707072501078
"25" 0.00034424622911619 -4.64100366249732e-06 0.000218354748022658 -0.000112014307168246 0.000320915445372125 0.000245790653311304 0.000147087441116912 0.00011986550824019 0.00223647007753121 0.00010652976366596 0.000162541224456092 -1.92717038535538e-05 0.000161287887455714 -0.000472444000964582 0.000867897751886342 -0.000807896743035277
"26" 0.000344387609672565 8.44206836575614e-06 0.000223659514166838 -0.000108142360489359 0.000323579757676087 0.000242976203892667 0.000152439030828804 0.000122723797504645 0.00254102218641006 4.91874791583232e-05 0.000170155454505347 -2.40590117245737e-05 0.000151272893207796 -0.000478409072009815 0.000962110979955151 -0.000739760499835894
"27" 0.000344641032413424 2.27881212075939e-05 0.000229696908458194 -0.000103962327932153 0.000326086971441416 0.000240859542938224 0.000158189478207462 0.000126252965084352 0.00283639059334345 -4.07341814869094e-06 0.000177766245874962 -2.83495458300358e-05 0.000142006990446119 -0.000481266335286645 0.00105231976071997 -0.000669800020984138
"28" 0.000344967826358374 3.82894212845526e-05 0.000236425742390019 -9.94649958619351e-05 0.000328391043996436 0.000239484034131187 0.000164273480124878 0.000130448886364255 0.00311883281415348 -5.2708918849089e-05 0.000185323206359213 -3.21440367934614e-05 0.000133497569389114 -0.000480990816021907 0.00113782114352035 -0.000598540759817867
"29" 0.000345320740279626 5.48126762609602e-05 0.000243779311860301 -9.46630241515276e-05 0.00033043240234122 0.000238862012660318 0.000170600834787791 0.000135294184373872 0.00338471044821106 -9.61964739779048e-05 0.000192780490669449 -3.54465250650216e-05 0.000125739432571783 -0.000477565023092115 0.0012179297942874 -0.000526509199023416
"30" 0.000345642224010938 7.22204533653453e-05 0.000251702869578854 -8.95497346716732e-05 0.000332164060910642 0.000239021758778648 0.000177085259096196 0.000140777276925515 0.00363059037420152 -0.000134099608281874 0.000200093622747844 -3.8259376545219e-05 0.000118737390315651 -0.000470997054610788 0.00129198720824812 -0.000454253263611819
"31" 0.000345869202633163 9.03531423451393e-05 0.000260119244498681 -8.41366459016474e-05 0.000333523210260112 0.000239957267727891 0.000183626605029666 0.000146854479170204 0.00385323952711038 -0.000166014113521729 0.000207232799498397 -4.06007226822319e-05 0.000112474216880791 -0.000461314307016888 0.00135935340963947 -0.000382314123808999
"32" 0.000345934036830457 0.000109038273430195 0.000268946192462217 -7.84448350793785e-05 0.000334454764052299 0.000241662551823631 0.000190118342419928 0.000153484956480593 0.00404970422229954 -0.000191599179798691 0.000214161526563721 -4.2485436126177e-05 0.000106925254532046 -0.000448558494163304 0.00141943778158603 -0.000311227450162925
"33" 0.000345760482469373 0.000128093631150345 0.0002780995591586 -7.24927427570163e-05 0.000334902258258003 0.000244113951191843 0.000196449984404946 0.000160608810117697 0.00421735944575489 -0.000210575543743844 0.00022085830413888 -4.39350787255624e-05 0.000102065620289636 -0.00043279231583112 0.00147167784340387 -0.000241525899599102
"34" 0.000345271046686776 0.000147320777184339 0.000287482535552443 -6.631750193962e-05 0.000334805752264762 0.000247281673781694 0.000202510879408967 0.000168161404532587 0.0043539316385211 -0.000222754444362294 0.000227300463387267 -4.49738384615453e-05 9.78599348334969e-05 -0.000414100715851926 0.00151557242881352 -0.000173729988689587
"35" 0.000344378946797511 0.000166522249873076 0.000297004070890494 -5.99536356705695e-05 0.000334115011854762 0.000251120315457736 0.000208180361284039 0.000176066233220324 0.00445754442596706 -0.000228008980209965 0.000233471155083417 -4.56331393106733e-05 9.42631462101003e-05 -0.000392582401418467 0.00155067044511811 -0.000108338383685882
"36" 0.00034300033194254 0.000185488003977475 0.000306558185014606 -5.34493693340601e-05 0.000332774053166635 0.000255578838568347 0.000213343028122609 0.000184236960968941 0.00452675084077864 -0.000226294067895863 0.000239363890148847 -4.59441900494529e-05 9.12290874680297e-05 -0.000368360541049801 0.00157657984224182 -4.58329361716984e-05
"37" 0.000341048148771867 0.000204004064501171 0.000316041769637739 -4.68632000530923e-05 0.000330728137261178 0.000260585861022141 0.000217868376485918 0.00019257668531744 0.00456052529263722 -0.000217638299045024 0.000244968352387562 -4.59453694279831e-05 8.87068559290866e-05 -0.000341567536485763 0.00159298269263582 1.33445897063337e-05
"38" 0.000338430585366049 0.000221857221382246 0.000325343850286166 -4.02538450498527e-05 0.000327927057077145 0.000266069339571709 0.000221649467735112 0.00020098599797895 0.004558281975088 -0.000202162955041856 0.000250290903445166 -4.56775820120076e-05 8.66351378744242e-05 -0.000312363561821725 0.00159962334580802 6.87732371814185e-05
"39" 0.000335060639647616 0.000238834977412172 0.000334362880591984 -3.36978907791004e-05 0.000324326746613184 0.000271939254540321 0.000224562239996882 0.000209352737052562 0.00451987012084088 -0.000180064109146679 0.000255327290269553 -4.51887209251328e-05 8.49493377279571e-05 -0.000280924804314286 0.00159632834614784 0.000120075227535503
"40" 0.000330852853616796 0.000254728514227635 0.000342988629869202 -2.72744374719257e-05 0.000319885304878878 0.000278109266992148 0.00022650100374278 0.000217568332817055 0.00444555922002783 -0.000151629415927102 0.000260091071761961 -4.45230535758545e-05 8.3584710992475e-05 -0.000247442030253291 0.00158300706922005 0.000166913634205583
"41" 0.00032571884993458 0.000269334881321369 0.000351112215806788 -2.10591622976151e-05 0.000314562828423448 0.000284465553660242 0.000227349102578856 0.000225508605645676 0.00433600667667474 -0.000117206494929444 0.000264593298327081 -4.37351276686887e-05 8.24682608307033e-05 -0.000212121063197416 0.00155964460686596 0.000209001595185795
"42" 0.000319585708258406 0.000282467007227648 0.000358631498235369 -1.51448817753984e-05 0.000308329704533153 0.000290913026663427 0.000227014553871676 0.000233057226221578 0.00419226756237407 -7.72332340782644e-05 0.000268848546904006 -4.28694926312227e-05 8.15321007945463e-05 -0.000175184797033453 0.0015263232238703 0.000246096027600275
"43" 0.00031237377930047 0.000293943149289564 0.000365450671442023 -9.61432575312972e-06 0.000301159638190946 0.000297332283094497 0.000225400906564043 0.000240094313946 0.00401571235388694 -3.22127791434106e-05 0.000272870027184597 -4.19869359004524e-05 8.06978326842552e-05 -0.000136875710500989 0.00148320177071952 0.00027801015527615
"44" 0.000304017992581603 0.000303601021584836 0.000371469160054769 -4.56445896582289e-06 0.000293037381333166 0.000303609552451102 0.000222431087261316 0.000246501253919589 0.00380803623335504 1.72962723114319e-05 0.000276679716449108 -4.1140352250924e-05 7.98917004464163e-05 -9.74410224564207e-05 0.00143053639743772 0.000304610664992782
"45" 0.000294458646688357 0.000311295242646908 0.000376606361447897 -7.50358280496221e-08 0.000283950835300723 0.000309625364852048 0.000218037806543797 0.000252159472002082 0.00357118300579112 7.06842175090227e-05 0.000280293839247751 -4.03849053512811e-05 7.90398908743498e-05 -5.71451885392721e-05 0.00136866811154291 0.000325823418428977
"46" 0.000283648683817713 0.000316904200697556 0.000380774239406985 3.77215064255367e-06 0.000273897068171505 0.000315261108208004 0.000212161209178623 0.00025695965514392 0.00330733408102641 0.000127296239902376 0.000283734661691914 -3.97776262192784e-05 7.8072260518698e-05 -1.62603997645831e-05 0.00129802570668654 0.000341627754507202
"47" 0.000271542370227927 0.000320325074657147 0.000383904136970884 6.8963244818076e-06 0.000262886226265619 0.000320404050147673 0.000204762573452656 0.000260797189021107 0.00301885708195401 0.000186432320052846 0.000287017426101776 -3.93711771930777e-05 7.69123634771539e-05 2.49318873210688e-05 0.00121911871099172 0.000352057602391716
"48" 0.000258114729917658 0.000321478350553523 0.000385932700726805 9.22609165385577e-06 0.000250929693527593 0.000324935232943194 0.00019581475340612 0.00026357281442671 0.00270823667350533 0.000247391514681711 0.000290161726699052 -3.92211059198901e-05 7.54910084290888e-05 6.61469170861553e-05 0.00113253881758556 0.000357211458285804
"49" 0.000243350416578516 0.000320313158764095 0.000386806777745699 1.07092453353966e-05 0.000238057361667238 0.000328746000800103 0.000185311804667236 0.000265202604491269 0.00237810027161926 0.000309432795897621 0.0002931792296485 -3.93772423104391e-05 7.37458502016541e-05 0.000107091967897972 0.00103895473483604 0.000357228007955425
"50" 0.000227240623856704 0.000316811624026264 0.00038648467365891 1.13030206459153e-05 0.000224306313579292 0.000331732777637284 0.000173260738493442 0.0002656096128406 0.00203112076085295 0.000371827348007181 0.000296083532465066 -3.9888613659644e-05 7.16179128436184e-05 0.000147478673358959 0.000939107673064033 0.000352309010928935
"51" 0.000209798332350538 0.000310963924579698 0.000384934657656025 1.09612393104867e-05 0.000209717563150469 0.000333800232004698 0.000159682946379291 0.000264729920466871 0.00167002464422621 0.000433860857420543 0.000298882263127538 -4.08033892059174e-05 6.90449048869085e-05 0.000187012241016678 0.000833788040806098 0.000342698305379227
"52" 0.000191045087823073 0.000302809287126972 0.000382142750746535 9.67094545191095e-06 0.00019435036152732 0.000334859190745116 0.000144628857191091 0.000262517607888741 0.00129755436164366 0.000494814106577877 0.000301577693412083 -4.21593329661664e-05 6.59852531536681e-05 0.000225410412558114 0.000723860719572468 0.000328684290311276
"53" 0.000171019347069033 0.000292401135059927 0.000378104488877725 7.43029474825537e-06 0.000178273159202772 0.000334839457118607 0.000128159246708923 0.000258937159720973 0.00091646130360512 0.000554013938403754 0.00030417544697822 -4.39931969908303e-05 6.23928211312599e-05 0.000262392735643076 0.000610224426237279 0.000310592907756912
"54" 0.000149771758599636 0.000279827968065138 0.000372824122523086 4.24854858397087e-06 0.000161561851357064 0.00033367513916803 0.00011035686768999 0.000253973313532374 0.000529465876374275 0.000610805609957696 0.000306670432533328 -4.63352097219046e-05 5.82356986403016e-05 0.000297688328318479 0.000493822473753002 0.000288782823910553
"55" 0.00012737267894584 0.000265190052301964 0.000366328549597737 1.46209309991339e-07 0.000144303930312647 0.000331312737997612 9.13192985202197e-05 0.000247623426581682 0.000139253918574095 0.000664592642793999 0.000309056095671702 -4.92148678048898e-05 5.34873135561136e-05 0.000331040898690556 0.000375626384533646 0.000263645461723888
"56" 0.000103893415067406 0.000248620028428498 0.000358648784473092 -4.83719545965305e-06 0.000126593677479423 0.000327714226840265 7.11608076191868e-05 0.000239900893117651 -0.000251556744201111 0.000714825378999764 0.000311317040032036 -5.26475690303543e-05 4.81269219685769e-05 0.000362212474888468 0.000256623874659404 0.000235596296672496
"57" 7.94353942679117e-05 0.000230275840503005 0.000349835928474531 -1.06471700256202e-05 0.000108539045919398 0.000322863530350763 5.00202818894505e-05 0.000230846130760339 -0.000640364232815302 0.000760984710784056 0.000313443638745665 -5.66429171168644e-05 4.21486856541284e-05 0.000390972550016145 0.0001378222078767 0.000205058270289232
"58" 5.41036250411802e-05 0.000210323908915675 0.000339945061489214 -1.72219340553681e-05 9.02474992901853e-05 0.000316750856224862 2.80401873970451e-05 0.000220502720031541 -0.00102468078720781 0.00080263770648058 0.000315409506145443 -6.12088011249157e-05 3.55518773117047e-05 0.00041712290713593 2.02178679605146e-05 0.000172478990209405
"59" 2.80152079278978e-05 0.000188955585757229 0.000329054007959122 -2.44891809108565e-05 7.18400442993253e-05 0.000309380207371338 5.38173509033601e-06 0.000208936698863205 -0.00140206481507724 0.000839399073878752 0.000317196604978285 -6.6342684748929e-05 2.83487806764475e-05 0.00044048176135464 -9.51986498804467e-05 0.000138308893148318
"60" 1.3016365541042e-06 0.000166372571107352 0.000317244019413999 -3.23694748183584e-05 5.34511339646748e-05 0.000300785894487338 -1.77776956686673e-05 0.000196237560105299 -0.0017701476803064 0.00087092063521779 0.000318777708926767 -7.20298257269583e-05 2.05595327187914e-05 0.000460885634800465 -0.000207451194816952 0.000102987171776581
"61" -2.58991722740952e-05 0.000142785752008213 0.000304610339315215 -4.07757647073029e-05 3.51952251500288e-05 0.000290999358401896 -4.12637505240956e-05 0.000182494296170015 -0.00212668561918068 0.000896971713866375 0.000320121237002513 -7.8255248542323e-05 1.2211861926874e-05 0.000478212334580571 -0.000315602732219537 6.69685695804553e-05
"62" -5.34363489201715e-05 0.000118419465141633 0.00029125603961383 -4.96204246233943e-05 1.7220878090802e-05 0.000280082752569442 -6.48709995754337e-05 0.00016782730559397 -0.00246947877034359 0.000917318332906359 0.000321197544260295 -8.49893223792233e-05 3.34562162152724e-06 0.000492351617388453 -0.000418742336221637 3.06805117261861e-05
"63" -8.11542288981933e-05 9.35047705627053e-05 0.000277294479644957 -5.88006146957446e-05 -3.37289353039025e-07 0.000268105758425549 -8.84115431644995e-05 0.000152356567573356 -0.00279645659473629 0.000931825521568847 0.000321975894596022 -9.21963717376832e-05 -5.99238895505195e-06 0.000503234303318188 -0.000516009596719734 -5.45745098614891e-06
"64" -0.000108887477987652 6.82648587190566e-05 0.000262847283248835 -6.82366203048798e-05 -1.73462872685775e-05 0.000255149899864206 -0.000111677941977125 0.00013621872234815 -0.003105651783336 0.000940402821669895 0.000322417074449363 -9.98361593557259e-05 -1.57448635290522e-05 0.000510810747507368 -0.000606605802840561 -4.10449144262418e-05
"65" -0.000136473391835132 4.29312894931291e-05 0.000248039540907689 -7.78353267069423e-05 -3.36612215589277e-05 0.000241318848443667 -0.00013446124941724 0.000119561785694105 -0.00339520626046549 0.000943012394378181 0.000322491172627029 -0.000107857487156781 -2.5845285564316e-05 0.000515062947403973 -0.000689782588470688 -7.57054236801549e-05
"66" -0.00016373584760769 1.77368904404953e-05 0.000233001506820809 -8.75037629143456e-05 -4.91468161884867e-05 0.000226724819257412 -0.000156558389869951 0.000102543253546658 -0.00366340009603929 0.000939666946197024 0.000322165157109489 -0.00011620092210127 -3.62267837749807e-05 0.000516004695893499 -0.000764861447481937 -0.000109087964184905
"67" -0.00019050689172647 -7.1005990288148e-06 0.0002178746594074 -9.71651652924451e-05 -6.36671224078781e-05 0.000211490330840614 -0.00017776762669781 8.53235866486224e-05 -0.00390866768002123 0.000930430173812384 0.000321400590257827 -0.00012480191388248 -4.68033781389869e-05 0.000513678656827145 -0.000831242504711229 -0.000140868733913147
"68" -0.000216618728478669 -3.13664601944959e-05 0.000202792448887859 -0.000106737009726826 -7.70918810083844e-05 0.0001957424160068 -0.000197892929783878 6.80655953729783e-05 -0.00412960682758693 0.000915417223228568 0.000320165886441582 -0.000133593578107281 -5.74952674694743e-05 0.00050815400499313 -0.00088840025171406 -0.000170756159022857
"69" -0.000241892612366755 -5.48484354288344e-05 0.000187895704691062 -0.000116152320355477 -8.92930186979903e-05 0.00017963320733108 -0.000216733816567237 5.09463020608328e-05 -0.00432497808775901 0.000894763764579509 0.000318429870377295 -0.000142493695263401 -6.82090318966582e-05 0.000499524818387918 -0.000935889981771839 -0.000198496536986597
"70" -0.000266172126824991 -7.73563398763755e-05 0.000173325982507312 -0.000125348149263996 -0.000100150652301909 0.000163304531856234 -0.000234107357256812 3.41353535479138e-05 -0.00449374838977021 0.000868659063437605 0.000316161390979997 -0.000151424111515551 -7.88515392671248e-05 0.000487913052295707 -0.000973354046135191 -0.000223860356984633
"71" -0.00028929193705641 -9.87019790318543e-05 0.000159220141264133 -0.000134262088127894 -0.000109553259657238 0.000146917870794311 -0.000249842267778084 1.78061214117419e-05 -0.00463509162343561 0.000837326868325571 0.000313334445451796 -0.000160294943100553 -8.93245378842884e-05 0.000473463364650473 -0.00100052461111036 -0.00024666296853452
"72" -0.000311100697878967 -0.000118716694248201 0.000145706505150317 -0.000142844568808995 -0.000117401490606816 0.000130621506202733 -0.000263779359259816 2.12003300702997e-06 -0.00474842398816718 0.000801029253364193 0.000309920561190994 -0.000169019877210659 -9.95247222770611e-05 0.000456347475217881 -0.00101722139258652 -0.000266744470641323
"73" -0.000331449269708683 -0.000137244748005144 0.000132923922985415 -0.000151049159404479 -0.000123598576221297 0.000114589449578187 -0.000275764336016679 -1.27435723540724e-05 -0.00483335272879547 0.000760031975683864 0.000305902221830467 -0.000177503602467404 -0.000109349193737266 0.000436745405243997 -0.00102334953333311 -0.000283993882679165
"74" -0.000350203840907163 -0.000154148285563006 0.000120991689726188 -0.000158841659032084 -0.000128060558367829 9.89718250914229e-05 -0.000285672604207093 -2.66344470584436e-05 -0.00488978733829226 0.00071465807999906 0.000301257090579477 -0.00018564879460788 -0.000118696680798825 0.000414870880472715 -0.00101891486024281 -0.00029832547284882
"75" -0.000367246118680993 -0.000169306354774851 0.000110027294545127 -0.000166188168267197 -0.000130729435662746 8.39322823634345e-05 -0.000293388687815357 -3.94021223407201e-05 -0.0049178708492763 0.0006652555511298 0.000295966485067631 -0.000193363336974808 -0.000127466760251408 0.000390939379464799 -0.00100400066721552 -0.000309685168041867
"76" -0.000382455455101065 -0.000182612100830542 0.000100142771640852 -0.00017306167293061 -0.000131538593576294 6.96268273933697e-05 -0.000298815300665915 -5.09002298070842e-05 -0.00491798721221435 0.000612179665142749 0.000290024304914113 -0.000200547057081588 -0.00013555625856545 0.000365191861838762 -0.000978783035229956 -0.000318064406791365
"77" -0.000395737701137592 -0.000193973527745638 9.14333893735276e-05 -0.00017943219325959 -0.000130451054154356 5.62107148889507e-05 -0.000301872617541833 -6.09927898862374e-05 -0.00489077754063453 0.000555827036430138 0.000283421543096251 -0.000207102955943143 -0.000142865050689494 0.000337873678418389 -0.000943520392585481 -0.000323476350348556
"78" -0.000407006631636783 -0.000203323650442999 8.39940309811001e-05 -0.000185284355590083 -0.000127435956806817 4.38243770629943e-05 -0.000302509237300884 -6.95641038663123e-05 -0.00483713598627667 0.000496605371830654 0.000276152067146592 -0.000212936612130245 -0.000149298257467047 0.000309243031633787 -0.000898559085357794 -0.00032597028318754
"79" -0.000416195114722499 -0.000210613922065106 7.78956211954743e-05 -0.000190597774675587 -0.000122488098569927 3.2609233628788e-05 -0.000300689463555677 -7.65066401270414e-05 -0.00475819137713277 0.000434959450039073 0.000268217877037341 -0.000217956563857285 -0.000154766294264786 0.000279562810023315 -0.000844316128626576 -0.000325621507844706
"80" -0.000423249864771377 -0.000215810725150251 7.32099223294262e-05 -0.000195368305496181 -0.000115604683782999 2.26897356709948e-05 -0.000296398789650347 -8.17264548971145e-05 -0.00465528636840116 0.00037135004696816 0.000259624246455872 -0.00022207207941804 -0.000159187581295022 0.000249098653072501 -0.000781286633639037 -0.000322528851219329
"81" -0.000428131220968375 -0.000218896139309135 6.99862863041575e-05 -0.000199571983790004 -0.000106810968617795 1.41813390654265e-05 -0.00028965168822058 -8.51473133575875e-05 -0.00452996368998877 0.000306263470404113 0.000250380330661552 -0.000225200030309809 -0.000162482905830185 0.000218129115693464 -0.000710034548964531 -0.00031682474034381
"82" -0.000430826492942577 -0.000219881056016916 6.82648975400595e-05 -0.000203206391187212 -9.61420052099279e-05 7.18968244499015e-06 -0.000280474280003738 -8.67069124157444e-05 -0.00438393217634559 0.000240204824564999 0.000240498593620486 -0.000227261668003522 -0.000164579379739881 0.000186918313058599 -0.000631191195756878 -0.000308662157084254
"83" -0.000431328074112373 -0.000218782572871441 6.80676833153806e-05 -0.000206255976843864 -8.36530167918793e-05 1.80429490250905e-06 -0.000268925836135532 -8.63672961011567e-05 -0.00421906973364961 0.000173705480237911 0.00023000687120453 -0.00022818056889023 -0.0001654140128501 0.000155744764056929 -0.000545432543333711 -0.000298210778723121
"84" -0.000429651689539139 -0.000215648009140586 6.94076482073207e-05 -0.000208723801482044 -6.94106591969811e-05 -1.90100264714768e-06 -0.000255078192037036 -8.40977389520332e-05 -0.00403736531645654 0.000107314292711969 0.000218921732953178 -0.000227891965330073 -0.000164935775467676 0.000124872556992092 -0.000453504045949317 -0.000285665037925168
"85" -0.000425830471389387 -0.000210529667968865 7.2276329081377e-05 -0.000210594873614985 -5.35076470771152e-05 -3.8694091301371e-06 -0.000239036363223469 -7.98989585837235e-05 -0.0038409153363288 4.16058816498944e-05 0.000207277675607615 -0.00022633468427669 -0.000163096231740533 9.45685798633151e-05 -0.000356182105235236 -0.000271235284194216
"86" -0.000419918297918966 -0.000203504241607855 7.66567894449813e-05 -0.000211870518348978 -3.60375619605772e-05 -4.05395751841634e-06 -0.000220911730897919 -7.37764810360156e-05 -0.00363188028607151 -2.28419571354828e-05 0.000195111660992301 -0.000223461897365925 -0.000159867559447035 6.50855365167349e-05 -0.000254288241524263 -0.000255140038077347
"87" -0.000411977130804462 -0.000194670445587167 8.25083354310772e-05 -0.000212549620261083 -1.71235253166113e-05 -2.43857089430043e-06 -0.000200854088643065 -6.57721314314975e-05 -0.00341248155869629 -8.54170394404051e-05 0.000182468554579097 -0.000219230210048696 -0.000155223937311407 3.66727663454322e-05 -0.000148674876522122 -0.000237612449449462
"88" -0.000402093546197252 -0.000184136033548178 8.97838959666699e-05 -0.000212636032488604 3.09696658395778e-06 9.8292775780833e-07 -0.00017902203335694 -5.59340952575013e-05 -0.00318495408483145 -0.000145496554207219 0.000169390440764345 -0.00021361252291976 -0.000149157604889805 9.57511610660357e-06 -4.02118392456259e-05 -0.000218889397972046
"89" -0.000390364409715511 -0.000172022317231258 9.84205267481241e-05 -0.000212133699449533 2.44861312244351e-05 6.20299418952177e-06 -0.00015558673077948 -4.43316188983733e-05 -0.00295152347397856 -0.000202473882325926 0.000155935762094201 -0.000206587033371451 -0.000141664563910252 -1.59881243295874e-05 7.02127725922093e-05 -0.000199222997419765
"90" -0.000376904637388086 -0.000158463943394749 0.000108334332260871 -0.000211040685533917 4.68779548651151e-05 1.31842534958951e-05 -0.0001307479715866 -3.10568770936649e-05 -0.00271440683058473 -0.000255708495245516 0.0001421678368073 -0.000198142382072819 -0.000132756210757033 -3.97989355855665e-05 0.000181708830869905 -0.000178861068877524
"91" -0.000361842154235534 -0.000143619407483176 0.000119433574718819 -0.00020938339993965 7.01020203278765e-05 2.18768697581185e-05 -0.000104715810340831 -1.62172049169652e-05 -0.00247575841474274 -0.000304578630610573 0.000128146351630487 -0.000188284210201271 -0.00012246355536751 -6.16577110775465e-05 0.000293376605221015 -0.000158052060115707
"92" -0.000345315758458499 -0.000127650509852043 0.000131615104636532 -0.000207173060357108 9.39791817889103e-05 3.22093668159753e-05 -7.77101931441563e-05 6.09320482493837e-08 -0.00223769588778657 -0.000348467966848558 0.00011394699367939 -0.000177029813075095 -0.0001108225408022 -8.13813105177971e-05 0.000404337653702197 -0.000137042294402441
"93" -0.000327478119354407 -0.000110726976768533 0.000144758722128071 -0.000204432268220512 0.000118315346458225 4.409047288222e-05 -4.99671903140518e-05 1.76355986947443e-05 -0.00200224234800179 -0.000386782017084153 9.96464642057639e-05 -0.000164405745811624 -9.78804944630315e-05 -9.88039919922567e-05 0.00051372966352711 -0.000116073633652198
"94" -0.000308495938199857 -9.30399881491894e-05 0.000158731581512515 -0.000201192326412387 0.000142911654149557 5.74131338598223e-05 -2.17304850078143e-05 3.63469374358896e-05 -0.00177134064366699 -0.000418950386873641 8.53276063329839e-05 -0.000150453083368435 -8.37065934829215e-05 -0.000113784179655138 0.000620709305051143 -9.5377906305692e-05
"95" -0.000288535003339302 -7.47709875983095e-05 0.000173400211336625 -0.000197482627918914 0.000167563173845746 7.20511171484831e-05 6.75085258239696e-06 5.60252401726444e-05 -0.00154680451049148 -0.000444441857899349 7.10777248899134e-05 -0.000135223864991966 -6.83698917802144e-05 -0.000126186971650514 0.000724476448512336 -7.51752728524761e-05
"96" -0.000267780307669427 -5.61157418800688e-05 0.000188616334665875 -0.000193344335482836 0.000192064632368328 8.78630618270322e-05 3.52208623808241e-05 7.64848726622925e-05 -0.00133034314261953 -0.000462782129533645 5.6985947296775e-05 -0.000118788997556964 -5.19652911232484e-05 -0.000135913155926423 0.000824263449222248 -5.56727532657357e-05
"97" -0.000246409427561276 -3.7274426238829e-05 0.000204222998072091 -0.000188825082086758 0.000216202010386566 0.00010469222468896 6.34252643068981e-05 9.75333184478374e-05 -0.00112351071180866 -0.000473555374243928 4.31431816563854e-05 -0.000101224567580035 -3.45888173444015e-05 -0.000142876353033098 0.000919355217101148 -3.70618090908405e-05
"98" -0.000224611459167955 -1.84450873082452e-05 0.000220057804012642 -0.000183973618907724 0.000239767121181095 0.000122365418343498 9.11100839066998e-05 0.000118962561403082 -0.000927726102166533 -0.000476403330103353 2.9648785714496e-05 -8.26248994739117e-05 -1.63483026726327e-05 -0.000147017256876384 0.00100909129670899 -1.95131594004377e-05
"99" -0.000202577296862591 1.77694022666821e-07 0.00023596290035999 -0.000178842614684116 0.000262556487899682 0.00014070346159278 0.000118025455142317 0.000140569606415527 -0.000744234323240857 -0.000471088112137098 1.65951732487497e-05 -6.30910079577117e-05 2.62985865041264e-06 -0.000148301994762178 0.00109287115364716 -3.18376597781758e-06
"100" -0.000180499237372321 1.84010470952951e-05 0.000251768111870615 -0.000173501047810977 0.00028435622806399 0.00015950420211189 0.000143918686969205 0.000162129929792735 -0.000574158200445624 -0.000457417516598372 4.07684069307002e-06 -4.27451501231817e-05 2.22153345550896e-05 -0.000146720076360694 0.00117015820035563 1.18019871629623e-05
"101" -0.00015855644875357 3.6036846310358e-05 0.000267305236765231 -0.000168008396980056 0.00030497929275772 0.000178566692291352 0.00016856118628788 0.000183431125840677 -0.000418388515066383 -0.00043534486360563 -7.80888656677181e-06 -2.17077929252282e-05 4.22682322361667e-05 -0.000142285715568924 0.00124048457027454 2.53386209308566e-05
"102" -0.000136937999745139 5.29114734030942e-05 0.000282408114569733 -0.000162423699419854 0.000324235397292558 0.00019768231129831 0.000191729488839812 0.000204257231863305 -0.000277653184860784 -0.000404918005938298 -1.89762094523813e-05 -1.21418979008668e-07 6.26441855233882e-05 -0.000135047473056644 0.00130345834052112 3.73347366492111e-05
"103" -0.000115820349023765 6.88557714199361e-05 0.000296912738250005 -0.000156824293887967 0.000341949765168857 0.000216635028782986 0.000213217335175577 0.000224392903647762 -0.000152483964870528 -0.000366302212707126 -2.93399329171062e-05 2.18700314433358e-05 8.31833160868999e-05 -0.000125070908861123 0.00135875897470061 4.77432302447633e-05
"104" -9.53673779116744e-05 8.37195972252721e-05 0.000310666143710625 -0.000151271624548855 0.000357954829507288 0.00023520715411976 0.000232828678032488 0.000243628461818937 -4.32247045860433e-05 -0.000319775185752314 -3.88234034435183e-05 4.41125119890854e-05 0.000103725675273666 -0.000112455462711899 0.00140614932315368 5.65338139220265e-05
"105" -7.57462625479125e-05 9.73668853189794e-05 0.00032350769826908 -0.000145829958273063 0.000372101051198583 0.000253181496464627 0.00025039337112187 0.00026176009705584 4.99870976970722e-05 -0.000265731841387957 -4.73540580484038e-05 6.64425042449545e-05 0.000124108004887423 -9.73269918023846e-05 0.00144545910359211 6.37007849527213e-05
"106" -5.71004382502146e-05 0.000109678705629011 0.000335298082076781 -0.000140556807935511 0.000384260622278346 0.000270348134668752 0.000265762818853882 0.000278601162089768 0.000127225714693893 -0.000204677675622216 -5.48711418880751e-05 8.86931757641105e-05 0.000144162588825297 -7.98337067993938e-05 0.00147660490830393 6.92738837882048e-05
"107" -3.95638324795469e-05 0.000120558220834213 0.000345902407787362 -0.000135503032878624 0.000394315310090797 0.000286496122569395 0.000278802233857109 0.000293969710614354 0.000188748174478565 -0.000137229764428933 -6.1328364918268e-05 0.000110695356679364 0.000163722410484487 -6.01564088992788e-05 0.0014995687371546 7.32983748835446e-05
"108" -2.3257353729707e-05 0.000129926845789705 0.000355199887699657 -0.000130725118538699 0.000402180391385628 0.000301430522680781 0.000289423587748587 0.000307707413653327 0.000235017812405672 -6.40981233104824e-05 -6.668570353123e-05 0.000132274642680494 0.000182619390091028 -3.84987310793222e-05 0.00151440987300194 7.58490385011508e-05
"109" -8.28741946985301e-06 0.000137727870381857 0.000363077597400654 -0.000126258404821128 0.000407777180775821 0.00031495613332412 0.000297540599441521 0.000319659297684048 0.000266673155435636 1.39449596046894e-05 -7.09227207446881e-05 0.000153256718242978 0.00020068658328135 -1.50814984989179e-05 0.00152125474532741 7.70294585176597e-05
"110" 5.25940974999389e-06 0.000143929889013718 0.000369436703735259 -0.00012213075750209 0.000411051784803818 0.000326901414128512 0.000303107250022856 0.000329703411863014 0.000284552043371499 9.60457654219745e-05 -7.40291296790747e-05 0.000173469186674087 0.000217762609808319 9.84221761542943e-06 0.00152029282401257 7.69562658158842e-05
"111" 1.73140603440491e-05 0.000148522168975567 0.000374202536505862 -0.00011836526731585 0.000411983810892956 0.000337107542063885 0.000306109865803261 0.000337731122692116 0.000289653108197384 0.000181303195432135 -7.60133146007223e-05 0.000192742187550323 0.000233687503852596 3.60081059480384e-05 0.00151177211027839 7.5772249434729e-05
"112" 2.78283186479019e-05 0.00015151915487396 0.000377303991843098 -0.000114967924100385 0.000410562078865819 0.000345429336940474 0.000306546275731542 0.000343648885084205 0.000283132324234039 0.000268819473720701 -7.68942592579104e-05 0.000210910153403879 0.000248314996607825 6.31361871759474e-05 0.00149599266181796 7.36425132963606e-05
"113" 3.67671846118586e-05 0.000152963611357319 0.000378692263509872 -0.000111934159331132 0.000406816247555991 0.000351749324065426 0.000304464232892571 0.000347406262297112 0.000266313433477372 0.000357639559610719 -7.67110388144871e-05 0.000227818924282249 0.00026150213898095 9.09203060298243e-05 0.00147330827386186 7.07313621328204e-05
"114" 4.41230962216371e-05 0.000152904764676274 0.000378344975375127 -0.000109258900550194 0.000400787172715019 0.000355966282377406 0.000299926413047441 0.00034896173319231 0.000240619540833485 0.000446852785263108 -7.55174070009107e-05 0.000243316725947711 0.000273121438347258 0.000119055316215872 0.00144410440757113 6.72356198262818e-05
"115" 4.99030459623435e-05 0.000151429171862712 0.000376238749284985 -0.000106916619165803 0.000392540943868018 0.000358005547392598 0.000293020251158782 0.000348300120620518 0.000207570967225544 0.000535575917641698 -7.33809595339705e-05 0.000257264596069603 0.000283054075709384 0.000147222881491781 0.00140880445720485 6.33496668520212e-05
"116" 5.41309217328123e-05 0.000148632831871524 0.000372382794909558 -0.000104871471734156 0.000382165839585788 0.000357813019170569 0.000283872066057377 0.000345433790606976 0.000168792354381163 0.000622955307475801 -7.03798024825676e-05 0.000269535223630366 0.000291190082983738 0.000175105762001388 0.0013678598838343 5.92828950048352e-05
"117" 5.68540586490738e-05 0.000144630847550041 0.000366803076468215 -0.000103091333838113 0.000369781080838571 0.000355362736224403 0.000272619943043975 0.000340405244103297 0.000125961307297823 0.000708203325547728 -6.66124489953894e-05 0.000280017666921591 0.000297442367609796 0.00020237904415934 0.00132173968100492 5.52385248095259e-05
"118" 5.8141468755001e-05 0.000139557434564447 0.000359534613771771 -0.000101517097935401 0.000355515688268787 0.000350655261869162 0.000259430824483902 0.000333271257837494 8.07697895528306e-05 0.000790605506735414 -6.21800149046205e-05 0.000288612433451736 0.000301735691099072 0.000228729122009118 0.00127093172618425 5.14281773513371e-05
"119" 5.80678088550446e-05 0.000133554802762941 0.0003506395498762 -0.000100102522147457 0.000339525145628777 0.000343718088102663 0.000244497800953491 0.000324123200688546 3.49231632839488e-05 0.000869521524681592 -5.71986025003371e-05 0.00029524077340835 0.000304010659397585 0.000253850677535406 0.00121593073513271 4.80579747267438e-05
"120" 5.67352966213788e-05 0.000126779233392865 0.000340189922524957 -9.87885015767601e-05 0.000321981979097281 0.000334602019075809 0.00022802227582324 0.000313071791801202 -9.88783948924254e-06 0.000944386539692819 -5.17918211043453e-05 0.000299837304176083 0.000304223440579846 0.000277439371842848 0.00115722973011818 4.53240021740915e-05
"121" 5.42525459485234e-05 0.000119394637144096 0.000328278941897028 -9.75113062526043e-05 0.000303070216991656 0.000323383701904912 0.000210227813592475 0.000300245955683928 -5.20396106659611e-05 0.00101475354197408 -4.60883780031999e-05 0.000302355254529018 0.000302355667803716 0.000299225595091867 0.00109532626483857 4.34224918371827e-05
"122" 5.07464083782114e-05 0.00011156711130129 0.000315013392460843 -9.62113219074149e-05 0.000282996570912406 0.00031016947972577 0.000191353489802598 0.000285804963598016 -8.99534051684877e-05 0.00108023150349845 -4.02157596837942e-05 0.000302774276182301 0.000298398339669567 0.000318943560557655 0.00103070553346921 4.25284430852148e-05
"123" 4.63541871744565e-05 0.00010346573027937 0.000300508210614713 -9.48291727878035e-05 0.000261977386563172 0.000295081186511289 0.000171646841819269 0.000269915944266724 -0.000122170837753879 0.00114054683959815 -3.43128242211602e-05 0.00030107995094434 0.000292365133475336 0.000336360882511395 0.000963840832745051 4.28139791094508e-05
"124" 4.12256439733664e-05 9.52646879463643e-05 0.000284904649999723 -9.33049377843147e-05 0.000240235111095624 0.000278272565111909 0.000151367060528714 0.000252779322178158 -0.000147327287562317 0.00119548186448831 -2.8509056822071e-05 0.000297291332648663 0.000284290350992731 0.000351266054510085 0.000895194428567385 4.44257199154591e-05
"125" 3.55049311231924e-05 8.71272911231025e-05 0.000268336810566732 -9.15807688093192e-05 0.000218003475592089 0.000259907362740708 0.000130764412528647 0.000234589423684332 -0.000164221168024155 0.0012449296841414 -2.29355832766807e-05 0.000291439202292904 0.000274219786220241 0.000363478752973216 0.000825207162019254 4.74944866137011e-05
"126" 2.93619981964289e-05 7.92148180277683e-05 0.000250962232609675 -8.96156934804292e-05 0.000195523306935041 0.00024017570509217 0.000110115020315636 0.00021557160954146 -0.000171781547769972 0.00128883436881229 -1.77201181819314e-05 0.00028357435522283 0.000262221703602964 0.000372849806549646 0.000754299349541321 5.21328622865973e-05
"127" 2.29574177441837e-05 7.1687734167155e-05 0.000232944373772668 -8.73540565292031e-05 0.000173031565540786 0.000219276257155661 8.96728076488552e-05 0.000195950884638846 -0.000169114257469426 0.0013272288471072 -1.29766839275269e-05 0.000273768272254226 0.000248383351128008 0.000379271139075917 0.000682875320775481 5.8434698959768e-05
"128" 1.64569461310264e-05 6.46893652092002e-05 0.000214450149290954 -8.47561139432187e-05 0.000150775898227985 0.00019743235245794 6.97059978984935e-05 0.000175968956474989 -0.000155481905111243 0.00136018427153698 -8.8159635673478e-06 0.000262113198624004 0.000232807235484584 0.000382654529599257 0.000611312919434669 6.64651726591537e-05
"129" 1.002595648151e-05 5.83509741848488e-05 0.000195651519856173 -8.17975076223645e-05 0.000128996780702117 0.000174866898289274 5.04629814280986e-05 0.000155865970674087 -0.000130352829680589 0.00138783414021795 -5.33850704155542e-06 0.000248710992467888 0.000215605669405839 0.000382958729602238 0.000539966482660196 7.62720654955163e-05
"130" 3.82694660094803e-06 5.27944131571931e-05 0.000176725965386294 -7.84546416144652e-05 0.000107924647224316 0.000151817136184037 3.21870622220044e-05 0.000135886848850723 -9.33611432642257e-05 0.00141036246992056 -2.63397451644034e-06 0.000233685686334579 0.000196910374310455 0.000380173786887577 0.000469162873911156 8.78812448469658e-05
"131" -1.98612706694301e-06 4.81286618393701e-05 0.000157847576707374 -7.47054319332107e-05 8.77958087341398e-05 0.000128521885461689 1.51106212552184e-05 0.000116274591072802 -4.43240379015317e-05 0.00142797808063196 -7.74673324976076e-07 0.000217175583163022 0.00017686577045941 0.000374326005756433 0.000399214790798128 0.000101297357372135
"132" -7.25384979552797e-06 4.44496772304522e-05 0.000139195512321646 -7.05331200797192e-05 6.8826050199703e-05 0.000105234127116637 -5.43955431566907e-07 9.72764983763977e-05 1.67751342372922e-05 0.00144092073991824 1.76893688370192e-07 0.000199330580084089 0.000155627568652908 0.000365479666338865 0.00033040505184168 0.000116492390172921
"133" -1.18417087426612e-05 4.18207263744648e-05 0.000120943530637463 -6.59504922947261e-05 5.12254407270945e-05 8.21847320254063e-05 -1.45811050145971e-05 7.91230603372396e-05 8.97705749547661e-05 0.00144946188782339 1.75734300019458e-07 0.000180310585656843 0.000133359185263611 0.000353727468066663 0.000262987446565439 0.000133432929515843
"134" -1.56075277456472e-05 4.03055125917739e-05 0.000103259024842563 -6.09504851654323e-05 3.5191917375179e-05 5.96296163906936e-05 -2.68081950973439e-05 6.20526381804101e-05 0.00017436350570721 0.00145387209053748 -8.10051259030095e-07 0.000160291706832516 0.000110236157964377 0.000339195182714615 0.000197210006601635 0.0001520480098176
"135" -1.84355460140555e-05 3.99485641922645e-05 8.63076366884768e-05 -5.55458946279729e-05 2.09028916701832e-05 3.77954171730426e-05 -3.7074300756409e-05 4.62769101678142e-05 0.000270074758869 0.00145444694735918 -2.79581258435877e-06 0.00013945312682553 8.64392901605133e-05 0.000322043962512149 0.000133293606779016 0.000172260722707147
"136" -2.0217448004901e-05 4.07697680974366e-05 7.02399899302281e-05 -4.97490882190124e-05 8.52235232755684e-06 1.69164923203126e-05 -4.52337595155415e-05 3.20048193540846e-05 0.000376316503589787 0.00145147609055608 -5.78204725558667e-06 0.000117983567184009 6.21545254637678e-05 0.000302452628389429 7.14353549797347e-05 0.000193966140748815
"137" -2.08536296588354e-05 4.27749165410106e-05 5.52116276466691e-05 -4.35811406585136e-05 -1.80137624915398e-06 -2.79147566802955e-06 -5.11668934383145e-05 1.94303883611315e-05 0.000492366363381763 0.00144525762780496 -9.75281664739498e-06 9.60769047270033e-05 3.75700166382718e-05 0.000280638161510562 1.18275415211266e-05 0.000217051944669347
"138" -2.02697119080046e-05 4.59464338889678e-05 4.13493449884817e-05 -3.70776831204945e-05 -9.9494856149237e-06 -2.11217406954373e-05 -5.47877904063505e-05 8.72685376371588e-06 0.000617392148001843 0.00143607997378746 -1.46771069587478e-05 7.39239613692387e-05 1.28780858007003e-05 0.000256829301975528 -4.53628051372245e-05 0.000241386650538536
"139" -1.84083947774106e-05 5.02554642326761e-05 2.87818583123269e-05 -3.02597193142106e-05 -1.5822681331238e-05 -3.78841250704084e-05 -5.60303038727893e-05 4.84677881951534e-08 0.000750470559742974 0.00142423780640316 -2.05095333118517e-05 5.17274002942285e-05 -1.1731809847772e-05 0.00023127786145285 -9.99767592358706e-05 0.000266829404640837
"140" -1.52165821853903e-05 5.56582428216062e-05 1.76173165034895e-05 -2.31680661183943e-05 -1.93331599861625e-05 -5.29018724405879e-05 -5.4854889029293e-05 -6.46778981998991e-06 0.00089059980765426 0.00140998738715136 -2.71899482828433e-05 2.96815363418679e-05 -3.60647446360524e-05 0.00020425303624772 -0.000151864392052376 0.000293218689300083
"141" -1.06731678383075e-05 6.20938837303951e-05 7.95641773991202e-06 -1.58351937826998e-05 -2.0428891902775e-05 -6.60152226939233e-05 -5.12459849664542e-05 -1.07043619931458e-05 0.00103668875458396 0.00139360481299296 -3.46452716662451e-05 7.9793938137203e-06 -5.99373541238071e-05 0.000176035166781844 -0.000200885630796745 0.000320401637251833
"142" -4.76891091174587e-06 6.94765966317199e-05 -1.27940408856745e-07 -8.30826881068626e-06 -1.90824960907261e-05 -7.70957614423341e-05 -4.52319394720269e-05 -1.25781924955224e-05 0.00118758128096702 0.0013753406071023 -4.27929061502527e-05 -1.31863627603184e-05 -8.31652609033725e-05 0.000146920788890839 -0.000246913656990921 0.00034820910162443
"143" 2.48220797438438e-06 7.77149938749065e-05 -6.56619815049996e-06 -6.29795510843279e-07 -1.52839283894798e-05 -8.60223311568961e-05 -3.68480512168056e-05 -1.20164174738631e-05 0.00134208609027638 0.00135542374972303 -5.15324777429353e-05 -3.36320635236563e-05 -0.000105572622450419 0.000117200953702905 -0.000289829214680937 0.000376469682140075
"144" 1.10558012562024e-05 8.6709690949987e-05 -1.13102974005675e-05 7.1519372332971e-06 -9.05850293426737e-06 -9.27052629962155e-05 -2.61718535468925e-05 -8.98349663140024e-06 0.00149893796076267 0.00133408232941415 -6.07599406280004e-05 -5.31789868585496e-05 -0.000126990015446232 8.71852449880311e-05 -0.000329509094628519 0.000405017221072702
"145" 2.09011501990804e-05 9.63325975652297e-05 -1.43370596296002e-05 1.4987544625504e-05 -4.49352764846409e-07 -9.70752057472691e-05 -1.32990485376804e-05 -3.46570358331722e-06 0.00165685162273498 0.0013115295514308 -7.03576043542716e-05 -7.16618132828544e-05 -0.000147258602256872 5.71748927896512e-05 -0.00036584768162252 0.000433684295132824
"146" 3.19498492750208e-05 0.000106464990888704 -1.56270507651207e-05 2.28234971908673e-05 1.04768331105418e-05 -9.90843819072145e-05 1.64089363210518e-06 4.53103813743479e-06 0.00181450859115462 0.00128794499370006 -8.02049816466568e-05 -8.89173628029556e-05 -0.000166228085820748 2.74741143391067e-05 -0.000398739885475588 0.000462303447719153
"147" 4.41226078696123e-05 0.000116967422489966 -1.51887748848827e-05 3.06154675306048e-05 2.36224964688928e-05 -9.87141381344491e-05 1.85042083247302e-05 1.49633893114167e-05 0.00197056448696572 0.00126349926195665 -9.01705869962544e-05 -0.000104800484522664 -0.000183758480224434 -1.62249118061294e-06 -0.000428086039668972 0.000490718485158526
"148" 5.73124233375294e-05 0.000127694459923262 -1.30470301450938e-05 3.82944443404189e-05 3.88644971779829e-05 -9.59742154241563e-05 3.71046909817322e-05 2.77647993490767e-05 0.0021236476316463 0.00123836781756549 -0.00010012272222634 -0.000119173999401227 -0.000199727754498303 -2.98190780865996e-05 -0.000453790207776651 0.000518781656021192
"149" 7.14104223606626e-05 0.000138503932239761 -9.23734684909033e-06 4.58146234257051e-05 5.60650355841259e-05 -9.08831174097546e-05 5.7257588807471e-05 4.28533206677824e-05 0.00227241255036722 0.00121267614699845 -0.000109923640496895 -0.000131916963832367 -0.000214017172381587 -5.68406110945212e-05 -0.000475767948403416 0.000546350264036931
"150" 8.62830476094133e-05 0.000149240160354651 -3.82418365586762e-06 5.31149730389689e-05 7.50566408403456e-05 -8.35046565804462e-05 7.87394039754614e-05 6.01066194801679e-05 0.00241547065747551 0.00118656084153524 -0.000119438157057248 -0.000142924794553992 -0.000226532347674625 -8.24135221714028e-05 -0.000493933440089759 0.000573293900912795
"151" 0.000101783815604149 0.000159743038419496 3.11984312246097e-06 6.01286893122698e-05 9.56530001369004e-05 -7.39254467480626e-05 0.000101312416992754 7.93812036438391e-05 0.00255145583675863 0.00116015469057083 -0.000128530271152584 -0.000152105986886825 -0.000237195092834246 -0.000106285116240636 -0.000508215995343974 0.00059950568531083
"152" 0.000117759636304578 0.000169872635591045 1.15063889583972e-05 6.68047555648321e-05 0.000117652995005904 -6.22342976036128e-05 0.00012473260322358 0.000100524902186817 0.00267904595327504 0.00113353377974405 -0.000137066946748062 -0.0001593841110774 -0.000245930957891016 -0.000128219927728748 -0.000518551662561302 0.000624874268369705
"153" 0.000134047778606691 0.00017947569852226 2.12322214579332e-05 7.30868427050344e-05 0.000140833832345473 -4.85648888892925e-05 0.000148734687056929 0.000123342825196385 0.00279689702978109 0.00110679921445684 -0.000144914507829379 -0.000164701540044456 -0.000252686504701174 -0.000147995482618486 -0.000524885631137642 0.000649318611884398
"154" 0.000150467970199589 0.000188404353093402 3.21736226232533e-05 7.89072516132892e-05 0.000164956787929271 -3.30715160550451e-05 0.000173032216060362 0.000147630973590749 0.00290373025827029 0.00108002507902259 -0.000151951190953535 -0.000168020085398891 -0.000257436813854119 -0.000165416813609834 -0.000527182894595956 0.000672767385860062
"155" 0.000166847142782578 0.000196523456087593 4.42008193564817e-05 8.42085016555753e-05 0.000189777710258767 -1.59188708019495e-05 0.000197354750163855 0.000173169359056927 0.00299832186654263 0.00105327362133382 -0.000158062560871036 -0.000169316909318476 -0.000260160956704688 -0.00018030581557317 -0.000525418540548681 0.000695161035960436
"156" 0.000182994614106806 0.000203708425450932 5.71687871755825e-05 8.89393020235e-05 0.000215028744608814 2.6999296459966e-06 0.000221407274724013 0.000199715433052648 0.00307949553682741 0.00102660274656559 -0.000163140170239836 -0.00016858860144298 -0.000260857896801345 -0.000192509424137639 -0.000519581960734608 0.000716459501535342
"157" 0.000198729503388375 0.000209839202728128 7.09289470449963e-05 9.30469789988466e-05 0.000240448410581323 2.25755332643016e-05 0.000244901354353019 0.0002270151777731 0.0031461705612108 0.00100005060353876 -0.000167087542119745 -0.000165846561563186 -0.00025954370877868 -0.000201902515607953 -0.000509687353122336 0.000736630326329871
"158" 0.000213860224627588 0.000214812636303912 8.53199687135745e-05 9.64791608011171e-05 0.000265756856737435 4.34877437606841e-05 0.000267548399713796 0.000254802528229929 0.00319735511133679 0.000973656545255737 -0.000169823765290368 -0.000161127795088942 -0.000256257780095419 -0.000208383287673459 -0.00049576581755347 0.000755658708340226
"159" 0.000228207367025995 0.00021853983268909 0.000100171348485994 9.91853339047485e-05 0.000290688403569795 6.51951799245621e-05 0.00028906660244146 0.000282807335824564 0.00323217222454284 0.000947440127336516 -0.000171278735878061 -0.000154481552180833 -0.000251051615949846 -0.000211879615501593 -0.000477874235847258 0.000773538926936695
"160" 0.000241586504631181 0.00022094774588114 0.00011531417270258 0.00010113165099795 0.000314960260126193 8.74478344786857e-05 0.000309180099181264 0.000310745981510082 0.00324987539503069 0.000921425931520331 -0.000171397292981337 -0.000145978882502862 -0.000243991637918028 -0.000212344636235933 -0.000456087267039259 0.000790275832945012
"161" 0.000253826894147807 0.000221982612567675 0.0001305708091761 0.000102286144257445 0.000338304950782067 0.00010999114703675 0.000327623733135843 0.000338337252528534 0.00324986862204107 0.000895626745127887 -0.000170142639084811 -0.000135705011069667 -0.000235163173288448 -0.000209765218661475 -0.000430508200259476 0.000805880989124831
"162" 0.000264762368941192 0.000221603347203412 0.000145769609780684 0.000102619615638053 0.000360454117922491 0.000132562820102026 0.000344153657380197 0.000365300332371607 0.00323171869442908 0.000870047158598989 -0.000167495580814552 -0.000123762114243686 -0.00022466422469515 -0.000204152688073048 -0.000401268246624858 0.000820370438849805
"163" 0.000274239084670747 0.000219798107769632 0.000160731613300079 0.000102116477562633 0.000381155626418702 0.00015489097070947 0.000358528503900925 0.000391353472801782 0.00319517753989057 0.000844690076410953 -0.000163456856968348 -0.00011027305354462 -0.000212610831574068 -0.00019555007767096 -0.000368523018022537 0.000833766005064856
"164" 0.000282117475145302 0.000216564951264264 0.000175284858358615 0.000100773690613376 0.000400164064058004 0.000176714768054291 0.00037054605915106 0.000416226271299762 0.00314020857447479 0.000819557242766782 -0.00015803763042137 -9.53688872250061e-05 -0.000199130691549304 -0.000184029211684429 -0.000332453261815562 0.000846089808208416
"165" 0.000288267304636496 0.000211930868094524 0.000189261510408946 9.85925988381631e-05 0.000417255957566045 0.000197768328947777 0.00038001816842678 0.000439654410224093 0.00306698337999356 0.000794645364913862 -0.000151276407415116 -7.91995052633958e-05 -0.000184361667164655 -0.00016969141345491 -0.000293263888467676 0.000857362210683959
"166" 0.000292577651805532 0.000205938456806017 0.000202502035487429 9.55941069641668e-05 0.000432214721054084 0.000217791719662607 0.000386773533870041 0.000461385635334218 0.00297588531433723 0.000769962148030073 -0.000143228062194437 -6.19269387342592e-05 -0.000168457156382624 -0.000152659537885233 -0.000251191197907734 0.000867604114933266
"167" 0.000294955089136259 0.00019864949332536 0.000214851323016341 9.18016572476404e-05 0.000444855767872143 0.000236543354668659 0.000390683335320384 0.00048118752996632 0.0028675759473679 0.000745497479302193 -0.000133962885534032 -4.37210508686219e-05 -0.000151577636389983 -0.000133091508523854 -0.000206491224302108 0.00087682933226177
"168" 0.000295324620163205 0.000190142851513027 0.000226165070017174 8.72489306139213e-05 0.000455001681972609 0.000253782280382096 0.000391637480934507 0.000498837358355503 0.00274291487795739 0.000721270326822367 -0.00012357379551601 -2.47680043959372e-05 -0.000133892606273693 -0.000111161213199719 -0.000159444460421453 0.00088505098630461
"169" 0.000293627641457185 0.000180523548891946 0.000236313590304936 8.20027047474065e-05 0.000462516180253355 0.000269290010316233 0.000389558312036553 0.000514137580717847 0.00260303334900058 0.000697267631397077 -0.000112165934092564 -5.25295572729012e-06 -0.00011558123301132 -8.70736375198539e-05 -0.00011034940668623 0.000892267489649111
"170" 0.000289830736801766 0.000169904777357169 0.00024517287999889 7.61145582165414e-05 0.000467280449885828 0.000282867147827373 0.000384406422352356 0.000526919242358823 0.00244929352235748 0.000673499749393349 -9.98649216185563e-05 1.4624314887103e-05 -9.68209518124835e-05 -6.10501199489322e-05 -5.95299751148867e-05 0.000898480443980855
"171" 0.000283916046812398 0.000158420352317529 0.000252641531160276 6.9667552880887e-05 0.000469196382658161 0.000294330281247038 0.000376158727939976 0.000537027223005626 0.0022832907357925 0.000649991686155911 -8.68044544041339e-05 3.46642951404986e-05 -7.77978534092378e-05 -3.33321810612858e-05 -7.31671199457306e-06 0.000903684084884978
"172" 0.000275894248331416 0.000146213887565912 0.000258624656918203 6.27503319795723e-05 0.000468211176241224 0.000303526158124009 0.000364839315089285 0.000544341932656528 0.00210684847487034 0.000626735072330614 -7.31366945847418e-05 5.46659121370339e-05 -5.86989704167993e-05 -4.17897649899836e-06 4.59379287879236e-05 0.000907859140658054
"173" 0.000265787446553759 0.000133440933122295 0.000263052797412981 5.54533934566732e-05 0.000464282883505966 0.000310320097451638 0.00035049864323911 0.000548765919118886 0.00192196179899058 0.000603766428637608 -5.90208537405429e-05 7.44223881447366e-05 -3.97109067131143e-05 2.6139200718458e-05 9.98707556237254e-05 0.000910993957550604
"174" 0.000253646597280344 0.000120264695524075 0.000265860854603929 4.78928055315679e-05 0.0004574091195189 0.000314609353742516 0.000333209924650116 0.000550234940082129 0.00173081788526069 0.000581096796657746 -4.46261682503782e-05 9.37388482057609e-05 -2.10137650333533e-05 5.73420285271644e-05 0.000154109437403578 0.000913065011853586
"175" 0.000239534927030291 0.000106861852912389 0.000267016389611629 4.01742289378462e-05 0.000447617940352023 0.000316321231049678 0.000313089920688111 0.000548715358674535 0.00153572856923319 0.000558744398874297 -3.01306164548825e-05 0.000112411874492903 -2.79009133806425e-06 8.91362724345298e-05 0.000208279370173744 0.000914047711692485
"176" 0.000223544858048502 9.33999267726894e-05 0.000266489423185342 3.24211641172788e-05 0.000434956808672352 0.000315405675868648 0.000290276892881108 0.000544198932769263 0.00133909515488765 0.000536745214356985 -1.57121440889818e-05 0.000130257105238015 1.47818528401623e-05 0.000121229123289173 0.000261996483385898 0.000913917482445064
"177" 0.000205774147966466 8.00616531046591e-05 0.000264280258500008 2.47527208016747e-05 0.000419513425347278 0.00031185279387361 0.00026493271156654 0.000536715814037292 0.00114337916638213 0.00051512687565084 -1.55628239982113e-06 0.000147086659881924 3.15427426550918e-05 0.000153329285224824 0.000314877981315285 0.00091264907908325
"178" 0.000186350612176001 6.70181226272811e-05 0.000260397866105878 1.7296164185578e-05 0.000401393975947097 0.00030567104335745 0.000237242456862253 0.000526314158445273 0.000951028431099301 0.000493927482684357 1.21559059097203e-05 0.000162732934057428 4.73277584976394e-05 0.000185140942482502 0.000366539810092349 0.000910218533986091
"179" 0.000165409080056732 5.44424891030132e-05 0.000254877452498383 1.01758940746614e-05 0.000380737765540076 0.000296917345477215 0.000207432446682674 0.000513088890238888 0.000764458848960971 0.000473163662932511 2.5242148224021e-05 0.000177031179732619 6.19966880346907e-05 0.000216381954821857 0.000416605036793859 0.000906602081454184
"180" 0.000143101937240528 4.25021019212407e-05 0.000247762595857488 3.51490817036672e-06 0.000357703187826053 0.000285661335423628 0.000175727993667388 0.000497148425355965 0.000585970154306743 0.000452884126505694 3.75299732560504e-05 0.000189838383103163 7.54094749497345e-05 0.000246769520481769 0.000464695100495152 0.000901786171804506
"181" 0.000119592061947732 3.13537691151396e-05 0.000239121732388422 -2.56663067484415e-06 0.000332470575632009 0.000272005157434701 0.000142373146936238 0.000478631411623763 0.000417701106890443 0.00043311995151533 4.88466971536418e-05 0.00020102208753046 8.74465486229787e-05 0.000276048830929772 0.000510448444703665 0.0008957566222971
"182" 9.50514292917392e-05 2.11423291806089e-05 0.000229033212934017 -7.96092239625698e-06 0.000305250560923601 0.000256084856664466 0.00010763487356037 0.000457706500081921 0.000261614725750306 0.000413891236124724 5.90372202777268e-05 0.000210465449361431 9.79991115934412e-05 0.000303967691623036 0.000553498646141556 0.000888507131905384
"183" 6.96644741916383e-05 1.20040416561779e-05 0.000217590485008279 -1.25546494622274e-05 0.00027625368660896 0.000238053958885284 7.17835587653968e-05 0.000434557927640853 0.000119418912133994 0.000395232117950512 6.79487357284819e-05 0.000218073221118685 0.000106977516296544 0.00033029432921801 0.000593504363293238 0.000880040070755585
"184" 4.36143542288281e-05 4.05749408536771e-06 0.000204902686910263 -1.6254165651492e-05 0.000245722984290021 0.000218090809689598 3.51076149134683e-05 0.00040939698827636 -7.43639975998978e-06 0.00037715802191796 7.54482441233302e-05 0.000223765793555734 0.000114302676797702 0.000354824384284742 0.000630128196556253 0.000870360995474251
"185" 1.7100810366792e-05 -2.58745370556365e-06 0.000191094961445617 -1.89739121650205e-05 0.000213907666895992 0.000196398847831724 -2.10791540558061e-06 0.00038245005176494 -0.000117816058776335 0.000359680489663487 8.1416244449471e-05 0.000227485799775619 0.000119922114618701 0.000377369500382281 0.00066305290870266 0.000859487544039902
"186" -9.69016831476075e-06 -7.85090905927839e-06 0.000176294729345904 -2.06376315859519e-05 0.000181064704571051 0.000173189466545168 -3.95800468012607e-05 0.000353955548587334 -0.000210896159709785 0.000342810937658614 8.57488431008116e-05 0.000229192765645135 0.000123784817831821 0.000397769885481686 0.000691975742454281 0.000847442854684873
"187" -3.6561124744839e-05 -1.16639121337565e-05 0.000160641351490387 -2.11900705193031e-05 0.00014745978583709 0.000148694629524729 -7.70158238692031e-05 0.000324168595382177 -0.000286183758767849 0.000326549299397262 8.83560900131824e-05 0.000228864813416153 0.000125870219093563 0.000415886938244766 0.00071660785090761 0.000834262639595992
"188" -6.33203819696233e-05 -1.39810380812503e-05 0.000144285101320719 -2.05787817345734e-05 0.000113361254858288 0.000123149331370749 -0.000114138634680083 0.000293345632896144 -0.000343500377127301 0.000310896306109645 8.91717830763073e-05 0.000226501988916521 0.000126167987511321 0.000431617118501599 0.000736690626864681 0.000819988465104793
"189" -8.97836662501974e-05 -1.47656070585053e-05 0.000127380001397186 -1.8771441964203e-05 7.90450595753721e-05 9.68134147995881e-05 -0.000150666077132317 0.00026176617654316 -0.000382953433317686 0.000295809364654431 8.81463583408778e-05 0.000222126022925698 0.000124689699039295 0.000444874454371409 0.000751981029151002 0.000804663629806202
"190" -0.000115767473139473 -1.40168319238097e-05 0.000110084161069 -1.57481026366229e-05 4.47727797765346e-05 6.99360315901443e-05 -0.000186339979740785 0.000229691345939761 -0.000404973442099074 0.000281279996045311 8.52535775096798e-05 0.00021577732096665 0.000121456067660945 0.000455610450114091 0.000762261648490106 0.000788356129915073
"191" -0.000141098651369452 -1.17424985839334e-05 9.25540088834635e-05 -1.15060733246592e-05 1.08204203946362e-05 4.27767358415578e-05 -0.000220897203090766 0.000197401383018332 -0.000410205425056737 0.000267252163785096 8.04838789931972e-05 0.000207509322654218 0.000116510320214811 0.000463797917133866 0.000767339470062872 0.000771120790853093
"192" -0.000165613769032625 -7.97848324260802e-06 7.495277420365e-05 -6.05966327031673e-06 -2.25635982634102e-05 1.55891501357319e-05 -0.000254103313192036 0.000165161301508112 -0.000399539241612822 0.000253683873788145 7.38491781617212e-05 0.00019740112031853 0.000109908808644104 0.000469441916461568 0.000767048059901651 0.000753036371517891
"193" -0.000189161357586662 -2.78144436654252e-06 5.74391204504876e-05 5.61909253361123e-07 -5.51286584645621e-05 -1.13766394934638e-05 -0.000285738709087448 0.000133230963229085 -0.000374050700740171 0.000240512305316017 6.53858814705989e-05 0.000185539018684415 0.000101719642529583 0.000472570685762092 0.000761252033787695 0.00073418315195483
"194" -0.00021159746746703 3.78093625923746e-06 4.01651653229019e-05 8.32264596105502e-06 -8.66312756080311e-05 -3.78730899274214e-05 -0.000315591808602072 0.000101872255859905 -0.000334956662539597 0.000227654114964675 5.51477644023479e-05 0.000172032050096071 9.20291589289479e-05 0.000473238504686739 0.000749850566034318 0.000714649974530043
"195" -0.000232800565821691 1.16113032524008e-05 2.32848084317828e-05 1.71652426638145e-05 -0.000116858356728096 -6.36685370911957e-05 -0.000343484076471276 7.13235857554898e-05 -0.000283598375288787 0.000215035525818716 4.32068486481426e-05 0.000157002409313499 8.09312227077331e-05 0.000471522744473594 0.000732763906577719 0.00069453103021195
"196" -0.000252658963075275 2.05999044618e-05 6.93540310441889e-06 2.701708804787e-05 -0.000145598819210567 -8.85383224851402e-05 -0.000369249508753634 4.18202944109156e-05 -0.000221405685153706 0.000202561246660834 2.9661257639008e-05 0.000140577949901255 6.85291344601628e-05 0.000467527966989182 0.000709956026327189 0.000673934733162192
"197" -0.000271070884680763 3.06279305116653e-05 -8.73888998450767e-06 3.7804622700963e-05 -0.000172660927261544 -0.000112265877065615 -0.00039274579893764 1.35769084173955e-05 -0.000149844777880959 0.00019011099166639 1.46206220319273e-05 0.000122910003283349 5.49449959746541e-05 0.000461372835041699 0.000681430052762967 0.000652959367232789
"198" -0.000287958489902392 4.15445789908659e-05 -2.36206900140477e-05 4.94233779295064e-05 -0.000197883608113254 -0.000134666231410828 -0.000413859660300555 -1.32106389208008e-05 -7.04374218136042e-05 0.000177596948967509 -1.78542855530138e-06 0.000104144337981005 4.02998741547053e-05 0.000453199488475717 0.000647212019402123 0.000631726686766083
"199" -0.000303260512259255 5.31933520462262e-05 -3.75926916873487e-05 6.17699514518459e-05 -0.000221111028195714 -0.000155561357619061 -0.000432493219895155 -3.83571974661935e-05 1.53223633335573e-05 0.000164879376291355 -1.94142698284354e-05 8.44449633017463e-05 2.47268670668117e-05 0.000443162126726892 0.000607375814679958 0.000610353190642459
"200" -0.000316929449706791 6.54103079010199e-05 -5.05544059727634e-05 7.47329708869798e-05 -0.000242223010441851 -0.000174791872785176 -0.000448582293024078 -6.17121647403703e-05 0.000105922573245237 0.000151848983156691 -3.8098741274992e-05 6.39746380874146e-05 8.36355798096106e-06 0.000431435975991029 0.000562035168245651 0.000588967994908076
"201" -0.000328933483079 7.80131938874358e-05 -6.24118116555658e-05 8.81830340906827e-05 -0.000261109067776245 -0.00019221902331844 -0.000462074761380173 -8.31246379140083e-05 0.000199908319984617 0.000138350390231484 -5.7675192270856e-05 4.29080830094375e-05 -8.64938867937019e-06 0.000418198866112978 0.000511346230876113 0.000567698996893829
"202" -0.00033926259310881 9.08192035621901e-05 -7.30966432347071e-05 0.0001019894242825 -0.000277691270606382 -0.000207726365023336 -0.000472955210609993 -0.000102486946714893 0.00029585683449739 0.000124255165898844 -7.79547371823085e-05 2.14173863727079e-05 -2.61685277595279e-05 0.000403643060290808 0.000455494987600795 0.000546686663057817
"203" -0.000347921658005563 0.000103633094581563 -8.25464562660645e-05 0.000116013507352559 -0.000291911472982188 -0.000221222875489244 -0.000481223790129786 -0.000119703328390017 0.000392391755413232 0.000109422963144887 -9.87509685754187e-05 -3.25142699287075e-07 -4.40449822517808e-05 0.000387968894501411 0.000394726532079958 0.000526068132434002
"204" -0.000354926920927096 0.00011626191823122 -9.07123515994641e-05 0.000130113366487685 -0.000303736867024362 -0.000232626639400462 -0.000486909982053504 -0.000134703456302711 0.000488205689125175 9.37035193070144e-05 -0.000119862532437366 -2.21437726669434e-05 -6.21300095603725e-05 0.000371380485455749 0.000329320403774567 0.000505982110226286
"205" -0.000360317488823392 0.000128504778138968 -9.75741466290983e-05 0.000144140389524896 -0.000313156915811635 -0.000241893381941046 -0.000490058942705606 -0.000147439992241077 0.00058205498866173 7.69482031866736e-05 -0.000141088877723121 -4.38655738211471e-05 -8.0281170634874e-05 0.000354079921015952 0.000259591629014431 0.000486571391429213
"206" -0.000364140921227109 0.000140166054540516 -0.000103109502062107 0.000157939163341205 -0.000320183360101924 -0.000248992879208161 -0.000490739149929438 -0.000157889105759827 0.000672753829987638 5.90160791662578e-05 -0.000162227506362082 -6.53245156480294e-05 -9.83523846350468e-05 0.000336274593220251 0.000185907319630677 0.000467982523511358
"207" -0.000366462818228133 0.000151052306811671 -0.000107326172618165 0.000171368116686964 -0.000324850065277169 -0.000253913585202934 -0.000489038382300221 -0.000166046201442803 0.000759211600659551 3.97648727450605e-05 -0.000183073546442354 -8.63564193270192e-05 -0.000116204988400503 0.000318163338886654 0.00010867609095811 0.000450352399152529
"208" -0.000367360056809282 0.000160971963999853 -0.000110241881951097 0.000184276409376572 -0.000327217461766564 -0.000256675761689133 -0.000485070953967238 -0.000171936287205871 0.00084039834120081 1.90593625398346e-05 -0.000203428287688944 -0.000106804298065867 -0.000133700634461712 0.000299945450226266 2.83430716005089e-05 0.000433819097024728
"209" -0.000366920504726489 0.000169751936882779 -0.000111890135491333 0.000196516132755579 -0.000327354962027591 -0.000257310139654197 -0.000478958178501651 -0.00017560132446395 0.000915374876457068 -3.22892180369157e-06 -0.000223090530378468 -0.000126516351556659 -0.000150709472892491 0.000281812032668308 -5.46066943327264e-05 0.000418515380770114
"210" -0.000365241135540794 0.00017721733314066 -0.000112318941306831 0.000207948010463346 -0.000325362314592265 -0.000255873679546199 -0.000470836034199356 -0.000177098796335267 0.000983283969041225 -2.72292013919123e-05 -0.000241875535078502 -0.000145350375969206 -0.000167107161686051 0.0002639440720957 -0.000139651194731575 0.000404559006090361
"211" -0.000362429641749104 0.00018321056978089 -0.000111594625829342 0.000218429042498428 -0.00032135631986318 -0.000252444475295111 -0.000460865386750983 -0.000176517927753307 0.00104333219607592 -5.30287872863212e-05 -0.000259599057282918 -0.000163174872131295 -0.000182776973363389 0.000246518290999541 -0.000226236771571272 0.000392066737968567
"212" -0.000358595796295502 0.000187595250579339 -0.000109782818645838 0.000227839377483453 -0.000315458478676106 -0.000247108313430314 -0.000449201978468076 -0.000173951888954708 0.00109483392064251 -8.0745038491792e-05 -0.000276091593707174 -0.000179865025229507 -0.00019761031781883 0.000229695450058082 -0.000313775848994898 0.000381133009781638
"213" -0.0003538637504211 0.000190233007144826 -0.000106984996937141 0.000236048416830252 -0.000307821585243242 -0.000239987924476626 -0.000436028710873495 -0.000169520966182993 0.00113716828461516 -0.000110432531430416 -0.000291196279514413 -0.000195312424923988 -0.00021150551166053 0.000213621980555363 -0.000401663708692706 0.000371841772866183
"214" -0.000348356274624258 0.000191033135157118 -0.000103294680195938 0.00024296191706403 -0.000298595380942742 -0.000231195771502114 -0.000421514635670921 -0.000163350926817019 0.00116982422749965 -0.000142172287254833 -0.000304767913063058 -0.000209411716849174 -0.000224374359986067 0.000198431870531332 -0.000489260458273389 0.000364253304126422
"215" -0.00034219166226467 0.00018989453830639 -9.88214680063131e-05 0.00024847302656887 -0.00028795114495985 -0.000220878705164291 -0.000405850768970555 -0.000155588014276379 0.00119235844904115 -0.000175987514359831 -0.000316680144255392 -0.000222078380204329 -0.000236132551778333 0.000184244378846572 -0.000575919157139509 0.000358411774091809
"216" -0.000335496990491156 0.000186756525746381 -9.3687635056657e-05 0.000252502148829331 -0.00027605984847707 -0.000209193457496808 -0.000389226081032071 -0.00014638932154844 0.00120442248572785 -0.000211891536213246 -0.000326818020651781 -0.000233237342996236 -0.000246713264959648 0.000171159852803754 -0.00066097695831235 0.000354333614483161
"217" -0.000328397483800867 0.000181572676415995 -8.8014084766099e-05 0.000254980010669234 -0.000263108819262216 -0.000196297092430306 -0.000371829262789835 -0.000135912692236169 0.00120576212447168 -0.00024987402814095 -0.000335090767783368 -0.000242820737768796 -0.000256052680119518 0.00015926398119424 -0.000743770291593813 0.00035201192281715
"218" -0.000321012777729689 0.000174328136747001 -8.19394221795394e-05 0.000255857421181384 -0.000249277100110457 -0.000182361567664688 -0.000353836018992612 -0.000124328501660118 0.00119621070902426 -0.000289895057655536 -0.000341420796558858 -0.000250782508828488 -0.000264105644157674 0.000148620380098706 -0.000823628625017253 0.000351410185306362
"219" -0.000313454148896894 0.000165024072857891 -7.55957683730636e-05 0.00025510091607869 -0.00023475355540516 -0.000167569013159563 -0.000335436494568114 -0.000111818218872369 0.00117568349321603 -0.000331874959787897 -0.000345750800782437 -0.000257083223710629 -0.000270833119847531 0.000139281167044843 -0.000899897301682484 0.000352465498496376
"220" -0.000305836146086531 0.00015368619721469 -6.91263767513353e-05 0.000252687550785041 -0.000219730871512885 -0.000152106397992917 -0.000316800376156473 -9.85533436621088e-05 0.00114419527765563 -0.000375692857849364 -0.000348042324378757 -0.000261699158144914 -0.000276206179242642 0.000131274456775137 -0.000971935622258717 0.000355086362323174
"221" -0.000298254180602277 0.000140364037516693 -6.26688275600305e-05 0.000248615103984139 -0.000204389903830324 -0.00013615814168894 -0.000298102553368318 -8.47178409526713e-05 0.001101855294649 -0.0004212151073025 -0.000348279151442332 -0.000264621962303877 -0.000280216666054946 0.000124612466373765 -0.00103911826444286 0.000359149107828434
"222" -0.000290805502334522 0.000125144489936397 -5.63622468666693e-05 0.00024291605874809 -0.000188907834173623 -0.000119911380142275 -0.000279490814801221 -7.04820701943231e-05 0.00104885845888461 -0.000468252451755263 -0.000346453343664191 -0.000265851058854733 -0.000282852725514386 0.000119289878461793 -0.00110084584175594 0.00036450316888323
"223" -0.000283572307323178 0.000108112254209826 -5.03443362692231e-05 0.000235612422182481 -0.000173466621933773 -0.000103556218585967 -0.000261113501940428 -5.60246151850506e-05 0.000985482057095514 -0.000516572480152058 -0.000342590541152525 -0.000265400621719781 -0.000284126450484795 0.000115279867860816 -0.00115656867491202 0.000370969574896088
"224" -0.000276622046401232 8.94000965004763e-05 -4.47457654584552e-05 0.000226773728683184 -0.000158217185905926 -8.72708573447759e-05 -0.000243100034712747 -4.15102011367362e-05 0.000912113317534213 -0.000565926331300576 -0.000336717592634811 -0.000263297157189338 -0.000284047321812698 0.000112546764974516 -0.00120576228530713 0.000378341900016862
"225" -0.000270015404440314 6.91437500468024e-05 -3.96988182937847e-05 0.000216466432489204 -0.000143324335103765 -7.12385513893331e-05 -0.000225570008172939 -2.71014849413443e-05 0.000829200308712571 -0.000615986528778419 -0.000328890815839091 -0.000259579703776697 -0.000282648820102721 0.000111030977496032 -0.00124795901714203 0.00038639314006121
"226" -0.000263800379326296 4.75055339774164e-05 -3.53197384267201e-05 0.000204781591146676 -0.000128925778177431 -5.56265911707702e-05 -0.000208625521880027 -1.29483554050524e-05 0.000737294698686852 -0.00066642052426816 -0.000319172723402633 -0.000254296160512669 -0.000279964438961699 0.00011066064756856 -0.00128274176141908 0.000394872848527363
"227" -0.000258004438618676 2.4666545423251e-05 -3.17208345253698e-05 0.000191829692678425 -0.000115147056187935 -4.05917544083918e-05 -0.00019234587643929 8.11187921078198e-07 0.000637025036533854 -0.000716840060869179 -0.000307645670407202 -0.000247503889652835 -0.000276035596249711 0.000111352202945602 -0.00130975017059557 0.00040351488655862
"228" -0.000252649950996305 8.18350694156364e-07 -2.89967910015354e-05 0.000177728423746421 -0.000102101855073322 -2.62853538484859e-05 -0.000176799926350626 1.40484064221602e-05 0.000529102715323301 -0.000766823539708306 -0.000294405339230859 -0.00023927541320663 -0.000270916881860576 0.000113005685851549 -0.00132869182467059 0.0004120405186642
"229" -0.000247741151081176 -2.3832134959415e-05 -2.72421545314861e-05 0.000162615933284543 -8.98896984007188e-05 -1.28415295684846e-05 -0.000162041722953478 2.6650224184035e-05 0.00041431105789133 -0.000815910809830332 -0.000279553366747652 -0.000229682746614918 -0.000264665616753939 0.000115514009629613 -0.00133933650275263 0.000420157061535372
"230" -0.000243274188068732 -4.90602282236484e-05 -2.65254197601767e-05 0.000146640782648101 -7.8584389464264e-05 -3.77308069855556e-07 -0.000148102209780142 3.85181581303219e-05 0.000293503883131437 -0.000863616675197524 -0.000263208450936938 -0.00021881244989258 -0.000257350749429707 0.000118758076327272 -0.00134152440945463 0.000427576271875541
"231" -0.000239220636553885 -7.46417976254188e-05 -2.69118682029793e-05 0.000129960693153613 -6.82470681483187e-05 1.1006565046554e-05 -0.000134988272372766 4.95757795886965e-05 0.000167628812447061 -0.000909438266394145 -0.000245495755614074 -0.000206755023595357 -0.000249036006272991 0.000122613528015055 -0.00133516109329542 0.000433996966244644
"232" -0.000235548355108991 -0.000100341668683446 -2.84444783680304e-05 0.000112745699942284 -5.89263455079862e-05 2.12229641998028e-05 -0.000122701872201024 5.97505445867949e-05 3.76560095956918e-05 -0.000952842099330185 -0.000226546288906906 -0.0001936061196728 -0.000239801005414424 0.000126948237692972 -0.00132023297052964 0.000439133930180902
"233" -0.000232213911690271 -0.000125917553559433 -3.11493585301721e-05 9.51690425453954e-05 -5.06344479446522e-05 3.02100395162651e-05 -0.000111223781769909 6.90009557926686e-05 -9.53354041167885e-05 -0.000993295981469787 -0.000206497399777074 -0.000179468199192434 -0.000229720931886605 0.000131631804116782 -0.00129678553537128 0.000442705058629987
"234" -0.000229152974139424 -0.000151140338131266 -3.50445280109121e-05 7.74001107550042e-05 -4.33888791502371e-05 3.79177894392825e-05 -0.0001005169306223 7.72936857642392e-05 -0.000230247567627203 -0.00103025532220479 -0.000185494784957176 -0.000164445655559951 -0.000218878634405052 0.000136524240572565 -0.00126495181506921 0.000444441729437967
"235" -0.000226301005557665 -0.000175762828879412 -4.01169981646409e-05 5.96306099287662e-05 -3.71635522521669e-05 4.43273758844176e-05 -9.05256889579935e-05 8.46217709505322e-05 -0.000365907717222535 -0.00106320059918367 -0.0001636802883431 -0.000148641410916575 -0.000207347632124026 0.000141493325079739 -0.00122492042778682 0.000444088269672969
"236" -0.000223578880252368 -0.000199559851134802 -4.63509884205197e-05 4.20325530256235e-05 -3.19392868753992e-05 4.94296830228599e-05 -8.11930697790297e-05 9.09833217370148e-05 -0.000501143573231327 -0.00109160212636338 -0.00014120360742037 -0.000132169520985134 -0.000195216440736083 0.00014641033239172 -0.00117695541446515 0.00044142130647591
"237" -0.000220897848719218 -0.000222305439703864 -5.37032639259805e-05 2.47865465142379e-05 -2.76603635685818e-05 5.32388150383538e-05 -7.24384495479459e-05 9.64068886705514e-05 -0.000634698471301066 -0.00111499086618922 -0.000118212307123107 -0.000115134085295276 -0.000182563751040341 0.000151143989651322 -0.00112138341274913 0.000436224132030319
"238" -0.000218166838173303 -0.000243778199843219 -6.21207365605144e-05 8.06979352753955e-06 -2.42611448805373e-05 5.57945051449839e-05 -6.41722758747073e-05 0.00010093130884668 -0.000765317503456243 -0.00113291965350902 -9.48513760428775e-05 -9.76427598299552e-05 -0.000169468104100633 0.000155571627356663 -0.00105858956950974 0.000428318281166125
"239" -0.000215286982772381 -0.000263772517849491 -7.15210639197337e-05 -7.94681867405016e-06 -2.16658037366607e-05 5.71518028507999e-05 -5.63012730686697e-05 0.000104610637125214 -0.0008917338208773 -0.00114499285336575 -7.12716515972932e-05 -7.97997288086344e-05 -0.000155999632684708 0.000159589580185252 -0.000989012465590149 0.000417546654955322
"240" -0.000212154980706076 -0.000282105910362001 -8.18258197958542e-05 -2.31138964543818e-05 -1.97791764761824e-05 5.73765615887452e-05 -4.87206395368542e-05 0.000107511127033178 -0.00101268709759567 -0.00115086771245774 -4.76086247510778e-05 -6.17089950205785e-05 -0.000142239631290216 0.000163093599233521 -0.000913149091722106 0.0004037914036516
"241" -0.00020866571724866 -0.000298596138602327 -9.29228555185062e-05 -3.72752515359549e-05 -1.84976518467883e-05 5.65621697224707e-05 -4.13165356392209e-05 0.000109719638930548 -0.00112690943554921 -0.00115029241246937 -2.40072018313086e-05 -4.34693587769999e-05 -0.000128253267995446 0.000165996163352627 -0.000831529421602668 0.000386955437988326
"242" -0.000204716371594725 -0.000313081700835419 -0.000104695275603624 -5.02856923063457e-05 -1.77023616981348e-05 5.4813885340884e-05 -3.39793640448366e-05 0.000111327659944132 -0.00123317139648089 -0.00114307905734382 -5.92896762068401e-07 -2.51756683423005e-05 -0.000114103094653365 0.000168220459764669 -0.000744735915092302 0.000366981209638119
"243" -0.000200195779300302 -0.000325425459785262 -0.000117013151648434 -6.20238104152798e-05 -1.72663160049185e-05 5.22509249341042e-05 -2.65897757970851e-05 0.000112443789060935 -0.00133029065428836 -0.0011291307142611 2.25014919989404e-05 -6.91365078233559e-06 -9.98476899083421e-05 0.00016970521054155 -0.000653372495522325 0.00034384150339135
"244" -0.000195008553454789 -0.00033551113914316 -0.000129729948451796 -7.23814820099665e-05 -1.70609220288216e-05 4.90009143327686e-05 -1.90352571188259e-05 0.000113176056346105 -0.00141716579368282 -0.00110842775702953 4.51570205627152e-05 1.12304907784356e-05 -8.55387955529072e-05 0.00017040765982791 -0.000558083976478239 0.000317543900956069
"245" -0.000189055314204673 -0.000343242507234024 -0.000142699105865861 -8.12625401750956e-05 -1.6956086258779e-05 4.52016864379108e-05 -1.12089705477724e-05 0.000113643443545873 -0.00149278082802432 -0.001081048033835 6.72576318523614e-05 2.91792769320301e-05 -7.12287424711917e-05 0.000170300237007971 -0.000459529756098021 0.000288132992008355
"246" -0.000182238256681587 -0.000348541759103877 -0.000155757903744721 -8.85842162733957e-05 -1.68034710615352e-05 4.1003778189029e-05 -2.99469366123426e-06 0.000113970202274002 -0.00155621993592976 -0.00104717269942475 8.87017402769441e-05 4.6864160662408e-05 -5.69560295157134e-05 0.000169365819544524 -0.000358384897969338 0.000255678545341865
"247" -0.000174483243115893 -0.000351353712048569 -0.000168737724427794 -9.42852948353932e-05 -1.64660184469114e-05 3.65587634109891e-05 5.70861345142261e-06 0.000114283983989016 -0.00160670995148959 -0.00100706363427768 0.00010938782460562 6.42201208149504e-05 -4.27541675926887e-05 0.000167612550173257 -0.000255339384349492 0.000220290366519769
"248" -0.000165700630550198 -0.000351651242623729 -0.000181469202610298 -9.83246381707288e-05 -1.58021562609681e-05 3.20237087614361e-05 1.50013168178479e-05 0.000114713594876148 -0.00164363034191307 -0.000961075847090456 0.000129229417825021 8.11940353264635e-05 -2.86525558751943e-05 0.000165057501597323 -0.000151080444797755 0.00018210433144184
"249" -0.000155832494290933 -0.000349435585093597 -0.00019378580277935 -0.000100677318822282 -1.46909049670864e-05 2.75452830601823e-05 2.49514806448319e-05 0.000115373212615008 -0.00166655680279347 -0.000909633315008698 0.000148143172051204 9.77313337238258e-05 -1.46795262024478e-05 0.000161738355768629 -4.63089862778874e-05 0.000141296806107282
"250" -0.000144820452331536 -0.000344718382142706 -0.000205504453006501 -0.000101341068184348 -1.2990626614228e-05 2.32828343345516e-05 3.56509015486758e-05 0.000116392677735104 -0.00167523988480709 -0.000853259830852165 0.000166060419851165 0.000113792811154793 -8.45180136719184e-07 0.000157707365698214 5.82936314674732e-05 9.806717518384e-05
"251" -0.000132623700770185 -0.000337547849931561 -0.000216461873830584 -0.000100323110742612 -1.05855341832555e-05 1.93839739138497e-05 4.71499170285983e-05 0.00011788523785262 -0.00166965587825049 -0.000792518735911059 0.000182915991378108 0.000129341337629795 1.28355888226987e-05 0.00015302996405903 0.000162047387431844 5.26469350224758e-05
"252" -0.000119208964721029 -0.000327983299875387 -0.000226487329113968 -9.76572335622172e-05 -7.36306054857611e-06 1.59936008277757e-05 5.95083473596701e-05 0.0001199633412357 -0.00164999468873352 -0.000728058418164948 0.000198665021141061 0.000144351312119222 2.63542251976458e-05 0.000147785182059386 0.00026429297606317 5.29413428290034e-06
"253" -0.000104561414018335 -0.000316120631537106 -0.000235425347391482 -9.34008691431937e-05 -3.22239437142625e-06 1.32392214948084e-05 7.27527323552494e-05 0.0001227185641598 -0.00161669655496597 -0.000660547418997909 0.000213257259353285 0.000158795080559527 3.9707375831269e-05 0.000142064339108058 0.000364377723778573 -4.37050326687687e-05
"254" -8.86834792921586e-05 -0.000302062703529071 -0.000243116538912498 -8.76156938625366e-05 1.92236880866174e-06 1.1247398587712e-05 8.69009364066318e-05 0.000126240721979652 -0.00157043910017712 -0.000590703429755406 0.000226664569621064 0.000172659856865699 5.28966077697107e-05 0.000135972035782639 0.000461684264300486 -9.40369645722921e-05
"255" -7.1583682368728e-05 -0.000285947820056349 -0.000249427602785659 -8.03949978890282e-05 8.14076263881043e-06 1.01243101161151e-05 0.00010195529971965 0.000130607721112188 -0.00151211998018299 -0.000519263441512942 0.000238859637645838 0.000185929809824971 6.59222224496229e-05 0.000129620428860713 0.00055561000940243 -0.000145366571791271
"256" -5.3298411254697e-05 -0.000267916254151185 -0.000254215410653328 -7.18411219867401e-05 1.55012554320961e-05 9.97293048089331e-06 0.000117910099736233 0.000135883140156591 -0.00144286007052447 -0.000447001411885256 0.000249826225624369 0.000198599952297914 7.87908922132165e-05 0.000123129515853037 0.000645591611816079 -0.000197341596495049
"257" -3.38701401803577e-05 -0.00024813858962031 -0.00025737141592379 -6.20671163466676e-05 2.40358237057032e-05 1.08718547146122e-05 0.000134727142290124 0.000142113360746587 -0.00136398715324715 -0.000374668968709159 0.000259559915145278 0.000210665834874814 9.15116383838645e-05 0.000116620495773329 0.000731094540440643 -0.000249585535133645
"258" -1.33590428519225e-05 -0.000226796793044041 -0.000258790513139347 -5.12083762014189e-05 3.37717602512443e-05 1.28827740110838e-05 0.000152360225523674 0.000149328259826957 -0.00127702263444714 -0.000303012800420173 0.000268057852676257 0.000222129231362273 0.000104088720126055 0.000110229038280887 0.000811614749406404 -0.000301702940172566
"259" 8.1544397866473e-06 -0.000204095589955008 -0.00025838618397421 -3.94188641674286e-05 4.47093869294685e-05 1.60503849842036e-05 0.000170743954492604 0.000157542999541921 -0.00118361764499101 -0.00023277398882325 0.000275322295291501 0.000232988762534065 0.000116529526524303 0.000104081431727068 0.000886686771400501 -0.00035329003325144
"260" 3.05779899183131e-05 -0.000180230697297839 -0.000256084918028468 -2.68500097194969e-05 5.68451077716408e-05 2.04117659815758e-05 0.000189807787034325 0.000166763329871112 -0.00108553533113111 -0.000164691184918565 0.000281371518443558 0.000243255578340208 0.000128843566589852 9.83106182862077e-05 0.000955890722610626 -0.000403935309821068
"261" 5.37989313791917e-05 -0.000155432547592164 -0.000251841201880593 -1.3673765077579e-05 7.01393695806979e-05 2.59669903357779e-05 0.0002094459587343 0.000176967445729078 -0.000984637925683184 -9.94219943737941e-05 0.000286218561575654 0.000252930133924432 0.000141035944748369 9.30480421796168e-05 0.0010188387764795 -0.000453208404427237
"262" 7.77020821584898e-05 -0.00012992728332614 -0.000245623717040538 -5.81094529599525e-08 8.45424814798319e-05 3.27073423797589e-05 0.000229547377640779 0.000188114937111628 -0.00088282187452009 -3.76291488857516e-05 0.000289889017899984 0.000262022397383729 0.000153106862133281 8.84250081684909e-05 0.00107519370253566 -0.000500687671639504
"263" 0.000102149691868674 -0.000103941782208955 -0.000237418033594726 1.38135021688437e-05 9.99935573936563e-05 4.06100389338015e-05 0.000250000409715084 0.000200163238232627 -0.000781958189092697 2.00689096990397e-05 0.000292410372521905 0.000270540303468543 0.000165059076687733 8.45618766293857e-05 0.00112465625946273 -0.0005459561726608
"264" 0.000126992922649906 -7.77178244971085e-05 -0.00022723603106894 2.77471261569691e-05 0.000116397400235903 4.96225880394524e-05 0.000270661852661605 0.000213038482994566 -0.000683915143667558 7.31193782283404e-05 0.000293809379268615 0.00027848836623248 0.000176891912216258 8.15771770350579e-05 0.00116697497383897 -0.000588589678741659
"265" 0.000152075224457955 -5.14962734129434e-05 -0.00021510982200802 4.15625384322252e-05 0.00013365230167889 5.96733089194937e-05 0.000291388829721012 0.000226655170798988 -0.000590457803825254 0.00012101308115997 0.00029412317849789 0.000285873509735299 0.000188594533565816 7.95799297404635e-05 0.00120193959253323 -0.000628185383892778
"266" 0.000177225380695432 -2.55114731174926e-05 -0.00020108834891479 5.50643090138038e-05 0.000151639551766691 7.06801826590351e-05 0.000312022397077809 0.000240915244442982 -0.000503247346002537 0.000163273280500589 0.000293382586648012 0.000292702727138648 0.000200159189523441 7.86661526795069e-05 0.00122939159395915 -0.000664362219599634
"267" 0.000202270671875732 1.043682679113e-08 -0.000185242358056918 6.80805931135931e-05 0.000170226651173044 8.25448329901386e-05 0.00033241044885613 0.000255706338867328 -0.000423777607312099 0.000199491386007054 0.000291629044587987 0.000298973722990366 0.000211572554510049 7.89257945002196e-05 0.00124922079557778 -0.000696758511471241
"268" 0.000227027954115778 2.48305299680331e-05 -0.00016767500547581 8.04163183078967e-05 0.00018925479891674 9.51420150086484e-05 0.000352373361388483 0.000270897291870203 -0.000353401619017202 0.000229324942853232 0.000288897714355678 0.000304688680876588 0.000222806520084202 8.04355356639131e-05 0.00126136065335203 -0.000725044648859051
"269" 0.000251312396003184 4.87353124301902e-05 -0.000148490976179645 9.1901851841759e-05 0.000208571892009701 0.000108341240411205 0.00037174895394307 0.000286355639951359 -0.000293229099448607 0.000252460806246472 0.000285228543309522 0.000309843636867472 0.000233840455489663 8.32534170253708e-05 0.00126578925380573 -0.000748933409073326
"270" 0.000274930147714386 7.1515792445607e-05 -0.000127827167205343 0.000102374095057678 0.000228003781925718 0.000121993754173927 0.000390363288124147 0.000301925923020605 -0.000244203764474424 0.000268674259684564 0.000280655033799802 0.000314436353576993 0.000244642067692098 8.74324830121329e-05 0.0012625404717352 -0.000768172151578697
"271" 0.000297698276613529 9.29802635369027e-05 -0.000105838169124595 0.000111677387891216 0.000247373928742701 0.000135946209694912 0.000408048761833186 0.000317460408943134 -0.00020698580138432 0.000277766938447422 0.000275217879233223 0.000318457786298326 0.00025517439809398 9.29991712403934e-05 0.00125168449006652 -0.000782571246262766
"272" 0.000319422001708322 0.000112941253285692 -8.26907469634576e-05 0.000119666733770222 0.00026649064379152 0.000150023645319134 0.000424635800865662 0.00033278793734363 -0.000182050061541399 0.000279621203656587 0.000268950960031939 0.000321894193705482 0.000265397619924062 9.99678314910401e-05 0.00123334132263903 -0.000791985406817365
"273" 0.000339922497706214 0.000131235787483288 -5.85781544736866e-05 0.000126219112857051 0.000285165675634875 0.000164048740050387 0.000439954949604605 0.000347740591050947 -0.000169605189099783 0.000274172686289296 0.000261891341948225 0.000324732508705145 0.000275260461114184 0.000108337194435276 0.00120767990168035 -0.000796335881789656
"274" 0.000359020518958015 0.000147711464242092 -3.36965196823822e-05 0.000131211492850115 0.00030320282214257 0.000177841935013483 0.000453861493762107 0.000362156201491914 -0.000169620823046149 0.00026139865138066 0.000254072576928437 0.000326956221237503 0.000284714982174654 0.000118086375748837 0.00117490226306783 -0.000795608130515933
"275" 0.000376546198672762 0.000162247381949584 -8.26173517038592e-06 0.00013456344375699 0.000320413711377088 0.000191209409826194 0.000466203482518488 0.000375854169134426 -0.000181864917105811 0.000241358518264894 0.000245526285004995 0.000328547103251319 0.000293702280882066 0.000129178585517288 0.00113526402813165 -0.000789852365439725
"276" 0.000392333918551125 0.000174731117331672 1.74986613840585e-05 0.000136187088257544 0.000336603999256953 0.000203966797962504 0.000476844351182013 0.000388673292327358 -0.000205876366136967 0.000214151248408451 0.0002362853895422 0.00032947970333039 0.000302160143346426 0.000141554301832687 0.00108905373478241 -0.000779190437043571
"277" 0.000406241094419548 0.000185076208837523 4.33515055361286e-05 0.000136036129256122 0.00035158911187913 0.000215923324548364 0.000485666335253668 0.000400440478971455 -0.000240988015036273 0.00017994260783382 0.000226380050949491 0.000329735518376441 0.000310029420471894 0.000155138930543259 0.00103659879212048 -0.000763819176698375
"278" 0.000418129403679606 0.000193220000367438 6.90509515264794e-05 0.000134066587833762 0.000365188141561734 0.000226891497518964 0.000492554748688038 0.000410998900451313 -0.000286368109220706 0.000138951678397522 0.000215843713684574 0.000329283257931287 0.000317241216054815 0.000169836336463619 0.000978267847504258 -0.000743996220366346
"279" 0.000427875979452772 0.000199118356392491 9.43509891050807e-05 0.000130269118928656 0.000377233151559525 0.000236688356263088 0.000497414554535274 0.000420194983330091 -0.00034101507145472 9.14598530416447e-05 0.000204701341833428 0.000328098519358672 0.000323722671269001 0.000185538244664662 0.000914459303499117 -0.000720050425661521
"280" 0.000435380774876916 0.000202751896640927 0.000119000931081796 0.000124644611483563 0.000387561190592174 0.00024513838323556 0.000500174170777152 0.000427882525781232 -0.000403780435571586 3.77993296755083e-05 0.000192982802009564 0.000326153445533262 0.000329406559785697 0.000202109276812413 0.000845604357970938 -0.000692376722236038
"281" 0.000440556064442763 0.000204122193869178 0.000142754244074354 0.000117219884076304 0.00039602316978684 0.000252074449876338 0.000500763838441437 0.000433923790511818 -0.000473406849622502 -2.16261483671464e-05 0.000180720036335825 0.000323419508634996 0.000334220718648755 0.000219408373714331 0.000772163938417084 -0.000661418850608338
"282" 0.000443336077113738 0.000203261095991714 0.000165362057274035 0.000108049964004142 0.000402494675504014 0.000257343258927386 0.00049914951529459 0.000438208127196904 -0.000548505365288419 -8.63868011762151e-05 0.000167941364462228 0.000319872227270421 0.000338097212923574 0.000237271071900026 0.000694628066336902 -0.000627685383431936
"283" 0.000443671941451519 0.000200208900646234 0.000186583134103835 9.7194382005562e-05 0.00040685302647086 0.000260796502893621 0.000495299569391659 0.000440615744720734 -0.000627640923886236 -0.000155958877817019 0.000154672546941958 0.000315483437388661 0.000340960137966613 0.000255517888127563 0.000613499142553517 -0.000591718126807457
"284" 0.000441537401045187 0.000195042860716093 0.000206188794843073 8.47497784962246e-05 0.000409003320574829 0.000262311990736284 0.000489214202320448 0.000441063988321067 -0.000709293632867693 -0.000229796288929796 0.000140954586734981 0.00031022794047754 0.000342741424790963 0.000273959823025279 0.000529315405442365 -0.00055410283296879
"285" 0.00043692566669448 0.000187842315638558 0.000223953067233678 7.08120790273462e-05 0.000408859286498225 0.000261767777313816 0.000480891692692831 0.000439464874644695 -0.000791923813772937 -0.000307269159343882 0.000126811076153718 0.000304083941750865 0.000343380758710505 0.000292397245645236 0.000442617465730981 -0.000515444722621857
"286" 0.00042985379266959 0.000178722765461019 0.000239667794273211 5.551627746353e-05 0.000406367994051205 0.000259074932239631 0.000470367588788532 0.000435762933892715 -0.000873941632662527 -0.000387733025258296 0.00011228221112883 0.000297031858156347 0.000342814227133989 0.000310615368024494 0.000353964629728886 -0.000476375724380896
"287" 0.000420352413666714 0.000167806810205878 0.000253142807069373 3.89905627656816e-05 0.000401483019526665 0.000254150239660076 0.00045768783539823 0.000429914389603253 -0.000953772551168517 -0.000470466045590673 9.74033760908175e-05 0.000289056400585862 0.000340983648496979 0.000328394577737476 0.000263917935654781 -0.000437525028401063
"288" 0.000408482399505008 0.000155237344010046 0.00026420379363351 2.13978571180395e-05 0.000394190600934583 0.00024693960578631 0.000442907970376837 0.000421890861097038 -0.00102986568594182 -0.000554716401594368 8.22141649179815e-05 0.000280146006945513 0.000337837538617988 0.000345513866632302 0.000173054484494614 -0.000399521862172351
"289" 0.000394312993305593 0.000141167916194165 0.000272701004230855 2.89932309048514e-06 0.00038448876354945 0.000237406502738044 0.00042610803345536 0.000411687565974409 -0.00110068226121133 -0.000639699083822849 6.67543054520483e-05 0.000270293472013253 0.000333332042749034 0.000361739981292094 8.19387612851966e-05 -0.000362988910371799
"290" 0.000377943433076366 0.000125772096745222 0.000278500752102361 -1.63286367129679e-05 0.000372404160126888 0.000225529711098911 0.000407378782502395 0.000399314870895982 -0.00116473809731191 -0.000724599210442509 5.1070432878893e-05 0.000259499298867706 0.000327429667599748 0.00037684370782448 -8.85971300077686e-06 -0.000328523544662198
"291" 0.000359484758997149 0.000109220591368801 0.000281498015702321 -3.60993338998052e-05 0.000357978653917218 0.000211314971099304 0.000386824221899687 0.000384795063850761 -0.00122062415836758 -0.000808554941839334 3.52053885154264e-05 0.000247765435333844 0.000320102878879394 0.000390603398583776 -9.87867878903897e-05 -0.000296692005287332
"292" 0.000339065888200486 9.17060674996442e-05 0.000281616092663096 -5.6224585676509e-05 0.000341273513021348 0.000194788888798607 0.000364561476143478 0.000368181488940422 -0.00126698489868985 -0.000890724051821829 1.92104854247383e-05 0.000235104494337868 0.000311329708935569 0.000402792644627237 -0.000187297956249669 -0.000268031229510541
"293" 0.000316826248634888 7.3421270909051e-05 0.000278800895270083 -7.65027151479413e-05 0.000322376519517824 0.000175993592763405 0.000340711207629509 0.000349527883417028 -0.00130256930620097 -0.000970230218703214 3.13951766440602e-06 0.000221533254799964 0.000301099675242388 0.000413201317342693 -0.00027386450262295 -0.000243020982382848
"294" 0.000292926617247505 5.45609981478679e-05 0.000273031470327082 -9.67435572925582e-05 0.000301392110677935 0.000154999473839487 0.000315417023979454 0.000328920637086441 -0.00132623650167619 -0.00104621834450482 -1.29571813254692e-05 0.000207078707976963 0.000289414435585134 0.000421624716650325 -0.000357986117323784 -0.000222104390518541
"295" 0.000267533817354782 3.53228490685217e-05 0.000264306730430178 -0.000116750631309608 0.000278430518854979 0.000131887063757639 0.000288811382218832 0.000306450096516097 -0.00133695994714297 -0.00111784358718548 -2.90262062496041e-05 0.000191769219718679 0.000276279134585129 0.000427874278068258 -0.000439183588241707 -0.000205662156255765
"296" 0.000240833711455367 1.59077664023172e-05 0.000252670914170204 -0.000136325516469257 0.000253640578970949 0.000106765830014055 0.000261053213380582 0.000282227772299318 -0.00133384037233589 -0.00118431389073336 -4.50062175454965e-05 0.000175650641820206 0.0002617246972266 0.000431779740875764 -0.000517010822281169 -0.000194019617321163
"297" 0.000213002570279671 -3.48852268266649e-06 0.000238177679244583 -0.000155282758041599 0.000227166253336622 7.97573955528525e-05 0.000232292955323867 0.000256376200262835 -0.00131614649019869 -0.00124485334467292 -6.08397130435621e-05 0.000158763711610708 0.000245771669255022 0.000433188167312604 -0.000591055952994441 -0.000187432999092714
"298" 0.000184244524921185 -2.26778178218677e-05 0.000220928150474895 -0.00017344532311217 0.000199175683721432 5.100135624675e-05 0.000202691613273587 0.000229030818245895 -0.00128330118363602 -0.00129876852007771 -7.64679744355887e-05 0.000141164614762885 0.000228472461830809 0.000431969356017336 -0.000660940044172938 -0.000186102007387587
"299" 0.00015475457463244 -4.14759771799853e-05 0.000201035237669719 -0.000190634449832673 0.00016984320764836 2.06529371687366e-05 0.000172405292591903 0.000200338931434104 -0.00123490498476943 -0.00134542807208477 -9.18313199970311e-05 0.000122918338536025 0.000209880243658284 0.000428018677049715 -0.000726329908675943 -0.000190155145034961
"300" 0.000124736832824818 -5.97062762305047e-05 0.000178653229261195 -0.000206690614766928 0.000139361522418004 -1.11149215694959e-05 0.000141598939151245 0.000170457872846413 -0.00117073971625466 -0.0013842974859589 -0.000106867705422294 0.000104091252721971 0.000190063260585224 0.00042125656723666 -0.000786923985710517 -0.00019965468955843
"301" 9.43878528185852e-05 -7.720160857059e-05 0.000153948270762693 -0.00022146292987004 0.00010792562681468 -4.41223446437614e-05 0.00011043168601368 0.000139557818537893 -0.00109080512292788 -0.00141491975443626 -0.000121518609370085 8.47634981366783e-05 0.000169098064946377 0.000411633104298721 -0.000842476315434101 -0.000214598024311863
"302" 6.39176278217118e-05 -9.38103808896423e-05 0.000127124118896289 -0.000234820178510424 7.5737802047823e-05 -7.81727485978877e-05 7.90676569532834e-05 0.000107813758603873 -0.000995301464269943 -0.0014369635680474 -0.000135722742579286 6.50173663762093e-05 0.000147076318535789 0.000399129035213278 -0.000892774034494109 -0.000234913960723213
"303" 3.35246948203041e-05 -0.000109390287929378 9.83921484027271e-05 -0.000246638944152516 4.30049378832151e-05 -0.000113060583865531 4.76626349167902e-05 7.54058644134696e-05 -0.000884660123906976 -0.00145021029976844 -0.000149423697322033 4.49416266944576e-05 0.000124100275148656 0.000383755136558576 -0.000937658924168726 -0.000260471299791643
"304" 3.39961652668168e-06 -0.000123819429171778 6.79946735343358e-05 -0.000256822351764708 9.94288429907982e-06 -0.000148579343415733 1.63667995755325e-05 4.25186362767466e-05 -0.000759556213414382 -0.00145454780419612 -0.000162569794397047 2.4631904421325e-05 0.000100280605757494 0.000365549433301595 -0.000977019203218879 -0.0002910701668866
"305" -2.62598844208355e-05 -0.000136983501976038 3.61867301415691e-05 -0.000265278137343515 -2.32386642036054e-05 -0.00018450548438586 -1.46639124230175e-05 9.34347810239359e-06 -0.000620888885570994 -0.00144999926091071 -0.00017510130221683 4.19136619517563e-06 7.57398125578895e-05 0.000344591887083331 -0.00101077881705124 -0.000326454621873645
"306" -5.52798843959336e-05 -0.000148788348702897 3.23475765831445e-06 -0.000271945356088778 -5.6321536662422e-05 -0.000220619709553627 -4.52896213445072e-05 -2.39204654335941e-05 -0.00046980127174579 -0.00143671402512186 -0.000186973765846153 -1.62761525487935e-05 5.06039020604722e-05 0.000320976841296299 -0.00103892245273439 -0.000366316912750606
"307" -8.34810772061233e-05 -0.000159161388951769 -3.05726989387605e-05 -0.000276783352138958 -8.91003363137009e-05 -0.000256696487211811 -7.53709581106006e-05 -5.70888621110947e-05 -0.000307689313984135 -0.00141494118285511 -0.000198136608825225 -3.66644167543245e-05 2.50122884415887e-05 0.000294846373949972 -0.00106146885927392 -0.000410288440345503
"308" -0.000110700546017244 -0.000168038777849586 -6.49493355951089e-05 -0.00027975224794304 -0.000121363703728384 -0.000292509897394496 -0.000104777847043793 -8.99688299026267e-05 -0.000136184788145529 -0.0013850443092192 -0.000208549554659622 -5.68614187001913e-05 -8.88280112741289e-07 0.000266366319697256 -0.00107848047693243 -0.000457951889979449
"309" -0.000136787877018083 -0.000175383703374521 -9.95990354024744e-05 -0.000280855765230568 -0.000152918781858388 -0.000327836985912241 -0.000133393616127708 -0.000122370169008209 4.28655579225232e-05 -0.0013474929789671 -0.000218172437036571 -7.67509911217306e-05 -2.69532379086532e-05 0.000235723584829193 -0.00109006274263536 -0.000508848650927384
"310" -0.000161597227216675 -0.000181168714044676 -0.000134218076788051 -0.000280102572996342 -0.000183562023482459 -0.000362458069283648 -0.00016110102890787 -0.000154109895280362 0.000227387221099497 -0.00130283416312822 -0.000226974093684511 -9.6222073989247e-05 -5.30216868563237e-05 0.00020313932024992 -0.00109635842082986 -0.000562475846384637
"311" -0.000185002784217937 -0.000185385192447471 -0.000168501534419348 -0.000277521945017775 -0.000213110140920184 -0.000396150366869654 -0.000187794381107183 -0.00018500563667786 0.000415121375291837 -0.00125171549307086 -0.000234918178143457 -0.000115158346087219 -7.8939026498118e-05 0.00016885538874822 -0.00109753635816319 -0.000618291634194831
"312" -0.000206889648893441 -0.000188048375533557 -0.000202157259471665 -0.000273168885582831 -0.000241396713852001 -0.000428711798313729 -0.000213391893273694 -0.000214895102364738 0.000603604083027135 -0.00119479344802725 -0.000241986397589837 -0.000133448825966896 -0.000104540537454435 0.000133136192492631 -0.00109381203415734 -0.000675720343437952
"313" -0.000227160092059487 -0.000189182729071101 -0.000234887823369539 -0.000267111000104325 -0.000268248977338301 -0.000459941848402026 -0.000237808012748049 -0.00024360967708361 0.000790261841415151 -0.00113282723209656 -0.000248156414765598 -0.000150984054093594 -0.000129674033593695 9.6256224897751e-05 -0.00108541782002575 -0.000734160249330432
"314" -0.000245726465163139 -0.000188832884339554 -0.000266411024999461 -0.000259430744432348 -0.000293529151465419 -0.000489647102105097 -0.000260975479774925 -0.000271001775334515 0.00097238682793518 -0.00106656005924449 -0.000253417006397106 -0.000167653119359135 -0.000154172725885992 5.85187133573522e-05 -0.00107262057677159 -0.000792981447002357
"315" -0.000262525554147147 -0.000187056268788191 -0.000296448931375395 -0.000250231416905533 -0.000317089274798436 -0.000517651309816977 -0.000282836027712446 -0.000296931638092119 0.00114722285494504 -0.000996788398095105 -0.000257757038289826 -0.000183354355788622 -0.000177880129572947 2.02226036727233e-05 -0.00105570006352853 -0.000851543695078114
"316" -0.000277494621738493 -0.000183922389639037 -0.000324741582800563 -0.000239630327406449 -0.000338824828772076 -0.000543789115809657 -0.000303354600713346 -0.000321279376590589 0.0013119577946118 -0.000924282316128344 -0.000261173546141806 -0.000197991609031444 -0.000200648724296311 -1.83127624864692e-05 -0.0010349637754151 -0.000909186298916347
"317" -0.000290605139918973 -0.000179517641963763 -0.000351046873225556 -0.000227753874151832 -0.000358629488192746 -0.000567913308292764 -0.00032250300976664 -0.000343934006784007 0.00146379988022987 -0.00084981599137009 -0.000263669006978568 -0.000211471374674854 -0.000222327010516737 -5.67702911150961e-05 -0.00101072788347831 -0.000965243281115154
"318" -0.000301830828032904 -0.000173939094729241 -0.000375138504602372 -0.000214752150694184 -0.000376424503734015 -0.000589894130999861 -0.000340264833836634 -0.000364808526705577 0.00160003987521261 -0.000774136824396542 -0.000265248681412633 -0.000223709119337851 -0.0002427744306693 -9.48274651852145e-05 -0.000983322402796977 -0.0010190468323065
"319" -0.000311164806342931 -0.000167287307890083 -0.000396808095556354 -0.000200766733751171 -0.000392139723993859 -0.000609611892294559 -0.000356635128205155 -0.000383820950179904 0.00171808369271866 -0.00069798084273109 -0.000265923900732604 -0.000234631074251098 -0.000261862811598714 -0.000132168922884743 -0.000953087479976027 -0.00106993396951209
"320" -0.000318621278341283 -0.000159682389701701 -0.000415872399996051 -0.000185962979609252 -0.000405738445078271 -0.000626978500313072 -0.000371636575388435 -0.000400923783654741 0.00181549007215416 -0.000622024065972257 -0.000265710093684151 -0.000244169150482019 -0.000279467615667254 -0.00016847714472011 -0.000920364973996025 -0.00111725601727469
"321" -0.000324216747018039 -0.000151237204692766 -0.000432174845546693 -0.000170498377958318 -0.000417193593034984 -0.000641913409605948 -0.000385287659962134 -0.000416075118635422 0.00189006635979317 -0.000546929845993829 -0.00026462254563382 -0.000252265145082318 -0.000295478915173709 -0.000203453450387727 -0.000885500852705208 -0.00116037409978123
"322" -0.000327996173311657 -0.000142087729962831 -0.000445582607925867 -0.000154557165680399 -0.000426500435106153 -0.000654364801735548 -0.00039763235996116 -0.000429259822103082 0.00193984872792594 -0.000473283757042534 -0.000262691606411738 -0.00025887432699126 -0.000309799777766334 -0.000236805325241538 -0.000848849230237849 -0.00119867837243063
"323" -0.000330012763571778 -0.000132362119139719 -0.000455990604030258 -0.000138300250130801 -0.000433675786042367 -0.000664301904595494 -0.000408722181894428 -0.000440484425716658 0.00196321360540021 -0.000401660485101346 -0.00025993931678579 -0.000263960303890616 -0.000322342042144613 -0.000268258222825515 -0.000810749374627484 -0.00123159160924032
"324" -0.000330328242917237 -0.000122186917200197 -0.000463317497598202 -0.000121909999874392 -0.000438757826657931 -0.00067171385742566 -0.000418617281612754 -0.000449765948488239 0.00195886311333639 -0.000332554179406993 -0.000256391473309705 -0.000267496795399205 -0.000333040525621339 -0.00029754781077788 -0.000771547672858418 -0.00125856609480155
"325" -0.00032902559495524 -0.000111701231241278 -0.000467521194274874 -0.000105551931024646 -0.000441801133121979 -0.000676609188013177 -0.000427390292141214 -0.000457152909153907 0.00192588727278262 -0.000266435238326337 -0.000252083892355667 -0.000269475180740743 -0.000341837408495071 -0.000324440415435249 -0.00073157448186118 -0.00127910611647996
"326" -0.000326190294661941 -0.000101042180195855 -0.000468585040334618 -8.94020853087045e-05 -0.000442886814857115 -0.000679030577396376 -0.000435135156996201 -0.000462708376283428 0.00186375676881403 -0.000203687262005142 -0.000247047145486012 -0.000269894549603904 -0.000348694258434205 -0.000348714550077682 -0.000691159757676045 -0.00129275767685013
"327" -0.000321921198957786 -9.03309626630072e-05 -0.000466516909881078 -7.36174276244494e-05 -0.000442105338747068 -0.000679027190950476 -0.000441928118296806 -0.000466506281178268 0.00177238854596369 -0.00014468082257275 -0.000241312408211398 -0.000268764890854449 -0.000353587871406051 -0.00037017892056853 -0.000650613465165841 -0.00129913190771158
"328" -0.000316325299381734 -7.96994753903356e-05 -0.000461363187197913 -5.83585605490757e-05 -0.000439566712011033 -0.000676675086492724 -0.000447872331290962 -0.000468648158775115 0.00165207510621982 -8.97240660515692e-05 -0.000234916632120983 -0.000266112769380996 -0.000356512188850412 -0.000388665352970453 -0.000610241590520209 -0.00129789686409724
"329" -0.000309519958554807 -6.92763683460764e-05 -0.000453199845000894 -4.37869381123259e-05 -0.000435409477771704 -0.000672080960836144 -0.000453069521118392 -0.000469251219530835 0.00150351153401184 -3.90543001227781e-05 -0.000227894459414378 -0.000261976675851856 -0.000357481096922638 -0.000404032948628771 -0.000570341370999108 -0.00128878471890006
"330" -0.000301625273961146 -5.91687003211565e-05 -0.000442126557646615 -3.00286058894255e-05 -0.000429761551304942 -0.000665352355922403 -0.000457613130455576 -0.000468430965159788 0.00132781447136356 7.09604450493388e-06 -0.000220278412328613 -0.000256400508997525 -0.000356518275236119 -0.000416168023041018 -0.000531181901856825 -0.00127161092081912
"331" -0.000292765647477996 -4.94956079946452e-05 -0.00042828075247127 -1.72184735760012e-05 -0.00042278978032959 -0.000656630716719558 -0.000461617833957435 -0.000466329536023791 0.00112642668856272 4.857886529802e-05 -0.000212097684191125 -0.000249450416841161 -0.000353669824822712 -0.000424985154103038 -0.000493029417967923 -0.00124625406049833
"332" -0.000283073902698503 -4.03506538804194e-05 -0.000411816177437407 -5.48045403380783e-06 -0.0004146520788603 -0.000646059973051036 -0.000465171617629996 -0.000463089871042354 0.000901163150226377 8.52743981607816e-05 -0.000203386786076196 -0.000241194046626024 -0.000348994545508548 -0.000430432034439781 -0.000456126982055435 -0.00121267957044337
"333" -0.000272676700920875 -3.18306597096558e-05 -0.000392924532232699 5.08770632691899e-06 -0.000405527766846411 -0.000633810898044131 -0.000468377331741269 -0.000458868648123736 0.000654111129490691 0.000117114333177118 -0.000194176599493527 -0.000231712541449159 -0.000342569576374582 -0.000432479630175861 -0.000420706469040363 -0.00117092690941051
"334" -0.000261706414958313 -2.40206284516878e-05 -0.000371819970325931 1.43860448168408e-05 -0.000395599329471112 -0.000620064775325231 -0.000471333756237093 -0.000453823056706564 0.000387594362567181 0.000144085610199584 -0.000184490322411802 -0.000221101344802745 -0.000334487383278881 -0.000431136048974808 -0.000386980033853321 -0.00112111493678314
"335" -0.00025029251679474 -1.69863817691938e-05 -0.000348733631505587 2.23518204911276e-05 -0.000385045246846472 -0.000605001350748585 -0.000474113218716794 -0.000448112380287394 0.000104195278875526 0.000166192426055873 -0.000174355560439577 -0.000209456899754227 -0.00032484766610376 -0.000426434672952507 -0.000355134276663577 -0.00106345621425514
"336" -0.000238565971038482 -1.0791583929745e-05 -0.000323921235245941 2.89151707131701e-05 -0.000374056860121983 -0.000588822673489617 -0.000476798567603649 -0.000441891105320875 -0.000193377860294787 0.000183522503417455 -0.000163792944908066 -0.000196887118065681 -0.000313772838906335 -0.00041844146810479 -0.000325349732594829 -0.000998224436189581
"337" -0.000226646560070823 -5.48576067773944e-06 -0.000297655624349329 3.40304704894667e-05 -0.000362823317264407 -0.000571729708838422 -0.000479447667048821 -0.000435317040270721 -0.000502274576606299 0.00019618426601348 -0.000152825213309129 -0.000183508998339678 -0.000301387276536512 -0.000407246706865414 -0.000297775271298421 -0.000925780189330612
"338" -0.000214657046476826 -1.0994398693786e-06 -0.000270227856534268 3.76778926594038e-05 -0.000351521466830526 -0.000553917992443731 -0.000482113669593287 -0.000428533886509187 -0.000819566419624699 0.000204328422237834 -0.000141467192737013 -0.000169441114605067 -0.00028783239782333 -0.000392972048652287 -0.000272540682819961 -0.000846556251113161
"339" -0.000202707761216678 2.33501840311036e-06 -0.00024193614812074 3.98355996097998e-05 -0.000340328916935104 -0.000535601961748137 -0.000484834592031758 -0.000421685492545953 -0.00114228840854886 0.00020816971868278 -0.000129738140769967 -0.000154809197659453 -0.000273253310757844 -0.000375773517675877 -0.00024976442936209 -0.000761055391243781
"340" -0.00019090039801253 4.80923661188534e-06 -0.000213090522532811 4.05142753297904e-05 -0.000329415281567068 -0.000516977031752116 -0.000487635146701553 -0.000414897534679049 -0.0014674713422524 0.000207953162889167 -0.000117642855011619 -0.000139739054585397 -0.000257806703636044 -0.000355819885020331 -0.000229528561125185 -0.000669835293101713
"341" -0.000179338816406267 6.33024481209177e-06 -0.000184005682293127 3.97387876016532e-05 -0.000318939832985914 -0.000498238275589572 -0.000490524215202213 -0.000408288453192065 -0.00179217198184045 0.000203973507999269 -0.000105197009469315 -0.000124359491128125 -0.000241650777559561 -0.000333316268359975 -0.000211906328983927 -0.000573510825926825
"342" -0.00016810550630587 6.90206581805889e-06 -0.000155002326798134 3.7538380192e-05 -0.000309046381764202 -0.000479581137371722 -0.000493500678792422 -0.000401962203719886 -0.00211350577439368 0.000196564666652931 -9.24082964231767e-05 -0.00010880580346908 -0.000224949826326374 -0.000308485399618855 -0.000196939044804934 -0.000472749633902777
"343" -0.000157283789418754 6.56056113537559e-06 -0.000126394900396107 3.39759385526474e-05 -0.000299869548140277 -0.000461178458481033 -0.000496540451187796 -0.000396003236599653 -0.00242865908182033 0.00018610386769497 -7.92803715371555e-05 -9.32019336605778e-05 -0.000207869193270476 -0.000281575082552866 -0.000184648564027848 -0.000368254132933895
"344" -0.000146935285422661 5.33733098214018e-06 -9.84969576736426e-05 2.91207486241531e-05 -0.00029152314300764 -0.000443200382138907 -0.000499619702783181 -0.000390487437521602 -0.00273492298295406 0.000173008581512287 -6.58172148890134e-05 -7.7677915208407e-05 -0.000190575944452829 -0.000252850796700201 -0.000175029120717556 -0.000260761821427407
"345" -0.000137127855276799 3.2865418400871e-06 -7.16104914057067e-05 2.30489841590748e-05 -0.000284110347722484 -0.000425802832118674 -0.000502689164881238 -0.000385467361046267 -0.00302970099621925 0.000157725480814823 -5.2025543977729e-05 -6.23576159547095e-05 -0.000173234854049684 -0.000222599672728181 -0.00016805836611141 -0.000151034633691203
"346" -0.000127897880152176 4.62898456053963e-07 -4.60267622905658e-05 1.58643931096503e-05 -0.00027770889562744 -0.000409126482060787 -0.000505690064261896 -0.000380982816612813 -0.00331052954387388 0.000140738003452454 -3.79065321843905e-05 -4.7361038659918e-05 -0.000156011269510755 -0.000191124826487043 -0.000163685132770435 -3.98522268994845e-05
