"V1" "V2" "V4" "V5" "V7" "V8" "V10" "V11" "V13" "V14" "V15" "V17" "V18" "V20" "V21" "V23"
"1" 0.00115727594317354 -0.00129997233045412 0.00159563055050543 0.000465880569040704 0.0014606265783293 0.00076002801572444 0.000460062487890123 0.000592575321614567 -0.00218806417516787 0.000562832386393782 0.000152849331086539 3.10207229636371e-05 0.000111800365060797 5.63554953537534e-05 -0.00280922387999695 -2.44467579312492e-05
"2" 0.00119865169251499 -0.00132006565517604 0.00160581989471937 0.000427336898278164 0.00139187046130934 0.000632680934395553 0.00048550037531923 0.000552963531989888 -0.00240638382326006 0.000491736684365993 0.000144950237798431 1.32834749925558e-05 7.58050942732557e-05 4.81806098194429e-05 -0.00325435597993767 -2.55246674013721e-05
"3" 0.00123951520509041 -0.0013381475713484 0.00161582492900022 0.000389467535207708 0.00132467710492324 0.00050463427500251 0.000513168335856036 0.00051383017662581 -0.00261998320839214 0.000418594096221836 0.000138503299095448 -5.44410543224396e-06 4.04186666649217e-05 3.93957270840446e-05 -0.00367177040783985 -2.69295896780852e-05
"4" 0.00127955475263869 -0.00135397573269348 0.00162554845803832 0.000352418102538364 0.00125935076314481 0.00037683912730654 0.000542818262034568 0.00047547561826625 -0.00282773673106414 0.000343745090877612 0.000133399783434135 -2.50331172690655e-05 6.1715234759429e-06 3.00857739043835e-05 -0.00405915511983114 -2.86117129937479e-05
"5" 0.00131845494759041 -0.00136730388303554 0.00163489667818977 0.000316321898653301 0.0011961839106044 0.000250217776998402 0.000574175649307562 0.000438190534734695 -0.00302862490249154 0.00026757169018082 0.000129515434140539 -4.53533620119117e-05 -2.64094978635506e-05 2.0334272574363e-05 -0.00441441033195361 -3.05270773176671e-05
"6" 0.00135590649136016 -0.00137791063061727 0.0016437701456794 0.000281304063597775 0.00113546756016849 0.00012564792932971 0.000606940037813669 0.000402250620300206 -0.00322172582485918 0.000190478983204212 0.000126724372939951 -6.62716004203011e-05 -5.680823558158e-05 1.02299893578164e-05 -0.00473563679036775 -3.26200050072826e-05
"7" 0.00139160952801616 -0.0013855942413553 0.0016520622657571 0.000247470078784962 0.00107745641673335 3.95775115499449e-06 0.000640789509508787 0.000367909959247238 -0.00340621616338925 0.000112896085698568 0.000124890345440177 -8.76476086105443e-05 -8.45165844681365e-05 -1.26863088339117e-07 -0.00502113974184705 -3.48416751001465e-05
"8" 0.00142526956033915 -0.00139016202878199 0.00165966172636039 0.000214922580237068 0.0010224028318836 -0.00011408148381287 0.000675384882111692 0.000335405616290568 -0.0035813700463238 3.52763767000119e-05 0.000123864860889831 -0.000109344991248262 -0.000109044564504312 -1.06356073288887e-05 -0.00526941450810195 -3.71345899635305e-05
"9" 0.00145660471677189 -0.00139144886553646 0.00166645014014612 0.000183750777735828 0.000970526122415396 -0.000227746467982331 0.000710362337234989 0.000304942746136738 -0.00374655822068808 -4.19154354026082e-05 0.000123506861085655 -0.000131222458248113 -0.000129931653575081 -2.12002989790306e-05 -0.00547915011660234 -3.94475387003267e-05
"10" 0.00148534578115493 -0.00138931376881382 0.00167230638356368 0.000154031846611482 0.000922030025549396 -0.000336375795623615 0.000745357174475318 0.000276708653958871 -0.00390123669720204 -0.000118204357117876 0.00012367052909195 -0.000153142610245985 -0.000146738480723709 -3.17120433675567e-05 -0.00564921106282244 -4.17249872917247e-05
"11" 0.00151123482198395 -0.00138363531537491 0.00167708535895374 0.000125833775066027 0.000877077800641921 -0.000439368718666004 0.000779984517580171 0.000250850501981334 -0.00404494846338237 -0.00019311852080038 0.000124206773566125 -0.000174961380443676 -0.000159066431201151 -4.20752801494148e-05 -0.00577865652306136 -4.39138254098941e-05
"12" 0.00153402784666171 -0.00137431761481216 0.00168063396590469 9.92209877969852e-05 0.000835799327743101 -0.000536177759205203 0.000813859993153112 0.000227486099399189 -0.00417731260375881 -0.000266182109335775 0.000124970512561493 -0.000196540392864838 -0.000166548126982438 -5.21812716685819e-05 -0.00586672504444082 -4.59681267202344e-05
"13" 0.00155349923639812 -0.00136129051017652 0.00168278575032666 7.42427138368563e-05 0.000798293564162593 -0.000626325756125264 0.000846595014976107 0.000206700336649335 -0.00429802127688338 -0.000336934452541277 0.000125820381980273 -0.00021774317307901 -0.000168863754326254 -6.19411072486942e-05 -0.00591284926770382 -4.78396153257659e-05
"14" 0.0015694400843781 -0.00134451472545184 0.00168335373138319 5.09507465500271e-05 0.000764613365143037 -0.000709381508312129 0.000877798847065889 0.000188537822063212 -0.00440683847309511 -0.000404932884109117 0.000126621200547144 -0.000238433848317181 -0.00016573862813358 -7.12577779376232e-05 -0.00591666620613408 -4.94835231944272e-05
"15" 0.0015816480524271 -0.00132397213292217 0.00168212304280421 2.93874333594441e-05 0.000734760851471762 -0.000784979655632235 0.000907087710949561 0.000172998613423026 -0.00450358591427139 -0.000469755239916976 0.000127245493491832 -0.000258472364674455 -0.00015695251177558 -8.00438013736862e-05 -0.00587801588758594 -5.08644981198072e-05
"16" 0.00158994747587286 -0.00129967176178023 0.00167887120572061 9.59582484110033e-06 0.000708700550032836 -0.000852811859916121 0.000934089226360952 0.000160052404080115 -0.00458815252005405 -0.000531004828704255 0.000127571859095665 -0.000277725647557299 -0.000142330869451374 -8.82225528622619e-05 -0.00579696047640459 -5.19467362985177e-05
"17" 0.00159417390543624 -0.00127165493490909 0.00167335002654372 -8.38729735745707e-06 0.000686344675502503 -0.000912622998972246 0.000958438418117213 0.000149623632018274 -0.00466047948403087 -0.000588323609876731 0.000127488460970493 -0.000296064358482125 -0.000121765131042626 -9.57192097901144e-05 -0.00567378191630432 -5.27010856604392e-05
"18" 0.00159418573406044 -0.00123998729033748 0.00166529219104316 -2.45238850703834e-05 0.000667548530515873 -0.000964217213038615 0.000979793740596998 0.000141594743502492 -0.00472056077102245 -0.000641389886956721 0.00012689891893447 -0.000313358949838581 -9.52034000221514e-05 -0.000102469091007575 -0.00550901724576924 -5.3108225647064e-05
"19" 0.00158986036449975 -0.0012047625998146 0.00165441628880755 -3.87746902448234e-05 0.000652132216668419 -0.00100744355783183 0.000997829175486955 0.000135811038266304 -0.00476843970041515 -0.000689917664290887 0.000125713494291931 -0.000329484228329668 -6.26519811349863e-05 -0.000108420719424237 -0.00530345696937479 -5.3150253836603e-05
"20" 0.00158109151772479 -0.00116609733381249 0.00164042005740486 -5.11019087265064e-05 0.000639854095521427 -0.00104221369929719 0.00101224540239225 0.000132078608679094 -0.00480420141166047 -0.000733669125966777 0.000123853091911574 -0.000344314854545834 -2.41882625755881e-05 -0.000113531838689286 -0.00505817926526475 -5.28178847967574e-05
"21" 0.00156780083115216 -0.00112414787882756 0.00162300383921222 -6.14711975757983e-05 0.000630438209972665 -0.00106848172956309 0.00102277254190858 0.000130175650597484 -0.00482797836701825 -0.000772452497970693 0.00012125690762724 -0.000357738801232321 2.00565769639015e-05 -0.000117761670917794 -0.00477455401281657 -5.21082102422797e-05
"22" 0.00154993075046724 -0.0010790821746214 0.00160185765310283 -6.98454527057263e-05 0.000623564735967294 -0.00108626281505632 0.00102916924299604 0.000129841131527934 -0.00483994076039454 -0.000806119646150826 0.000117872176666964 -0.000369642222596147 6.98798045187457e-05 -0.000121093155408035 -0.00445426788220642 -5.1023445906362e-05
"23" 0.00152744929859557 -0.00103110564479843 0.00157667516538137 -7.61848580423333e-05 0.000618872256958162 -0.00109561208600678 0.00103123384135575 0.000130790735095075 -0.00484029301523923 -0.000834572414956949 0.000113658178400978 -0.000379921971014568 0.000125015431904495 -0.000123509443555553 -0.00409933811691578 -4.95708448819786e-05
"24" 0.00150035313605932 -0.000980443476600179 0.00154716948322603 -8.04608069300143e-05 0.000615986687839193 -0.00109664370849341 0.00102880167564 0.000132723881217709 -0.00482928615909715 -0.000857752407495218 0.000108588998321939 -0.00038848498583961 0.000185142301523097 -0.000125007060835002 -0.00371211976440746 -4.77686868961691e-05
"25" 0.0014686735022377 -0.000927347203080804 0.00151306660820997 -8.26414506596656e-05 0.000614505954512972 -0.00108951494386879 0.00102174725430666 0.000135323436504115 -0.00480720053785117 -0.000875650814864983 0.000102647791189718 -0.000395241529680557 0.000249874102854746 -0.000125592751196551 -0.00329534269736678 -4.5634033669346e-05
"26" 0.00143246494883268 -0.000872094977635468 0.00147412793898329 -8.2700716150938e-05 0.000614013741400458 -0.00107443113477924 0.0010099918038486 0.000138260982495792 -0.00477435974499163 -0.000888300824320836 9.58258991666058e-05 -0.000400121790664854 0.000318769502393328 -0.000125283181741413 -0.00285208804941781 -4.31926862602401e-05
"27" 0.00139181779446548 -0.000814982591686101 0.00143013637518719 -8.06205536637023e-05 0.000614084551414399 -0.00105165344389619 0.000993496596695313 0.000141201541020289 -0.00473111634547812 -0.000895775184636917 8.81292671276289e-05 -0.000403063634526893 0.000391333682380826 -0.000124100658895195 -0.00238583753956612 -4.04736504843514e-05
"28" 0.00134685587934009 -0.000756327397846503 0.00138093393261709 -7.6385571527493e-05 0.000614306250777145 -0.0010214828185792 0.000972271408229222 0.000143820870029677 -0.0046778626629875 -0.000898182099365052 7.95676026990485e-05 -0.000404018069421052 0.000467017551567223 -0.000122072718372783 -0.00190044043145521 -3.75072733615073e-05
"29" 0.00129774439608564 -0.000696468711566427 0.00132641454415136 -6.9998119274723e-05 0.000614274011321574 -0.000984272349305599 0.000946374917968376 0.000145803035974558 -0.00461502514167427 -0.00089566900609987 7.01585855258108e-05 -0.000402954762572407 0.000545228114376298 -0.000119241926766241 -0.00140011272286816 -3.43314701305924e-05
"30" 0.0012446735525801 -0.000635756348942688 0.00126652043809518 -6.1466549051495e-05 0.000613603631038183 -0.000940417597109691 0.000915908888421416 0.000146845630311496 -0.00454306406633312 -0.000888407924560394 5.99303964394972e-05 -0.000399858563815964 0.000625328512306323 -0.000115652126400027 -0.000889431317881262 -3.09834516935374e-05
"31" 0.001187877882427 -0.000574559908652864 0.0012012717200207 -5.08131828885743e-05 0.000611946932612393 -0.000890363911652918 0.000881018497931596 0.000146672554502696 -0.00446247950380155 -0.000876604169178485 4.89117586594624e-05 -0.000394730716489392 0.00070665072046013 -0.000111348678045029 -0.00037328838063617 -2.7500846353893e-05
"32" 0.0011276247164386 -0.000513255665342577 0.00113074916998456 -3.8074974227651e-05 0.000608978652096155 -0.000834595073974608 0.000841902412519761 0.000145032075841281 -0.00437380464876276 -0.000860487201229907 3.71384621105821e-05 -0.000387590725214432 0.000788487260098769 -0.000106383333206628 0.000143135017337992 -2.39239260422041e-05
"33" 0.00106421010364026 -0.000452228184145828 0.00105510460258626 -2.33054133222056e-05 0.000604418225562897 -0.000773633824610354 0.000798794319286211 0.000141706570594523 -0.00427760480408801 -0.000840305128286388 2.46500339895471e-05 -0.000378478537287416 0.00087011210865107 -0.000100815864773533 0.000654436981562112 -2.02944394710646e-05
"34" 0.000997969736175 -0.000391867856194596 0.000974564316754364 -6.56669986060724e-06 0.000598025558798361 -0.00070805292936118 0.00075196729544387 0.000136506210480681 -0.0041744739581388 -0.000816332220616103 1.14871919794994e-05 -0.00036744898004561 0.000950777208440877 -9.47038326356664e-05 0.00115505538039563 -1.6649092916523e-05
"35" 0.000929263350754657 -0.000332563631961517 0.000889435426516057 1.20472960753822e-05 0.000589622262193856 -0.000638443477029177 0.000701743268350742 0.000129293861580842 -0.00406504200814353 -0.00078885348021372 -2.30281818497673e-06 -0.000354577680038008 0.00102972144733233 -8.81044689430274e-05 0.00163935876971814 -1.30301796999912e-05
"36" 0.000858480681167212 -0.000274701388006031 0.000800080141843744 3.24397897070776e-05 0.000579058755507719 -0.000565445865020871 0.000648463777303264 0.000119960600826093 -0.00394995884593324 -0.000758170945489558 -1.66807122536163e-05 -0.000339955904354136 0.00110617700877404 -8.10814812012025e-05 0.00210175273759363 -9.47028818403854e-06
"37" 0.000786031387322122 -0.000218656866464104 0.00070693774523564 5.44908249331485e-05 0.000566251530486463 -0.000489715169525856 0.000592510140359471 0.00010844460436566 -0.00382989637492283 -0.000724601945876633 -3.15939229164925e-05 -0.000323695174907529 0.00117937934740433 -7.36944436636696e-05 0.00253677540577851 -6.00902439432823e-06
"38" 0.000712349881673174 -0.00016479621026913 0.000610520654056737 7.80562831028154e-05 0.000551166764530493 -0.000411931226684115 0.000534289022156265 9.47301364353124e-05 -0.00370554872904049 -0.000688466915300378 -4.69972631868476e-05 -0.000305919680359981 0.00124856297387528 -6.60057617116505e-05 0.00293923210171989 -2.67422936350868e-06
"39" 0.000637881565260603 -0.000113471811306067 0.000511381347443786 0.000102983017967264 0.000533815558939084 -0.000332796879505848 0.000474228498463835 7.88392797829553e-05 -0.00357762183679173 -0.000650101855258608 -6.28454142260147e-05 -0.000286768814870502 0.00131298676784157 -5.80735051963805e-05 0.00330430454120413 4.98117913876273e-07
"40" 0.00056308510295373 -6.50071980603251e-05 0.000410132232933783 0.000129101371625383 0.000514260438728428 -0.000253015671353432 0.000412771900751926 6.08408984080149e-05 -0.0034468272918088 -0.000609841714907461 -7.90829406418889e-05 -0.000266396952329663 0.00137192626756863 -4.99603884539108e-05 0.00362769146457885 3.48538781668912e-06
"41" 0.000488431090020625 -1.97106616574911e-05 0.000307436073605461 0.000156220057557812 0.000492611538371776 -0.000173308840736152 0.000350380138412971 4.08435337233649e-05 -0.00331389531809833 -0.00056803567262148 -9.56618592493072e-05 -0.000244970211739931 0.00142468462096166 -4.1721472190401e-05 0.00390571313678245 6.26243167293065e-06
"42" 0.000414384284422863 2.21417228739878e-05 0.000203979760565446 0.000184138268668953 0.000469020763847253 -9.43791932653176e-05 0.000287522410266537 1.89926483565146e-05 -0.00317954420613746 -0.000525026076788084 -0.00011253293507078 -0.000222661005533463 0.00147060692707931 -3.34166385452736e-05 0.00413540369275286 8.80791895949401e-06
"43" 0.00034141251939148 6.03062858821245e-05 0.000100480102885338 0.000212640598551702 0.000443666573077401 -1.69298219447054e-05 0.000224666157019427 -4.53320784475068e-06 -0.00304448632929814 -0.000481164878747527 -0.000129639583793863 -0.000199651508612971 0.00150907774575585 -2.50991506033561e-05 0.00431460304817005 1.11045998027673e-05
"44" 0.00026997327816684 9.45716873733036e-05 -2.32592675583439e-06 0.000241499210088918 0.000416775337971239 5.83546071179478e-05 0.000162283009783978 -2.95157638241589e-05 -0.00290941354229552 -0.000436794998278202 -0.000146935135812271 -0.000176128530739216 0.00153953100976577 -1.68159281040665e-05 0.0044420108984944 1.31400995656426e-05
"45" 0.000200512606520036 0.000124769929200328 -0.00010370072462531 0.000270481484217023 0.000388585233923683 0.00013082085169242 0.000100837337114 -5.57181163309899e-05 -0.00277500838337613 -0.00039226810148225 -0.000164358180144127 -0.000152284908948279 0.00156145463730935 -8.62394863911345e-06 0.00451721061390368 1.4901983963499e-05
"46" 0.000133457532366792 0.000150767687398068 -0.000202910991452695 0.000299342273209024 0.000359362109257895 0.000199841899059108 4.07818234538945e-05 -8.28780455172703e-05 -0.00264192477351454 -0.000347920512440555 -0.000181854389186126 -0.000128306176416756 0.00157439922920968 -5.65463753381871e-07 0.00454065979284489 1.63866383472244e-05
"47" 6.9219068432113e-05 0.000172472483300563 -0.000299224204556035 0.000327832399423822 0.00032939420327424 0.000264836870967111 -1.74435992434953e-05 -0.000110702113832025 -0.00251079785576346 -0.000304088514716437 -0.000199364268813246 -0.000104386236056639 0.00157798346780898 7.31052954924787e-06 0.00451365897226166 1.75843438865412e-05
"48" 8.18374845631467e-06 0.000189839719911365 -0.000391945568046646 0.000355706320619812 0.000298969321231742 0.000325273815808343 -7.34179747128559e-05 -0.000138896989123252 -0.0023822288306198 -0.000261096140937179 -0.000216825386483105 -8.07086260259611e-05 0.00157189942494927 1.49644431549425e-05 0.00443827050572965 1.8499733163954e-05
"49" -4.9301537322585e-05 0.00020285873198735 -0.000480403208507299 0.000382711565831297 0.000268376678788569 0.000380669496515334 -0.000126744317151649 -0.000167153739946688 -0.0022567852979619 -0.000219259508476271 -0.000234174191175887 -5.74511277714692e-05 0.00155591051673535 2.23558177792426e-05 0.00431726663359006 1.91334506794473e-05
"50" -0.00010291529058887 0.000211575910764621 -0.000563976243500322 0.000408605349034014 0.000237907080461921 0.00043060268471351 -0.000177055032960109 -0.000195163048528107 -0.00213498386260607 -0.00017888445893435 -0.000251340123288107 -3.4785710616603e-05 0.00152986290160143 2.94476574477353e-05 0.00415398779637974 1.9489423450181e-05
"51" -0.00015237227245331 0.000216066526635414 -0.000642075963623859 0.000433143288382707 0.000207844544389929 0.000474722000635044 -0.000224004473930301 -0.000222608167402045 -0.00201731716898857 -0.000140258169550865 -0.00026825134922019 -1.28721549617699e-05 0.00149368520633148 3.6200190891321e-05 0.00395226325666686 1.95759615649139e-05
"52" -0.000197431059969746 0.00021645354505939 -0.000714191633726946 0.000456098129652219 0.000178457798669883 0.000512737978094571 -0.000267289990910848 -0.000249186648752671 -0.00190421932587246 -0.000103649017946167 -0.000284839743824022 8.14175814724801e-06 0.00144738847801451 4.25884680542107e-05 0.00371626699257756 1.94023922416232e-05
"53" -0.000237882240986249 0.000212892501316902 -0.000779850493479766 0.00047724661705279 0.000150003442089109 0.000544443953850751 -0.000306636119446006 -0.000274601098507518 -0.00179608922412587 -6.93098241577695e-05 -0.000301022507790626 2.81201489561421e-05 0.00139107029299248 4.85732207917035e-05 0.00345042792113536 1.89794473468466e-05
"54" -0.000273575630748517 0.000205584319534848 -0.000838670953968514 0.00049638624543755 0.000122707147635241 0.000569694242665585 -0.000341810155787007 -0.000298570197568272 -0.00169327224450947 -3.74729194577599e-05 -0.000316721427130297 4.69439559922885e-05 0.00132491978773195 5.4135914992437e-05 0.00315928180055679 1.83222952415137e-05
"55" -0.000304391173352974 0.000194755459347041 -0.000890328769745691 0.000513321139154639 9.67771928448253e-05 0.000588430154876025 -0.000372621670034359 -0.000320826040866476 -0.00159606934313074 -8.34061768517867e-06 -0.000331859123694802 6.4510411679645e-05 0.00124920212627502 5.92461445919872e-05 0.00284739973797068 1.74413696449362e-05
"56" -0.000330266327267821 0.000180665686632972 -0.000934587142546518 0.000527885833289342 7.23876708156357e-05 0.000600659775126702 -0.000398917966710155 -0.000341135561435219 -0.00150473688652689 1.79032383853534e-05 -0.000346352370111748 8.0732042415275e-05 0.00116427489536208 6.38832209870699e-05 0.00251928768638961 1.63559889064643e-05
"57" -0.000351175555376804 0.000163599618347758 -0.00097127714652022 0.000539927764026304 4.96954067736398e-05 0.000606465167056678 -0.000420591325031695 -0.000359274958132727 -0.0014194843431451 4.11078577965684e-05 -0.000360114567216426 9.55396979763278e-05 0.0010705769072911 6.80286104476419e-05 0.0021793126100398 1.50820449715307e-05
"58" -0.000367150519774451 0.000143865723336519 -0.001000318352947 0.000549317897618571 2.88085835072821e-05 0.000606000454329719 -0.000437580770236204 -0.000375062059186845 -0.00134046645262669 6.11453483045563e-05 -0.000373065263405361 0.000108883005687675 0.000968625219837521 7.16655664339723e-05 0.00183164900652426 1.36361566230649e-05
"59" -0.000378256723805067 0.00012178610595513 -0.00102170381659254 0.000555951114787441 9.82187566931022e-06 0.000599478587622967 -0.000449868104682579 -0.000388336472647094 -0.00126778952851742 7.79280112053566e-05 -0.000385125080997538 0.000120729544133718 0.000859010626812226 7.47813061684552e-05 0.00148023134297837 1.20371584515086e-05
"60" -0.000384623182256792 9.7705890590615e-05 -0.00103551846407142 0.000559750034166774 -7.2220004199672e-06 0.000587179071961169 -0.000457484356848743 -0.000398978788603092 -0.00120151293353244 9.13903929781419e-05 -0.000396217590494283 0.00013106535679113 0.000742397200209881 7.7366449004214e-05 0.00112872012539854 1.03031335728814e-05
"61" -0.000386404471354325 7.19664526925074e-05 -0.00104190914427366 0.00056065974040007 -2.22888610776752e-05 0.000569439666414492 -0.000460499636262786 -0.000406891800553541 -0.00114164950685113 0.000101504722422455 -0.000406270391541365 0.000139891919754188 0.000619507234232495 7.94091230503988e-05 0.000780477001873326 8.4516624221251e-06
"62" -0.000383810790195593 4.49285697016275e-05 -0.00104110644876136 0.000558647577773545 -3.53977227370588e-05 0.000546638040262127 -0.000459035278683529 -0.000412024227410423 -0.00108816455181182 0.000108276114793163 -0.000415214368197291 0.000147230956752678 0.000491130523433011 8.09150263232365e-05 0.000438566512833835 6.50064814310898e-06
"63" -0.000377089628927393 1.69456822472216e-05 -0.00103341901830963 0.000553716620897846 -4.65870016758495e-05 0.000519198222010943 -0.000453251907360692 -0.000414355965849035 -0.001040963856657 0.000111735834978596 -0.00042299076687274 0.00015311754661369 0.00035810239979266 8.18775809591218e-05 0.000105742631879548 4.47139637649381e-06
"64" -0.000366523904654096 -1.16315224310964e-05 -0.00101920863494662 0.000545885755931823 -5.59210701243047e-05 0.000487582653787862 -0.000443353478130814 -0.000413900319904134 -0.000999915487573369 0.000111959482160159 -0.000429551167667426 0.000157604941627676 0.000221301828462197 8.23050031323103e-05 -0.000215546381098679 2.37847009635463e-06
"65" -0.000352429754661741 -4.04513540848284e-05 -0.00099890712377338 0.000535205619128466 -6.34917368127232e-05 0.000452274587977181 -0.000429581261355502 -0.000410702606284532 -0.000964838720467659 0.000109044504692288 -0.000434851409726175 0.00016076002794508 8.16485618256837e-05 8.22038499804075e-05 -0.000523151866290493 2.4288573550288e-07
"66" -0.000335159863014913 -6.91781999584698e-05 -0.000973003980391818 0.000521745311963029 -6.94174773641917e-05 0.000413784767724775 -0.000412217593961265 -0.000404846207093135 -0.00093551069162716 0.000103124055055999 -0.000438865461616465 0.000162660304001908 -5.99098265860436e-05 8.1588881155327e-05 -0.000815207667556324 -1.92084461765224e-06
"67" -0.000315089897561555 -9.74856248457969e-05 -0.000942035839935242 0.00050559894448549 -7.38357340362065e-05 0.000372635690655625 -0.000391573051127999 -0.000396445631995555 -0.000911654695047221 9.43524787833707e-05 -0.000441570329454988 0.000163394999639774 -0.000202406089490538 8.04714412143269e-05 -0.00109011323532733 -4.09446851767704e-06
"68" -0.00029261718348163 -0.000125065105136541 -0.000906574150344817 0.000486883917954513 -7.689537407661e-05 0.000329352499234753 -0.000367994009960218 -0.000385637135909166 -0.000892965612994044 8.29238208609049e-05 -0.000442963037059637 0.000163066619965451 -0.000344861012424375 7.88755124153743e-05 -0.00134652984807904 -6.2636870352314e-06
"69" -0.000268157781878589 -0.000151625965488869 -0.000867236228387124 0.000465730847017339 -7.87709827236578e-05 0.000284463665313563 -0.000341846840788115 -0.000372592907073948 -0.000879083338317732 6.9042405770171e-05 -0.000443046612359955 0.000161782581521365 -0.000486288732989085 7.68228487087626e-05 -0.00158335018130673 -8.41269882560324e-06
"70" -0.000242132194604792 -0.000176895994144374 -0.000824651347522245 0.000442294202509907 -7.96327617494883e-05 0.000238496748140667 -0.000313524125422361 -0.000357496371670434 -0.000869619622230018 5.29441789074648e-05 -0.000441846088079293 0.000159655900105087 -0.000625711828184181 7.43416326551024e-05 -0.00179969955641749 -1.05251372612486e-05
"71" -0.000214977845907531 -0.000200628497649807 -0.000779468241624046 0.000416738987038564 -7.96633358000944e-05 0.00019195762867108 -0.000283425464455099 -0.000340557604988639 -0.000864134638125143 3.48829165589947e-05 -0.00043938694543144 0.000156807114380252 -0.000762160152832736 7.14586643226368e-05 -0.00199490467317158 -1.25907275157999e-05
"72" -0.000187132681688189 -0.000222597792120976 -0.000732357983835758 0.000389247494868279 -7.90610938174361e-05 0.000145341702103624 -0.000251974908565572 -0.00032200900500923 -0.000862161519633551 1.51161960219199e-05 -0.000435716285050213 0.000153361677236184 -0.000894684724128597 6.82090560357405e-05 -0.00216849713923006 -1.45946392654762e-05
"73" -0.000159015413213003 -0.000242605364612365 -0.000683966252719821 0.000360007593047392 -7.80031482791964e-05 9.91249195555378e-05 -0.000219587712560263 -0.000302080905272497 -0.000863201533313737 -6.07058482615251e-06 -0.000430887702555667 0.000149439673589779 -0.00102237641686211 6.46255571411504e-05 -0.00232018993383167 -1.65262338855111e-05
"74" -0.000131042756762933 -0.000260483413749079 -0.000634942199357922 0.000329221737610855 -7.66698806952679e-05 5.37527655794981e-05 -0.00018668631887511 -0.000281016617070823 -0.000866724293907443 -2.83942877334997e-05 -0.000424962595110755 0.000145165432205748 -0.00114434402350119 6.07513589980191e-05 -0.0024498783737283 -1.83760000285669e-05
"75" -0.000103624997997373 -0.000276080077791592 -0.000585916548077591 0.000297095216894701 -7.52475439556617e-05 9.64550843596256e-06 -0.000153685397492623 -0.000259071657711931 -0.000872172295519329 -5.15649963962547e-05 -0.000418015229338851 0.000140661714310216 -0.0012597596289168 5.66206393162475e-05 -0.00255761583815127 -2.01332795592555e-05
"76" -7.71358918133942e-05 -0.000289286799482023 -0.000537489176159648 0.000263840515699393 -7.38904407129431e-05 -3.28060254090347e-05 -0.000120987778944154 -0.000236491566485258 -0.000878971285620806 -7.52905889029563e-05 -0.000410130101087549 0.000136044087035217 -0.00136783204610348 5.22771921589148e-05 -0.00264362799008594 -2.17910930659229e-05
"77" -5.1929338090825e-05 -0.00030001124410256 -0.000490229578397755 0.000229670853869981 -7.27571483881885e-05 -7.32476707416758e-05 -8.89808511277736e-05 -0.000213522558199349 -0.000886533806209246 -9.92820177708625e-05 -0.00040139212234838 0.00013142960903511 -0.00146783560128508 4.77620907611885e-05 -0.00270828690126772 -2.33414656004037e-05
"78" -2.83260980378828e-05 -0.000308196387948072 -0.000444655442015124 0.000194797980969258 -7.19783872708084e-05 -0.000111359142689801 -5.80253030872185e-05 -0.000190400124247647 -0.000894264679109612 -0.0001232581004342 -0.000391892986620607 0.000126920015402213 -0.0015591079142689 4.31152099388831e-05 -0.00275211329886385 -2.47775490638352e-05
"79" -6.61977125119856e-06 -0.000313813904593092 -0.000401250027790855 0.000159436272633484 -7.16766131256665e-05 -0.000146857465179273 -2.84600847310796e-05 -0.000167354705440224 -0.000901554166795588 -0.000146947098630669 -0.000381728333822802 0.00012261451505059 -0.00164105681741381 3.83830610796204e-05 -0.00277577725016178 -2.60965495068187e-05
"80" 1.29412821042536e-05 -0.000316857257746955 -0.000360436553568143 0.000123797996504636 -7.19483559449038e-05 -0.000179494448399292 -5.94591635164054e-07 -0.000144597493309475 -0.000907797856639213 -0.000170088071928996 -0.000370998963229359 0.000118607488251756 -0.00171315950438742 3.36052987417271e-05 -0.00278008860177847 -2.72918661760429e-05
"81" 3.01477508734474e-05 -0.000317356253764006 -0.000322585856910765 8.80894397554212e-05 -7.28743478193112e-05 -0.000209062055068065 2.53006145926888e-05 -0.00012232753108711 -0.000912394405341316 -0.000192439293001012 -0.000359805918320302 0.000114976332189119 -0.00177497707421574 2.88252042339156e-05 -0.00276598564839079 -2.83629322512419e-05
"82" 4.4827749314986e-05 -0.000315360376233974 -0.000288005428615191 5.25102903958509e-05 -7.45084326969406e-05 -0.000235387279060724 4.89857953624726e-05 -0.0001007225978612 -0.000914750302089814 -0.000213771549349574 -0.000348250696350629 0.000111794909922568 -0.00182615442918936 2.40812486423241e-05 -0.00273454335330258 -2.9307368817701e-05
"83" 5.68540249165134e-05 -0.0003109473615235 -0.00025693813720794 1.72511382569623e-05 -7.68882419817591e-05 -0.00025833998095045 7.02665782310061e-05 -7.99399735817157e-05 -0.0009142885366506 -0.000233883936648482 -0.000336427637256555 0.000109119572327899 -0.00186641846858805 1.94171119657569e-05 -0.0026869623004323 -3.01248155812215e-05
"84" 6.61476144234668e-05 -0.000304219065512565 -0.000229566636710667 -1.74981845949154e-05 -8.00269356487984e-05 -0.000277817097828962 8.89834082569066e-05 -6.01147025622919e-05 -0.000910451032430667 -0.000252594364430219 -0.000324443760440797 0.000107001946412656 -0.0018955853889438 1.48717679856156e-05 -0.00262456359756283 -3.08114311007765e-05
"85" 7.26660421422323e-05 -0.000295300773457234 -0.00020600873551638 -5.15630356311186e-05 -8.39147017061933e-05 -0.000293756475949866 0.000105025063144171 -4.13594372875291e-05 -0.000902714475947974 -0.000269742287381789 -0.00031238960611961 0.00010547855492849 -0.00191355842003845 1.04785524362034e-05 -0.00254878391627957 -3.1370790319827e-05
"86" 7.64108751567636e-05 -0.000284338607339554 -0.000186316192223584 -8.47752225584549e-05 -8.85174506732993e-05 -0.000306130762006232 0.000118315521268247 -2.3760864323541e-05 -0.000890574066513914 -0.000285197682341849 -0.000300362806247889 0.000104572760018566 -0.00192033068492182 6.2737796472671e-06 -0.00246116111414258 -3.1799980417964e-05
"87" 7.74263567686055e-05 -0.000271494152914917 -0.000170490019777411 -0.000116977992035101 -9.38006885002361e-05 -0.000314943661735482 0.000128822308036932 -7.39204719928964e-06 -0.000873568745673566 -0.000298856668787939 -0.000288452737664356 0.000104302554825467 -0.00191598747867495 2.29362535498702e-06 -0.00236334671505241 -3.21019740338245e-05
"88" 7.57968247442172e-05 -0.00025695257737653 -0.000158451931625023 -0.000148028594107946 -9.9684410077981e-05 -0.000320229768522677 0.000136557302124107 7.71835648492439e-06 -0.000851276751233503 -0.000310637778952965 -0.000276747144399746 0.000104666645556697 -0.00190069927681728 -1.43199794541497e-06 -0.00225706775382849 -3.22749160346216e-05
"89" 7.16341672954991e-05 -0.000240909295452675 -0.000150086378536 -0.000177789194009813 -0.000106090191326701 -0.000322052440288958 0.000141565204955961 2.15425846136848e-05 -0.000823323207241367 -0.000320491121391554 -0.000265332301406423 0.000105658401265183 -0.00187472157661674 -4.87292929041949e-06 -0.00214412449015622 -3.23229898146311e-05
"90" 6.50969248312944e-05 -0.000223568681042319 -0.000145217046440742 -0.000206142029245767 -0.00011291503317612 -0.00032050538641651 0.00014393120825887 3.40929842969156e-05 -0.000789381053873626 -0.000328391816934947 -0.000254284640596182 0.000107256846150185 -0.001838398960429 -8.00391629201495e-06 -0.00202638887328691 -3.22453362799559e-05
"91" 5.63631692912272e-05 -0.000205152984092669 -0.000143624518583323 -0.000232975395750086 -0.000120053776033883 -0.000315704916462808 0.000143775628845493 4.53900020414025e-05 -0.00074916682593659 -0.000334343101724406 -0.00024368177335685 0.000109433909062375 -0.00179214818026202 -1.07991059531234e-05 -0.0019057597852227 -3.20420960742856e-05
"92" 4.56347662430026e-05 -0.000185884252265652 -0.00014504504784791 -0.000258193449163317 -0.000127385279588142 -0.00030779273806737 0.000141245363951175 5.54808129456755e-05 -0.00070246267566764 -0.00033837496332535 -0.000233598142087555 0.000112152869795697 -0.00173647119079844 -1.32324130202108e-05 -0.00178414946202094 -3.17117214034277e-05
"93" 3.31467076036751e-05 -0.000165992167376599 -0.000149176877249542 -0.000281711617640872 -0.000134774011491243 -0.000296924910306392 0.000136523613939904 6.44322114415521e-05 -0.000649106423830706 -0.000340537712895872 -0.000224093802924741 0.000115362978665867 -0.00167193291226596 -1.52875001094724e-05 -0.00166347639885047 -3.12591415904857e-05
"94" 1.91421175225449e-05 -0.000145703746015656 -0.000155695031544653 -0.000303461456205209 -0.000142090878188492 -0.000283286407351856 0.000129811942938663 7.23177602079225e-05 -0.000589000342985661 -0.000340910912665924 -0.000215238061526824 0.000119012585477794 -0.00159917193330238 -1.69440384948635e-05 -0.00154560996450677 -3.06793141006826e-05
"95" 3.8861869713507e-06 -0.000125250132425496 -0.000164237464517136 -0.000323380838312228 -0.000149196473501714 -0.000267069187671476 0.000121333392131583 7.92392613867313e-05 -0.00052211469990906 -0.000339590915611771 -0.000207079223738158 0.000123037353361378 -0.00151888307066545 -1.81887298974845e-05 -0.00143236883649137 -2.9972769089961e-05
"96" -1.23549806775569e-05 -0.000104851818899938 -0.000174440442776902 -0.000341426229408533 -0.00015595201679648 -0.000248483989098963 0.000111332883184958 8.52959291799893e-05 -0.00044849179998525 -0.000336697442883714 -0.000199680556952553 0.000127374731036522 -0.00143181144746761 -1.90075412123671e-05 -0.00132547932146058 -2.91395030934241e-05
"97" -2.9302916514379e-05 -8.47254060094077e-05 -0.00018590997693032 -0.000357568450941547 -0.00016222093388322 -0.000227754311675923 0.000100068248208056 9.06069072062421e-05 -0.000368240647308523 -0.000332367648426035 -0.000193080478723231 0.000131949490753371 -0.00133875942408307 -1.9389854413441e-05 -0.00122653233825715 -2.81786413911637e-05
"98" -4.66827658240655e-05 -6.50768233320127e-05 -0.00019826930645436 -0.000371781447001606 -0.000167879659691127 -0.000205107079373791 8.77994839527202e-05 9.52898238546301e-05 -0.000281535544336295 -0.000326753383581454 -0.000187328599588446 0.000136691773990488 -0.001240560618087 -1.9327845278701e-05 -0.00113698208710656 -2.70851057528851e-05
"99" -6.42127519888842e-05 -4.60976590894728e-05 -0.000211113713332485 -0.00038406134171673 -0.000172791388522418 -0.000180782856502111 7.48031045740031e-05 9.94760462304602e-05 -0.000188638229838416 -0.000320022371211964 -0.00018245528228022 0.000141522989109516 -0.00113808800575751 -1.88177453588329e-05 -0.00105809516561653 -2.58584063246798e-05
"100" -8.16286109961208e-05 -2.79673224858006e-05 -0.000224065840956373 -0.000394411281523167 -0.000176846010620994 -0.000155021132807096 6.1352515333018e-05 0.000103293679212965 -8.98733762034595e-05 -0.000312348303393618 -0.000178493894153083 0.000146364640510968 -0.00103223448823122 -1.78597086391848e-05 -0.000990944327283712 -2.44991617637906e-05
"101" -9.86695763781505e-05 -1.08493642056494e-05 -0.000236747799492296 -0.000402849358998349 -0.000179930651293014 -0.00012806306578121 4.77225314937357e-05 0.000106874914785895 1.43529138181638e-05 -0.000303921756627147 -0.000175471745253976 0.000151141549950342 -0.000923921690117974 -1.64513940503257e-05 -0.000936362718995975 -2.30035232692611e-05
"102" -0.000115088790783964 5.11862181852569e-06 -0.000248810332594525 -0.00040940154841688 -0.000181960635999857 -0.000100152534295316 3.4179201759859e-05 0.000110339613658824 0.000123567645451433 -0.000294935094528215 -0.00017340404837143 0.000155780257616447 -0.000814069952628996 -1.46008511831345e-05 -0.000894942499577623 -2.13687221208165e-05
"103" -0.000130648329167856 1.98116953176164e-05 -0.000259913889268127 -0.000414102011187308 -0.000182852176466644 -7.15333244941946e-05 2.09857238001287e-05 0.000113815541612652 0.000237219771513062 -0.000285583015613035 -0.000172301261615345 0.000160203954278526 -0.000703611523079931 -1.23142073896039e-05 -0.000867022968227187 -1.95948062187602e-05
"104" -0.000145141144738122 3.3126178714401e-05 -0.000269741256568342 -0.000417008548404759 -0.000182533331495458 -4.24385662969896e-05 8.39251282778008e-06 0.000117419863660555 0.000354683417898577 -0.000276063264742659 -0.000172171845918015 0.000164346714842743 -0.000593465063308104 -9.60120034902787e-06 -0.000852675268039723 -1.76810697850493e-05
"105" -0.000158367296403351 4.49863758987613e-05 -0.000278015631117614 -0.000418170236074701 -0.000180963370417345 -1.3099117508594e-05 -3.36218040222742e-06 0.000121258321441832 0.000475264431573951 -0.000266575397586345 -0.000173013985476319 0.00016814535619326 -0.000484542276735969 -6.48064925569085e-06 -0.000851709544493562 -1.56263273131104e-05
"106" -0.000170160143105397 5.53364217947827e-05 -0.000284485097519763 -0.000417659585348679 -0.000178098372335173 1.62636758102094e-05 -1.40599506051434e-05 0.000125433229947725 0.000598206094617503 -0.000257303393453393 -0.00017481715651615 0.000171537976163879 -0.000377727441120632 -2.96003241722558e-06 -0.000863676941707224 -1.34305615851632e-05
"107" -0.000180368455277546 6.41371485848799e-05 -0.000288926353125725 -0.000415555812344266 -0.0001739254681149 4.5435416654141e-05 -2.34928358427206e-05 0.000130031781944518 0.000722679646155406 -0.000248442340692734 -0.000177559173908139 0.000174475321750141 -0.000273881267464335 9.31082381020079e-07 -0.000887881971071596 -1.1097674784943e-05
"108" -0.000188868749944902 7.13801256577469e-05 -0.000291170217121658 -0.000411936553478597 -0.000168446389118207 7.42191748419794e-05 -3.14796802480873e-05 0.000135126436707567 0.00084781381539426 -0.000240164577483824 -0.000181222756996097 0.000176913067963041 -0.000173823620074962 5.17082989312183e-06 -0.000923397568267016 -8.62739452913507e-06
"109" -0.000195560977630025 7.70701220282045e-05 -0.000291062045512657 -0.000406898099539246 -0.000161669136132045 0.00010242198336048 -3.785486785498e-05 0.000140783510388836 0.000972668205470936 -0.000232634472559795 -0.000185771539740796 0.000178808964628913 -7.83272976945609e-05 9.73429536639544e-06 -0.00096910821174547 -6.02438869237758e-06
"110" -0.000200377478641494 8.12375864420263e-05 -0.000288501361945274 -0.000400540197847018 -0.000153626681176674 0.00012987155191462 -4.24767092266675e-05 0.000147050461856184 0.00109626979760599 -0.000226009534862999 -0.000191162389377955 0.000180139143737111 1.18765277331573e-05 1.45897803920665e-05 -0.00102371034830296 -3.29596916279462e-06
"111" -0.000203262428322419 8.3928894420064e-05 -0.000283420314269375 -0.000392966642225353 -0.000144359088126754 0.000156407592855956 -4.5224592955549e-05 0.000153963214913674 0.00121760685658309 -0.000220423561372795 -0.000197343172635311 0.000180877516612063 9.61261789900623e-05 1.97062729285332e-05 -0.00108575737763528 -4.46090793308583e-07
"112" -0.000204201413492471 8.52090198990885e-05 -0.000275791482949722 -0.00038428848211287 -0.000133929983277327 0.000181880893052884 -4.6008709295077e-05 0.000161542359448064 0.00133564297408401 -0.000216001238137361 -0.000204260995088765 0.000181014861389212 0.000173814540444369 2.50434592592021e-05 -0.00115368516437156 2.51483410725658e-06
"113" -0.000203190469562961 8.51518217231574e-05 -0.000265615260427315 -0.000374627921505539 -0.000122393037932006 0.000206167002629587 -4.47525305127984e-05 0.000169795763662437 0.0014493301151747 -0.000212842465577165 -0.000211845831555657 0.000180544923193443 0.000244409296043939 3.05654865284116e-05 -0.001225855667602 5.57667451955171e-06
"114" -0.000200256071202861 8.38516249150135e-05 -0.000252940293623894 -0.000364099207060196 -0.000109840592737423 0.000229148082969466 -4.14117733689263e-05 0.000178716976541099 0.00155762179287371 -0.000211031990617263 -0.000220024149897247 0.000179473886728187 0.000307454172347944 3.62296206243278e-05 -0.00130056399565566 8.73039799445701e-06
"115" -0.000195451487617095 8.14067330390474e-05 -0.000237850754249809 -0.000352831634750619 -9.63532255033052e-05 0.00025072946634655 -3.59676052630048e-05 0.000188279316443931 0.00165948952557588 -0.000210632142350544 -0.000228714890448778 0.000177812681572063 0.000362574211274028 4.19942404160934e-05 -0.00137610564266229 1.19572125507691e-05
"116" -0.000188842615343684 7.79248098981569e-05 -0.000220449762553655 -0.000340951786388765 -8.20245072485407e-05 0.000270825560813618 -2.84178928500857e-05 0.000198456594264382 0.00175393235204799 -0.000211682417990015 -0.000237833062190431 0.000175581899799563 0.000409471066110698 4.78164564700152e-05 -0.00145077260116386 1.52470952728481e-05
"117" -0.000180515177824287 7.35204129596292e-05 -0.000200877151921581 -0.000328589247984356 -6.69428510273069e-05 0.000289374048965234 -1.87862645174873e-05 0.000209201123336919 0.00183998345847145 -0.000214200538487205 -0.000247279383398433 0.000172810666417868 0.000447940713509975 5.36459301944478e-05 -0.00152289930723701 1.85805902659282e-05
"118" -0.000170576180453843 6.83076519361116e-05 -0.000179296863160707 -0.00031588176935102 -5.12125327296917e-05 0.000306321313510505 -7.11988909703882e-06 0.000220458354593378 0.0019167363645266 -0.000218184706878686 -0.000256956120312225 0.000169532151215315 0.000477863513734638 5.94392179993893e-05 -0.00159087137839375 2.19383958160523e-05
"119" -0.000159144485206574 6.24042604754867e-05 -0.000155902231800307 -0.000302961700080881 -3.49310148166424e-05 0.000321633324223002 6.51181453003428e-06 0.000232162320574064 0.00198335846162142 -0.000223607692025015 -0.000266758189437997 0.000165785507046023 0.00049921206791629 6.51443655195783e-05 -0.00165316357034875 2.53025540563525e-05
"120" -0.000146358333449947 5.59206970948341e-05 -0.000130901616485133 -0.000289963238302251 -1.81981887397453e-05 0.000335285289331123 2.20180949389693e-05 0.000244238028389264 0.00203910095295039 -0.000230417260445389 -0.000276580201437009 0.000161618382469156 0.000512048618652241 7.0718652919173e-05 -0.0017083454318108 2.86494275757537e-05
"121" -0.00013236271708826 4.89672249357781e-05 -0.000104523577185246 -0.000277022517475293 -1.10613732787636e-06 0.000347272146397271 3.92919453861248e-05 0.000256601231152361 0.00208332295988708 -0.000238546953348153 -0.000286309879802143 0.000157080881938902 0.000516523077612892 7.61132074693164e-05 -0.00175509382653608 3.19589436221092e-05
"122" -0.000117303157291786 4.16461469354597e-05 -7.69973484397981e-05 -0.000264277129722117 1.62625390020599e-05 0.000357595096884861 5.8209453836566e-05 0.00026917265321625 0.00211549062853088 -0.000247896885102858 -0.000295838967168109 0.000152225436459693 0.000512874872410944 8.12814705626078e-05 -0.00179221227235678 3.5205818453032e-05
"123" -0.000101347889174019 3.40509308829275e-05 -4.85837998687984e-05 -0.00025185407708473 3.38156588839882e-05 0.000366269413562586 7.86238964865217e-05 0.000281850872467336 0.00213519914184694 -0.000258360270964601 -0.000305050546197923 0.000147109603763881 0.000501428671176196 8.61777134414034e-05 -0.00181862002842223 3.83649701436909e-05
"124" -8.4662323745417e-05 2.62704578299724e-05 -1.95332850339305e-05 -0.000239889134233184 5.14774973301295e-05 0.000373320660483625 0.000100376735613095 0.000294539972852941 0.00214218128606493 -0.000269806158971317 -0.00031384118247551 0.000141793311626299 0.000482591481026086 9.07626602649516e-05 -0.00183338670754799 4.14148320171816e-05
"125" -6.74111255762032e-05 1.83735741299601e-05 9.88902887246623e-06 -0.000228506423403196 6.91769480801179e-05 0.000378780860528963 0.000123298210029936 0.000307141735665956 0.00213631402222945 -0.000282083034951477 -0.00032210075664141 0.000136334151121596 0.000456843954113502 9.49924539928115e-05 -0.001835706122282 4.4327986026932e-05
"126" -4.97679949897038e-05 1.04255166121769e-05 3.94329503811644e-05 -0.000217829820587742 8.68581558241489e-05 0.000382697728556265 0.000147205337404163 0.000319556526055832 0.00211762618619188 -0.000295033130372417 -0.000329727450271562 0.000130793978244849 0.000424736927668332 9.88327337718335e-05 -0.00182492375616033 4.70793834246266e-05
"127" -3.18924380594923e-05 2.47537093884389e-06 6.8840924689729e-05 -0.000207978289654047 0.0001044632059918 0.000385113306076059 0.000171904785963763 0.000331680457110491 0.00208629433156441 -0.00030847660814189 -0.000336621143370267 0.00012523322165796 0.000386889642496818 0.000102247823129932 -0.00180052280514149 4.96438396614949e-05
"128" -1.3959555044513e-05 -5.43196366663144e-06 9.78548921968468e-05 -0.000199059072592636 0.000121941808688399 0.000386091046686387 0.000197191558597108 0.00034341097737224 0.00204265848198081 -0.000322229597653655 -0.000342693910170896 0.000119710891769364 0.000343975049203803 0.000105208586597356 -0.00176213508422026 5.19983027619843e-05
"129" 3.87400399356976e-06 -1.32783729656009e-05 0.000126240045984914 -0.00019117928537603 0.000139258797336357 0.000385686075532502 0.000222860206605733 0.000354646816532824 0.00198720373286175 -0.000336100735461145 -0.000347861967251067 0.000114282532684354 0.000296718870691122 0.000107685685873954 -0.00170951398689308 5.41196119982476e-05
"130" 2.14528794045971e-05 -2.10449488610754e-05 0.000153760883391466 -0.000184435849855861 0.000156378177628238 0.00038396319963465 0.000248701206440763 0.000365293092433102 0.00192056611803161 -0.000349891455325814 -0.00035205274939323 0.000109005967539496 0.000245886752160308 0.000109658544966257 -0.00164256923533484 5.59817707548049e-05
"131" 3.86251852788928e-05 -2.87300249194453e-05 0.000180197933889872 -0.000178911537774361 0.000173267957223737 0.000380987063627974 0.000274496839429361 0.000375251325139918 0.00184352108499078 -0.000363403171150499 -0.000355202168029952 0.000103932878286689 0.000192277022232504 0.000111110624020074 -0.00156134040612653 5.75681375759648e-05
"132" 5.52497395217763e-05 -3.63362185922676e-05 0.000205344845870721 -0.000174685254388298 0.00018990328107918 0.000376831071047719 0.000300031996813886 0.000384428201383332 0.00175697469079634 -0.000376435783755186 -0.000357258583247868 9.91160603608123e-05 0.000136711963387571 0.000112026270433177 -0.00146600687186288 5.8855040551431e-05
"133" 7.11925066159429e-05 -4.38854634868676e-05 0.000229008254851141 -0.000171821598385714 0.000206262032294763 0.000371562091989177 0.000325093916034046 0.000392735847881137 0.0016619506937748 -0.000388795839971682 -0.000358185595247731 9.45997343578611e-05 8.00313531939086e-05 0.000112397326785412 -0.00135688333901818 5.98257965750006e-05
"134" 8.63328722728658e-05 -5.13960474003685e-05 0.0002510196977187 -0.000170372771581141 0.000222321136228638 0.000365251193588842 0.000349474758705338 0.00040009253718536 0.00155957592628661 -0.000400299538877889 -0.000357953331469614 9.04275493981157e-05 2.30717238336264e-05 0.000112221649912098 -0.00123441592360083 6.04639176925117e-05
"135" 0.000100552004445228 -5.89050251150382e-05 0.000271214202783473 -0.000170379018817588 0.000238052733949987 0.000357967017264384 0.000372969455159864 0.000406415182578714 0.0014510622922847 -0.000410770323707799 -0.000356547321251033 8.66393191756132e-05 -3.33238339405021e-05 0.000111498955335253 -0.00109918283535284 6.07555559345018e-05
"136" 0.00011374828076839 -6.64405536685991e-05 0.000289449768616832 -0.000171871049962045 0.000253431907245723 0.000349778809778404 0.000395380174200074 0.000411630115485417 0.00133771206065914 -0.000420043785654993 -0.000353971620223875 8.32722714982951e-05 -8.83335025435124e-05 0.000110231727579833 -0.000951896935490871 6.06889868917544e-05
"137" 0.000125823751218586 -7.40422787839573e-05 0.000305599590465178 -0.000174853987158815 0.000268427131035358 0.000340758702586207 0.000416519163184865 0.000415668471626149 0.00122087668572074 -0.000427973849595233 -0.000350242066755814 8.03552300795011e-05 -0.000141155960740788 0.000108436616251548 -0.000793385277033849 6.02559139619568e-05
"138" 0.00013669905237758 -8.17553532979687e-05 0.000319560910887012 -0.000179337442967805 0.000283004949104268 0.000330965707396972 0.000436210582880617 0.000418468574196847 0.00110194363995282 -0.00043443233316563 -0.000345378657810665 7.79195011659581e-05 -0.00019101958702004 0.000106123755139173 -0.00062459913736014 5.94471910954881e-05
"139" 0.000146293123369065 -8.96129187541475e-05 0.000331232561851287 -0.000185296097789118 0.000297121470744441 0.000320470873239868 0.000454289731928034 0.000419972682080927 0.000982335240356908 -0.000439309475928204 -0.000339434772454349 7.59873385500551e-05 -0.000237192928049562 0.000103311235136751 -0.000446616384727997 5.82605472035794e-05
"140" 0.000154548961403566 -9.76588588846234e-05 0.00034054023771411 -0.000192702281947954 0.000310729018085155 0.000309334219984092 0.000470605468996743 0.000420130017408547 0.000863483576618841 -0.00044251530044919 -0.000332460090513362 7.45763500306148e-05 -0.000278990676817219 0.000100026193861317 -0.000260612496896552 5.66934501193968e-05
"141" 0.000161409451488364 -0.000105926060679067 0.000347427424344551 -0.000201514289525934 0.00032376891562882 0.000297615681214889 0.000485021301074919 0.000418899432846608 0.000746811389349117 -0.000443989545872605 -0.000324527053963304 7.37036887751948e-05 -0.000315778995761212 9.62908351285226e-05 -6.78782576871072e-05 5.4749558022786e-05
"142" 0.000166836250589267 -0.000114448539842451 0.000351839067643053 -0.000211667660182252 0.000336175537264418 0.000285375434222928 0.000497416692868207 0.000416240840524644 0.000633721627182573 -0.000443688805457796 -0.000315715758608083 7.33807876506549e-05 -0.00034698764313321 9.21363941565745e-05 0.00013019472243471 5.24306276250375e-05
"143" 0.000170793636356497 -0.000123252738831423 0.000353749693986234 -0.000223093648330011 0.000347883186970564 0.000272666583569417 0.000507694214150344 0.000412133057160948 0.000525584845953965 -0.000441595604770002 -0.000306122816969369 7.36120460297942e-05 -0.000372110476291594 8.75993263916687e-05 0.000332133095787519 4.97469250845471e-05
"144" 0.000173264051583971 -0.000132354539557065 0.00035313945210456 -0.000235704637736969 0.000358808816167659 0.000259548494197935 0.000515767157623709 0.000406548790629715 0.00042372908237201 -0.000437717813679474 -0.000295852022163849 7.44008443185574e-05 -0.000390708681909445 8.27120462270003e-05 0.000536388055240398 4.67087815107936e-05
"145" 0.000174231149167753 -0.000141772563751645 0.00035000074999678 -0.000249404998202 0.000368865193820024 0.000246071176635196 0.000521567093169626 0.000399478173389382 0.000329418297142943 -0.000432089710755663 -0.000285019098450033 7.57416744285903e-05 -0.000402426643415257 7.75163164593137e-05 0.000741348109778016 4.33307830402128e-05
"146" 0.000173696670350753 -0.000151507073114894 0.000344343995493597 -0.000264085845993034 0.000377962002888564 0.00023228241069219 0.000525051385882776 0.000390916634157966 0.000243846700449675 -0.00042476728541036 -0.00027374798943816 7.76287457478167e-05 -0.000406977540054263 7.20550945799372e-05 0.000945362883258606 3.96259830122323e-05
"147" 0.000171671245359757 -0.000161556581143906 0.000336191342522338 -0.000279627825450007 0.000386008636153624 0.00021823534649366 0.000526189993453091 0.000380872590771046 0.000168132438640543 -0.000415823056431395 -0.000262171140394501 8.00471751280013e-05 -0.000404164308288201 6.637059742849e-05 0.00114674683440913 3.5618904680976e-05
"148" 0.000168171908177114 -0.000171905902210107 0.000325573240044212 -0.000295904176871512 0.000392899722153697 0.000203974048371484 0.000524974364870895 0.000369354451816939 0.000103306603889066 -0.000405357728654229 -0.000250429519386792 8.29799738268797e-05 -0.000393867865462969 6.05081161518548e-05 0.00134381396669433 3.13323770102181e-05
"149" 0.000163230081061326 -0.00018253807791163 0.000312539378423137 -0.000312783867862614 0.000398542226646635 0.000189544621201361 0.000521416049239784 0.000356390545603411 5.03071125718885e-05 -0.000393486837691444 -0.000238666106659975 8.64029121598233e-05 -0.000376057632000477 5.45194690838034e-05 0.00153488932313109 2.67895316975144e-05
"150" 0.000156887598110779 -0.000193416372928192 0.000297147303843791 -0.000330123686492798 0.000402836296616013 0.000174991389105785 0.00051554379211263 0.000342008400655198 9.97426208935053e-06 -0.000380343039934697 -0.000227026376040737 9.02887872340605e-05 -0.000350785326530439 4.84531579009125e-05 0.0017183402502631 2.20222068329383e-05
"151" 0.000149194979913224 -0.000204508058963241 0.000279474464418052 -0.000347786713714399 0.0004056883970734 0.000160360433117691 0.000507403345657358 0.000326256902883998 -1.69681231714461e-05 -0.000366074146174927 -0.000215662568051461 9.46017233630071e-05 -0.000318186530803367 4.23619317997476e-05 0.00189260294511774 1.70601603941395e-05
"152" 0.000140211759026245 -0.000215759321385184 0.00025960575914597 -0.000365624327846749 0.000407009212450847 0.000145688493271439 0.00049706064708464 0.000309181180490944 -2.9904121859112e-05 -0.000350840557298793 -0.000204720491047895 9.93037018824559e-05 -0.000278485907623005 3.6291526133337e-05 0.0020561900892607 1.19395444316858e-05
"153" 0.000130011694006416 -0.000227122830015653 0.000237641935236402 -0.000383496146013102 0.000406718205807269 0.000131020924802036 0.000484595717597402 0.00029084985043166 -2.8337900442766e-05 -0.000334806773003483 -0.000194352409972002 0.000104350024532773 -0.000231981758068474 3.03001268710878e-05 0.00220772704861346 6.69551283153944e-06
"154" 0.000118676036588132 -0.00023853085236937 0.000213697033897335 -0.000401257249074135 0.000404736726024592 0.000116393722620791 0.000470103497944528 0.000271325147473136 -1.1896657954603e-05 -0.000318154575823623 -0.000184705473261346 0.000109691226273883 -0.000179051378530269 2.44391479043035e-05 0.00234598639602557 1.36638247663348e-06
"155" 0.000106295836404312 -0.000249915439355493 0.000187902625816655 -0.000418767583933808 0.000401011448060215 0.000101846583554555 0.000453694621637906 0.000250698976129814 1.96504547931835e-05 -0.000301059605029204 -0.000175916231347131 0.000115276298426922 -0.000120149246921962 1.87630622303454e-05 0.00246988721179153 -4.00736419027789e-06
"156" 9.29757561015341e-05 -0.000261205447337494 0.00016040164033098 -0.000435896507117108 0.000395485250025131 8.74176051689244e-05 0.00043549266117499 0.000229049835290967 6.64003907466974e-05 -0.000283706318034325 -0.000168119472220855 0.000121041422708157 -5.57989089017384e-05 1.3319379428932e-05 0.00257854058240607 -9.38144288723963e-06
"157" 7.88235753034536e-05 -0.000272321082064157 0.000131351047404315 -0.000452509660111459 0.000388124107153985 7.31397477302039e-05 0.000415630473000953 0.000206479275076962 0.000128316300817761 -0.00026627372331725 -0.000161446954594617 0.000126928426249459 1.34152683384242e-05 8.15926998078045e-06 0.00267123730545159 -1.47147185765566e-05
"158" 6.39599836935018e-05 -0.000283175706513689 0.000100920965136679 -0.000468489144465263 0.000378908206167763 5.90491924644705e-05 0.000394257191698614 0.000183092649386058 0.000205208869745464 -0.000248941420744134 -0.000156007056803645 0.000132870845133281 8.68419834297443e-05 3.33730780441248e-06 0.00274748901719866 -1.99615654993758e-05
"159" 4.85153957258255e-05 -0.000293692036934817 6.93070765700162e-05 -0.000483727051353922 0.000367838426154748 4.5175767269795e-05 0.000371523813394478 0.000159007479446888 0.000296751405142339 -0.000231884056762282 -0.000151908850817286 0.000138795219593715 0.000163780203446954 -1.10213665748837e-06 0.00280702704690137 -2.5080112819093e-05
"160" 3.26261719027616e-05 -0.00030378078590536 3.67079776837217e-05 -0.000498120224342257 0.000354930223773808 3.15474894783413e-05 0.000347599976657249 0.00013434302714765 0.000402462729129037 -0.000215263477885617 -0.000149242226657898 0.000144633427406852 0.000243478052997511 -5.11401351464066e-06 0.00284979756361069 -3.00241822988095e-05
"161" 1.64311360167637e-05 -0.000313354806202493 3.33159602814266e-06 -0.000511577286864328 0.000340202700735414 1.81957907694134e-05 0.000322650814332562 0.00010922159230231 0.000521722123162294 -0.000199240625396409 -0.000148083655262239 0.000150311824076179 0.000325147937907787 -8.65293515979183e-06 0.00287597920573032 -3.47516534698037e-05
"162" 8.76187129705812e-08 -0.00032232986146808 -3.05893182690247e-05 -0.000524019376559954 0.000323720479498819 5.14532412432421e-06 0.00029685063254027 8.37817370391522e-05 0.000653754538298997 -0.00018396092039354 -0.000148495591754437 0.000155755447817709 0.000407963932639751 -1.16837646456476e-05 0.00288596336736691 -3.92168301122481e-05
"163" -1.6256654001439e-05 -0.000330621910496133 -6.48267151493338e-05 -0.000535382386319591 0.000305540015314402 -7.5830088349497e-06 0.000270379098124067 5.81517044990449e-05 0.000797634952276399 -0.000169560983709229 -0.000150524155904457 0.000160891012375126 0.000491076895775049 -1.4163596677534e-05 0.00288034604075318 -4.33815810304325e-05
"164" -3.24425508859362e-05 -0.000338150637439081 -9.91253514532317e-05 -0.000545610396585866 0.000285753663949824 -1.99683845379019e-05 0.000243415784213876 3.24787966710947e-05 0.000952284402864497 -0.00015615937937773 -0.000154192652225695 0.000165640819117355 0.000573623548070647 -1.60666616790151e-05 0.00285991661173413 -4.72032351735248e-05
"165" -4.83089349660702e-05 -0.000344841078833159 -0.000133241165761914 -0.000554667148041779 0.000264465615752427 -3.19929744951314e-05 0.000216142283134877 6.89998310693328e-06 0.00111648134603241 -0.000143863577487494 -0.0001595109198648 0.000169933474308169 0.000654728601626508 -1.73650461523304e-05 0.00282561931847626 -5.06448051867256e-05
"166" -6.3696573965797e-05 -0.000350615932170288 -0.000166920633079554 -0.000562517846945449 0.000241786415352746 -4.36425098277884e-05 0.000188739106874552 -1.84430084800635e-05 0.00128887013321305 -0.000132768598920736 -0.000166469685302707 0.000173700539029805 0.000733518251544844 -1.80342354298927e-05 0.00277855925903031 -5.36725246492518e-05
"167" -7.84431025559967e-05 -0.000355417173839485 -0.000199897597840099 -0.000569150785595164 0.000217858749675469 -5.49006419686904e-05 0.000161384982745386 -4.34028800528353e-05 0.0014679484920312 -0.000122948055161228 -0.000175038516423818 0.000176869933838873 0.000809126629081216 -1.80613078992262e-05 0.00271995488313113 -5.62542009675377e-05
"168" -9.23896578085672e-05 -0.000359180941147916 -0.000231921569577158 -0.000574560265473975 0.000192828519039806 -6.57626544891442e-05 0.00013425482314248 -6.7845518613469e-05 0.00165209700393643 -0.000114465465048468 -0.00018516433471957 0.000179382830869661 0.000880708943177729 -1.74329123019794e-05 0.00265112169019307 -5.83625454923283e-05
"169" -0.000105392940806922 -0.000361852577030458 -0.000262748527031268 -0.000578748069229424 0.000166842195244416 -7.62174011550954e-05 0.000107513816110849 -9.16396287157032e-05 0.00183958825502088 -0.00010736944134217 -0.000196788652296203 0.000181177642528188 0.000947444675405452 -1.61410619782613e-05 0.00257344587593562 -5.9972267552256e-05
"170" -0.000117299179282548 -0.000363394160323176 -0.000292127043026425 -0.000581731718542895 0.000140077140763373 -8.6260919600827e-05 8.13305303095679e-05 -0.000114648012671553 0.00202858521146052 -0.000101685397013961 -0.00020981557629045 0.000182200817644757 0.00100855296413694 -1.41949519478766e-05 0.00248833805275961 -6.1064222476116e-05
"171" -0.0001279763491764 -0.000363765025210808 -0.000319832276276706 -0.000583533328005807 0.000112701953932099 -9.58920000236135e-05 5.58579250288625e-05 -0.000136753264425214 0.00221717357081475 -9.74327249345245e-05 -0.000224146129719729 0.000182407567482707 0.00106329542155143 -1.15987893211654e-05 0.00239720906140449 -6.16200140036057e-05
"172" -0.000137297836804404 -0.000362941329406127 -0.000345648363009415 -0.000584182747129969 8.48977300699791e-05 -0.000105104785253044 3.12430900951796e-05 -0.000157839932456385 0.0024033707395938 -9.46083086334539e-05 -0.000239655919856878 0.000181756983591931 0.00111098881532539 -8.36749862714409e-06 0.00230145180848963 -6.16332190339108e-05
"173" -0.000145154303806323 -0.000360902045355076 -0.000369383536450311 -0.000583717649917514 5.68381176077802e-05 -0.000113905247335331 7.61664807967972e-06 -0.000177806961376424 0.00258515428795298 -9.31986314709332e-05 -0.000256215107143344 0.000180219823218178 0.00115101005827769 -4.52250212704298e-06 0.00220240314262492 -6.10956209187981e-05
"174" -0.000151447218773324 -0.000357641215072933 -0.000390868657717959 -0.000582174454395734 2.87037791800014e-05 -0.000122292228183927 -1.48935537326583e-05 -0.00019656331378274 0.00276047827842584 -9.31799935904308e-05 -0.000273667237822298 0.000177771084395587 0.00118281174050776 -9.60760843584165e-08 0.00210131764582352 -6.00075466385268e-05
"175" -0.000156101360345502 -0.00035315775553879 -0.000409964988646571 -0.000579598259583856 6.56800693893226e-07 -0.000130269610378356 -3.61812484359229e-05 -0.000214038194328239 0.00292730642464795 -9.45100733952745e-05 -0.000291854815849632 0.000174401718632872 0.0012059143531548 4.87954464065856e-06 0.00199934860911765 -5.83747050267217e-05
"176" -0.000159056243013273 -0.000347461728753748 -0.000426554142022734 -0.000576032818128958 -2.71284368218528e-05 -0.000137836959891944 -5.61507659151931e-05 -0.00023016602299974 0.00308362730429035 -9.71375296194849e-05 -0.000310606380053614 0.000170103055951006 0.00121993161527981 1.03637359036868e-05 0.00189753363492424 -5.62038322677236e-05
"177" -0.000160274421062141 -0.000340571955479307 -0.000440557048974217 -0.000571526569104279 -5.4497275141219e-05 -0.000145001206745518 -7.47219325640128e-05 -0.000244900865082541 0.00322749310808711 -0.000100998675639917 -0.000329738225220604 0.00016488487574711 0.00122455796950369 1.63041406380922e-05 0.0017967663812656 -5.3513222137298e-05
"178" -0.000159737788799515 -0.000332517340913885 -0.000451936162568641 -0.000566119041828984 -8.13107461107282e-05 -0.000151765114291653 -9.1830633392925e-05 -0.000258222123185937 0.00335704522292415 -0.000106027659538832 -0.000349063251892423 0.000158761951436603 0.00121958957495043 2.26515088402334e-05 0.00169779710244068 -5.03242719977987e-05
"179" -0.000157455278420336 -0.000323335220942078 -0.000460679319684275 -0.000559853293817229 -0.00010743369460812 -0.000158133190581116 -0.000107430957280534 -0.000270119117601127 0.0034705409086691 -0.000112143463738505 -0.000368395436679107 0.000151763317387777 0.00120491275921158 2.93427322451348e-05 0.00160119911849342 -4.66584128932235e-05
"180" -0.000153457530686503 -0.000313073958753251 -0.000466815266683811 -0.000552775373085248 -0.000132756885715088 -0.000164108056970201 -0.000121489588189054 -0.000280600656567539 0.0035663802202828 -0.000119258353060544 -0.000387536616010255 0.000143923819265521 0.00118051780129159 3.63117596481396e-05 0.00150739111142804 -4.25504735900066e-05
"181" -0.000147796703021874 -0.000301786532525615 -0.000470412364307856 -0.000544916887699491 -0.000157178518042687 -0.000169696569400666 -0.000133995480850385 -0.000289697654670762 0.0036431337676193 -0.000127279469664981 -0.000406298676355802 0.000135291892945196 0.0011464968434894 4.34957040858609e-05 0.00141660999040931 -3.80304967283983e-05
"182" -0.000140554042526417 -0.000289532970054372 -0.000471578478825899 -0.00053631806062181 -0.000180625819219509 -0.00017489876596185 -0.000144955079017926 -0.000297455937172476 0.00369957012124859 -0.000136115120748715 -0.000424490317126043 0.000125925269201612 0.00110304251864337 5.08195572068485e-05 0.0013289237732514 -3.31408733898205e-05
"183" -0.000131825041729537 -0.000276390587578946 -0.000470447527717399 -0.000527001547018953 -0.000203031651982209 -0.000179718570729073 -0.000154385705876014 -0.00030394191689118 0.0037346637490383 -0.000145662287101938 -0.000441927308112525 0.00011588522451141 0.00105045034205873 5.82078948135164e-05 0.00124422909089014 -2.79233315570415e-05
"184" -0.00012173780745046 -0.000262431109600654 -0.000467197071943298 -0.000517002902460166 -0.000224360155764275 -0.000184161167595445 -0.000162329935113564 -0.00030923594071463 0.00374763144346581 -0.000155815638153732 -0.000458431541257946 0.000105248177151387 0.000989113199367017 6.55835266804305e-05 0.00116224198260571 -2.24211314377751e-05
"185" -0.000110427888881837 -0.000247747437794111 -0.000462016864358463 -0.000506346228920822 -0.000244577263354926 -0.000188230873832444 -0.000168836502553507 -0.000313431292601097 0.00373791950046398 -0.000166474618721287 -0.000473828464537378 9.40904938835553e-05 0.000919518784321689 7.28715421547795e-05 0.0010825223542409 -1.66858740185748e-05
"186" -9.80525202973623e-05 -0.000232428699365785 -0.000455133824157273 -0.00049505428229121 -0.000263675893727746 -0.000191933038386208 -0.000173972762266051 -0.000316639507608417 0.00370523034496113 -0.00017752978922236 -0.000487964748788714 8.25016938829079e-05 0.000842246246304442 7.99931737562382e-05 0.00100446809422266 -1.07649024802844e-05
"187" -8.47826907250278e-05 -0.000216577411897268 -0.000446789685977625 -0.000483153510485667 -0.000281656893759051 -0.000195271341209339 -0.00017781887878134 -0.000318968867785648 0.00364952203931953 -0.000188878681524012 -0.000500688214514372 7.05702084835613e-05 0.00075796122950539 8.68700067280378e-05 0.00092733439551363 -4.71478546445482e-06
"188" -7.0810086928845e-05 -0.000200295903912536 -0.000437250229414964 -0.000470660579819806 -0.000298548622990841 -0.000198256509432434 -0.000180469547738002 -0.000320561630109978 0.00357100702302488 -0.000200418079202098 -0.000511869328922784 5.83908538699233e-05 0.000667407626270628 9.34258525461722e-05 0.00085025308056083 1.41723020939426e-06
"189" -5.63155717432328e-05 -0.000183697354716864 -0.000426774350551942 -0.000457604838250201 -0.000314371384641529 -0.000200894230051135 -0.000182022567871535 -0.000321537767065296 0.00347013693805396 -0.000212037474405202 -0.000521382319113658 4.60585692745923e-05 0.000571403600077005 9.95951157819612e-05 0.000772239561918177 7.57447556520686e-06
"190" -4.15012562362204e-05 -0.000166895559323672 -0.000415630503860485 -0.00044400953649267 -0.00032916045098617 -0.000203199872088225 -0.000182588002416081 -0.000322032685548988 0.00334760113544195 -0.000223643114999052 -0.000529125537286193 3.36719416523872e-05 0.000470823971269276 0.000105302768273299 0.000692211678690047 1.37029044393791e-05
"191" -2.65615283816289e-05 -0.000150011227418396 -0.000404089689194909 -0.00042990404371922 -0.000342959763204324 -0.000205184332820233 -0.000182279755934325 -0.000322181862862936 0.00320430638690481 -0.000235135771062731 -0.000535009944503265 2.132560627406e-05 0.000366601758599393 0.000110485165545471 0.000609010267751449 1.9750734039459e-05
"192" -1.1696961994418e-05 -0.000133165435014005 -0.000392412503999006 -0.000415319158940977 -0.000355820732775749 -0.000206866290654255 -0.000181218435601775 -0.000322115935313985 0.00304136825880875 -0.000246414759161707 -0.00053896623362737 9.11328618543617e-06 0.000259712838655254 0.000115085703280394 0.000521427999318783 2.56710053524715e-05
"193" 2.90753812737983e-06 -0.000116482391021242 -0.000380834114479358 -0.000400295688934783 -0.000367774675227356 -0.000208267151518461 -0.000179521820694651 -0.00032195314277442 0.00286007494839672 -0.000257391555113184 -0.000540937216580545 -2.87099693185485e-06 0.000151166769863221 0.000119053664591901 0.000428214777538275 3.14109031013058e-05
"194" 1.70670188828244e-05 -0.000100086671416312 -0.000369586876839121 -0.000384877014853511 -0.000378877716568567 -0.000209407787416257 -0.000177317231088908 -0.000321810858132535 0.00266189636940041 -0.000267976287702731 -0.000540890462858944 -1.45450579515543e-05 4.19942699509305e-05 0.000122341938657648 0.000328120517321997 3.69256270539707e-05
"195" 3.06151387125701e-05 -8.41001633280782e-05 -0.000358872088968654 -0.000369109310972214 -0.000389159725456549 -0.000210314462536684 -0.000174714418692164 -0.000321790857834432 0.00244843358122948 -0.000278085941332432 -0.000538801987694779 -2.58253808281857e-05 -6.67599601853171e-05 0.000124912441245582 0.000219929615180796 4.21706428842495e-05
"196" 4.33934663533797e-05 -6.86449150695951e-05 -0.000348860800069582 -0.000353051379378046 -0.000398655107797966 -0.00021101977723424 -0.000171833069506558 -0.000321982064273548 0.00222141578191337 -0.000287635841183325 -0.000534679128297779 -3.66382617987864e-05 -0.000174047806657093 0.000126734220055174 0.00010247353269195 4.71098172753113e-05
"197" 5.52661060428209e-05 -5.38388391329371e-05 -0.000339706289767047 -0.000336763790040489 -0.0004073936223981 -0.000211554543520424 -0.000168785952476309 -0.000322458910261143 0.00198267154163725 -0.000296555335823596 -0.000528534127829457 -4.69182140904636e-05 -0.000278838682146914 0.000127782198755656 -2.53246027369989e-05 5.17053788281107e-05
"198" 6.61117061607055e-05 -3.97900871995811e-05 -0.000331518214863916 -0.000320318500697381 -0.000415387502099083 -0.000211953933794908 -0.000165671067180844 -0.000323278346204768 0.00173410605750325 -0.000304769789821142 -0.000520402544798973 -5.66030428685396e-05 -0.000380118663035687 0.000128047486818887 -0.000164433878968677 5.59252894767881e-05
"199" 7.5834671330541e-05 -2.66112421895774e-05 -0.0003243703619861 -0.0003037915166239 -0.000422640149116478 -0.000212263854313013 -0.000162581318839204 -0.000324474888750132 0.00147769478142142 -0.000312216543002387 -0.000510331488554465 -6.56470391224648e-05 -0.000476899702621565 0.000127518666429398 -0.000315656279296617 5.97447370062465e-05
"200" 8.43463059035762e-05 -1.43942793490001e-05 -0.000318318873213321 -0.000287261596463719 -0.000429154603375418 -0.000212517773537487 -0.000159608706142338 -0.000326077155793566 0.00121546625738645 -0.000318837262885051 -0.00049839253575464 -7.40051824877011e-05 -0.000568244924417974 0.000126202152777637 -0.000479640280689932 6.3140536821408e-05
"201" 9.16028101644612e-05 -3.22890414941102e-06 -0.000313364681634418 -0.000270820184063285 -0.00043490831511342 -0.000212762006296062 -0.000156818145515555 -0.000328075375012081 0.000949473164547999 -0.000324574081335407 -0.000484662667103805 -8.16456576218108e-05 -0.000653263031252217 0.000124108173955611 -0.000656813588881045 6.60976541161781e-05
"202" 9.75591784525444e-05 6.80676680199104e-06 -0.000309496383644483 -0.000254554295119349 -0.000439883014978693 -0.000213042127731269 -0.000154280454431602 -0.000330464172776749 0.000681799046588552 -0.000329384304746431 -0.000469242095500954 -8.85443496426216e-05 -0.000731122974711718 0.000121253736130581 -0.000847380628869282 6.86011510452124e-05
"203" 0.000102203919875587 1.56530888588996e-05 -0.000306666856702565 -0.000238560463402149 -0.000444050316173476 -0.000213398867470484 -0.000152046659561822 -0.000333205755973858 0.000414531823417046 -0.000333228170885706 -0.000452237657100761 -9.4686416094916e-05 -0.000801061938869728 0.000117668530334452 -0.0010513087638732 7.06436712103772e-05
"204" 0.000105542398557204 2.32526809547332e-05 -0.000304790477843932 -0.000222932209064898 -0.00044736589273667 -0.000213882444580075 -0.000150154142486182 -0.000336250667245959 0.00014975593503583 -0.000336073347150793 -0.000433771141583367 -0.000100064949885569 -0.000862394256083425 0.000113380488543756 -0.0012682859767506 7.22231190575432e-05
"205" 0.000107604824188648 2.95733332218642e-05 -0.000303766785962916 -0.000207765486100874 -0.000449785237567867 -0.000214531518319111 -0.000148630275211705 -0.00033953231522035 -0.000110444554513762 -0.000337893596235583 -0.000413972024831299 -0.000104679182288694 -0.000914520790991288 0.00010843025660163 -0.00149774695822816 7.33436871642139e-05
"206" 0.000108427796177828 3.45928237504128e-05 -0.000303477267464204 -0.000193156460239063 -0.000451266143083467 -0.000215391541213982 -0.000147493071842817 -0.000342977005726039 -0.000363990014485488 -0.000338679416950637 -0.000392986137474757 -0.00010854003572663 -0.0009569296936468 0.000102867497789711 -0.00173885206932587 7.40099810242102e-05
"207" 0.000108077703871948 3.8303047936689e-05 -0.000303780777157233 -0.00017918987604403 -0.000451763194284803 -0.000216500810073576 -0.000146750353783602 -0.00034650006725001 -0.000608823287201643 -0.000338423209044432 -0.000370959286139566 -0.00011165930011343 -0.000989199975681731 9.67423253651373e-05 -0.00199049523309034 7.42342012947826e-05
"208" 0.000106623241480911 4.07172459517291e-05 -0.000304527908026353 -0.000165953566891558 -0.000451230234275548 -0.000217895844281287 -0.00014639416604058 -0.000350001751926285 -0.000842902791242073 -0.000337128769322327 -0.000348049126530401 -0.00011405776990531 -0.00101101350421615 9.01084200308777e-05 -0.00225130811364883 7.40341122288614e-05
"209" 0.000104158391465993 4.18599973697055e-05 -0.000305553025683237 -0.000153528809155348 -0.000449618455743393 -0.000219612644906993 -0.000146403880825562 -0.000353383911189895 -0.00106420684781965 -0.000334810679949489 -0.000324417887680435 -0.000115760144032819 -0.00102214859723185 8.30262530624165e-05 -0.00251967358199893 7.34228654336114e-05
"210" 0.000100775022187388 4.17689094944757e-05 -0.000306695192168044 -0.000141983853897872 -0.0004469010459189 -0.000221675806789217 -0.000146756733939757 -0.000356542205000803 -0.00127073582238272 -0.000331494779579448 -0.000300225252794386 -0.000116796685506941 -0.00102249135319918 7.55624442154612e-05 -0.00279374504368133 7.24278064222204e-05
"211" 9.65805221566344e-05 4.05073332183829e-05 -0.000307788798384242 -0.000131381802864347 -0.000443048744965017 -0.000224112512945174 -0.000147416321768344 -0.000359372855024369 -0.00146052164672991 -0.000327213217545683 -0.000275645312795418 -0.00011719954796345 -0.00101203074004112 6.77743437074831e-05 -0.00307149240395163 7.10744433355732e-05
"212" 9.16928537583991e-05 3.81426282013828e-05 -0.000308671660018093 -0.000121772100168027 -0.000438041426936039 -0.000226939132069776 -0.000148338736680631 -0.000361770986930499 -0.00163163875830567 -0.000322017905598106 -0.000250840979932153 -0.000117004366676387 -0.000990859291835969 5.97317690262426e-05 -0.00335070255322244 6.93894653802712e-05
"213" 8.62240235237466e-05 3.47606658934575e-05 -0.000309187405228731 -0.000113196012682184 -0.000431872285696863 -0.000230168364226818 -0.000149472242425222 -0.000363637001036658 -0.0017822173316526 -0.000315954784753571 -0.000225979949058231 -0.000116246039820914 -0.000959171305350386 5.15046288786286e-05 -0.00362904196447786 6.74037015634672e-05
"214" 8.02947341223744e-05 3.04582845678928e-05 -0.000309200115220125 -0.000105679367002265 -0.000424560573073247 -0.000233808168138553 -0.000150759924383711 -0.000364885113097927 -0.00191044942074891 -0.00030909923752301 -0.000201225827571522 -0.000114964869654008 -0.000917265530871293 4.31592695797968e-05 -0.00390406512592585 6.51499861360633e-05
"215" 7.4031084724247e-05 2.53424802562221e-05 -0.000308555588782299 -9.92381416909705e-05 -0.000416107887314039 -0.000237856300081068 -0.00015213277525744 -0.000365418293345743 -0.0020146149526717 -0.00030151954893919 -0.000176737864170617 -0.000113196899288574 -0.000865530826834028 3.47636081527891e-05 -0.00417327200478629 6.26626559657542e-05
"216" 6.75482168795151e-05 1.95312124676814e-05 -0.000307150660242639 -9.38712140642224e-05 -0.000406563674780951 -0.000242309202263089 -0.000153530890710567 -0.000365167563297911 -0.00209309515220464 -0.00029330075035311 -0.000152667515485751 -0.000110983083624516 -0.000804458110428232 2.63798018406595e-05 -0.00443413749269667 5.99759156960765e-05
"217" 6.09700416524584e-05 1.31477969717592e-05 -0.000304872205160729 -8.9570567595879e-05 -0.000395968815082286 -0.000247154129962522 -0.000154876326120815 -0.000364063629637503 -0.00214441343888248 -0.00028453508905639 -0.000129166577813517 -0.000108358333707499 -0.000734618569322372 1.80716236014881e-05 -0.00468413988220584 5.7125557654135e-05
"218" 5.4410940670015e-05 6.32566030267969e-06 -0.0003016282207335 -8.63072956981832e-05 -0.000384388229392899 -0.000252372074090481 -0.000156094406297529 -0.000362053326840103 -0.00216726659206808 -0.000275318093558704 -0.000106371026266576 -0.000105362665363243 -0.000656667673683359 9.90441909047627e-06 -0.00492081365160712 5.41481658490608e-05
"219" 4.7991362334993e-05 -8.01607727682653e-07 -0.000297341162647183 -8.40497625674029e-05 -0.000371889045446025 -0.000257939700735636 -0.000157109493417413 -0.000359088154522441 -0.00216054094675374 -0.000265750536237901 -8.44079683739951e-05 -0.000102028122765557 -0.000571343478260867 1.93385226002462e-06 -0.00514176142548209 5.10807804930348e-05
"220" 4.1815439265554e-05 -8.09823060376744e-06 -0.000291954974643685 -8.27471017187409e-05 -0.000358559386856367 -0.000263830916677586 -0.000157840317259903 -0.00035513758610363 -0.00212337653123526 -0.000255941576409786 -6.34018907958959e-05 -9.83923575053702e-05 -0.000479444744456346 -5.7849069228706e-06 -0.00534469863891082 4.79573326357824e-05
"221" 3.59876523459139e-05 -1.54244724154318e-05 -0.000285426758719257 -8.23414806928103e-05 -0.000344495187971358 -0.000270008110735707 -0.000158211765732735 -0.000350183985753712 -0.00205518663389314 -0.000245996339899285 -4.34545357625437e-05 -9.44841059390951e-05 -0.000381833807638992 -1.32019949473072e-05 -0.00552745865711309 4.48112522402803e-05
"222" 3.0610542759981e-05 -2.26451993155233e-05 -0.000277724156400635 -8.2763405917525e-05 -0.000329793951632058 -0.000276439046125034 -0.000158140294327438 -0.000344214476852097 -0.00195570653953612 -0.000236023685488529 -2.46680607875771e-05 -9.03326110109844e-05 -0.000279428252322624 -2.02675847788677e-05 -0.00568802283622759 4.16804004509079e-05
"223" 2.57769111019778e-05 -2.96291529122537e-05 -0.000268832676358689 -8.39411185587309e-05 -0.000314565839998695 -0.000283082697981854 -0.000157551429697282 -0.000337236086694461 -0.0018250228403752 -0.000226135720245678 -7.12007342029302e-06 -8.59703530220485e-05 -0.000173186655874103 -2.69450961159257e-05 -0.00582452935948581 3.85923231413759e-05
"224" 2.15762428494445e-05 -3.62475904022628e-05 -0.000258738084686047 -8.57891059298663e-05 -0.000298914229216715 -0.000289893465487055 -0.000156368106638024 -0.000329258070355632 -0.00166361294964737 -0.000216436034874226 9.1211318580834e-06 -8.14216084673862e-05 -6.41030824304531e-05 -3.31909576811156e-05 -0.00593528527160607 3.55806429377803e-05
"225" 1.8087339571896e-05 -4.23765658300518e-05 -0.000247450972748202 -8.82225743576991e-05 -0.000282955767662368 -0.000296829936218624 -0.000154516956982893 -0.000320304083370628 -0.0014723559001761 -0.000207021169002355 2.39941218649962e-05 -7.67134505640291e-05 4.67938664578272e-05 -3.89754724040313e-05 -0.00601877293272727 3.26720198046013e-05
"226" 1.53885345916388e-05 -4.7910295543681e-05 -0.000234985196118676 -9.115025162118e-05 -0.000266799083964109 -0.000303844883849323 -0.000151930419177094 -0.000310406219626479 -0.00125255401390483 -0.000197995884041559 3.74644860443801e-05 -7.18665317139069e-05 0.0001584687025771 -4.42673553962699e-05 -0.00607364535470434 2.98947240309994e-05
"227" 1.35481770670623e-05 -5.2740768327776e-05 -0.000221356041277833 -9.44779357899871e-05 -0.000250545187759806 -0.000310894708742684 -0.00014853798285161 -0.000299601661635131 -0.00100594332324423 -0.000189442412253102 4.9500445976604e-05 -6.69048906765092e-05 0.000269873754196541 -4.90523113725795e-05 -0.00609875125913614 2.727251268785e-05
"228" 1.26248133469259e-05 -5.67779874926999e-05 -0.000206599769661781 -9.81119076135571e-05 -0.000234304810656902 -0.000317932106072989 -0.000144280250783547 -0.00028794414258483 -0.000734664719573269 -0.000181448997270906 6.00903816857184e-05 -6.1850335514002e-05 0.000379962061607251 -5.33063326251411e-05 -0.00609311496222426 2.48284260431479e-05
"229" 1.26762484594925e-05 -5.99422464126071e-05 -0.000190740398353494 -0.000101957480644097 -0.000218165051492101 -0.000324911224891055 -0.000139108249101883 -0.000275485130395522 -0.000441271066127474 -0.000174085306356896 6.92364228466054e-05 -5.67206119832397e-05 0.000487703477367316 -5.70186644270271e-05 -0.00605593244950611 2.25786110734355e-05
"230" 1.37452713485426e-05 -6.21671093256633e-05 -0.000173818702387477 -0.000105925638037549 -0.000202216586156047 -0.000331794633624273 -0.000132965714435252 -0.00026228037942822 -0.00012867162304966 -0.000167415000109333 7.69523639081554e-05 -5.15382100171107e-05 0.000592082431375269 -6.01830598692505e-05 -0.00598657073200362 2.05423410359325e-05
"231" 1.58723365656167e-05 -6.33960828378516e-05 -0.000155876735292844 -0.000109923741647435 -0.000186533654951427 -0.000338537835940734 -0.000125817352482049 -0.000248399503359361 0.000199899667523601 -0.000161491348382407 8.32658151061968e-05 -4.63186745680752e-05 0.000692125227319175 -6.28004228194642e-05 -0.00588457291500807 1.87315151672291e-05
"232" 1.90832123014011e-05 -6.35938211586076e-05 -0.000136959151698165 -0.000113871240417451 -0.000171192396019264 -0.000345102133862707 -0.000117628304134286 -0.00023391215184348 0.000540946320567767 -0.000156360401255443 8.82151646081905e-05 -4.10834843859669e-05 0.000786886523589719 -6.48710003109022e-05 -0.00574963849425093 1.71559724622809e-05
"233" 2.33917725299172e-05 -6.27311549420649e-05 -0.000117122521709803 -0.000117681670276567 -0.000156249160516861 -0.000351454884245592 -0.000108381569674295 -0.000218896978613234 0.000890753895982724 -0.000152050686163171 9.18545951716415e-05 -3.58475080626709e-05 0.000875481010134329 -6.64040701860376e-05 -0.0055816212111424 1.58264979588446e-05
"234" 2.88093811185564e-05 -6.0802472362764e-05 -9.64110176527557e-05 -0.00012128768124646 -0.000141748478692951 -0.00035756488428072 -9.80563057333506e-05 -0.000203423175089286 0.00124546337475722 -0.000148583309333419 9.42435910732391e-05 -3.06319184026496e-05 0.000957069334110596 -6.7414578172106e-05 -0.00538054423241998 1.47461131086487e-05
"235" 3.53306072790437e-05 -5.78095028332205e-05 -7.48876917336888e-05 -0.000124612627162582 -0.000127735305081006 -0.000363404184738833 -8.66557367222904e-05 -0.000187579525562419 0.00160114249237474 -0.000145968040956725 9.54529242725812e-05 -2.54516541961874e-05 0.00103088892579268 -6.79176052568151e-05 -0.00514657942477954 1.39168067679934e-05
"236" 4.29387654141127e-05 -5.37723394298732e-05 -5.26123011141349e-05 -0.000127601431456688 -0.000114231048752665 -0.000368947789519751 -7.41874673472455e-05 -0.000171444249286864 0.00195385396638759 -0.000144205825478949 9.55700459338015e-05 -2.03271583911711e-05 0.00109624302408316 -6.79350968709211e-05 -0.00488006439421977 1.33385127916169e-05
"237" 5.16031967145453e-05 -4.87222585171011e-05 -2.96583093395589e-05 -0.000130194290591946 -0.000101262166723378 -0.000374176405240177 -6.06762387582598e-05 -0.000155112485988172 0.00229971912072521 -0.000143282967074977 9.46747814574439e-05 -1.52739531805642e-05 0.00115251998152505 -6.74955462692971e-05 -0.00458149251696585 1.30067300122024e-05
"238" 6.12795450516946e-05 -4.27061852802019e-05 -6.0964732432098e-06 -0.000132345178844994 -8.88406633591737e-05 -0.0003790756939277 -4.61550019047455e-05 -0.000138670536866044 0.00263498449453457 -0.00014318301901679 9.28660018282575e-05 -1.03109212171664e-05 0.00119919413312909 -6.66273383109702e-05 -0.00425153673445652 1.29159872473503e-05
"239" 7.19086945557829e-05 -3.57839718249097e-05 1.79855950754537e-05 -0.000134010603862513 -7.6974171415071e-05 -0.00038363474942426 -3.0675021353364e-05 -0.000122213294705992 0.00295608022637823 -0.000143874347603142 9.02438962505374e-05 -5.45676238387342e-06 0.0012358255169012 -6.53593774206483e-05 -0.00389104208926089 1.30586310961439e-05
"240" 8.34216131393378e-05 -2.80253537546877e-05 4.25062572854913e-05 -0.000135163858335565 -6.5652783387569e-05 -0.000387844025675669 -1.42966861145142e-05 -0.000105833305337637 0.003259673929261 -0.000145316714854315 8.69088175323424e-05 -7.29534531404515e-07 0.00126207464176185 -6.37337914253384e-05 -0.0035010451913497 1.34235109205312e-05
"241" 9.57282524911232e-05 -1.95123495900004e-05 6.73600435309042e-05 -0.000135773602821958 -5.48886209141782e-05 -0.000391703903330218 2.90160474241529e-06 -8.96322587811101e-05 0.00354272086678272 -0.00014747121484309 8.2966915018968e-05 3.85339478792568e-06 0.00127769897088156 -6.17812737439351e-05 -0.00308278730450018 1.39945885812872e-05
"242" 0.000108726075240201 -1.03360163169298e-05 9.24420343734869e-05 -0.000135827644247917 -4.46644153078781e-05 -0.000395217415717748 2.08344026918813e-05 -7.3709017407915e-05 0.00380249184501069 -0.000150282836264738 7.8524442309585e-05 8.27270011765483e-06 0.00128255848863998 -5.95457610585533e-05 -0.00263773563449397 1.47613275323832e-05
"243" 0.000122296476476394 -5.97390103141043e-07 0.000117637034439131 -0.00013530816535169 -3.49774167990717e-05 -0.00039838271053315 3.9389248217678e-05 -5.81659011120606e-05 0.00403660637513621 -0.000153691925294157 7.36878411706055e-05 1.25122449578446e-05 0.00127661812224265 -5.70707010029886e-05 -0.00216759378376753 1.57043584524382e-05
"244" 0.000136309235043578 9.59609457036178e-06 0.000142820124674964 -0.000134221058875048 -2.58152196006052e-05 -0.000401214274033329 5.84547898805996e-05 -4.31031838007165e-05 0.00424305533996289 -0.000157643597099539 6.85584881224751e-05 1.65523122704978e-05 0.0012599398938343 -5.4398330721124e-05 -0.00167433380533193 1.68065694561042e-05
"245" 0.000150617623385493 2.01350105266318e-05 0.000167852361313946 -0.000132566211276751 -1.71770389089326e-05 -0.000403727101877917 7.7894103254031e-05 -2.86293233995731e-05 0.00442020238730883 -0.000162071135312126 6.32384553087162e-05 2.03749692339887e-05 0.00123269607207343 -5.15676179671982e-05 -0.00116021662078281 1.80486200656629e-05
"246" 0.000165059611940513 3.0896585894568e-05 0.00019258986011909 -0.000130351337360255 -9.05860529501647e-06 -0.000405935067504 9.75650982159345e-05 -1.48498127048142e-05 0.00456680606687609 -0.00016690910968277 5.7823567151878e-05 2.39629940502596e-05 0.00119515275082117 -4.86259297830245e-05 -0.000627826365756996 1.94104810756789e-05
"247" 0.00017947156587937 4.1762823648716e-05 0.000216888888022444 -0.000127603091990608 -1.45145464507182e-06 -0.000407857348975776 0.000117316152483616 -1.86173484148861e-06 0.00468199275619504 -0.000172085381199 5.24096654454171e-05 2.73013696310851e-05 0.0011476710727601 -4.56151875415462e-05 -8.00801368826043e-05 2.08728417514086e-05
"248" 0.000193673493525764 5.2610967925707e-05 0.000240585055395525 -0.000124339708773505 5.63770256746517e-06 -0.000409517813273224 0.000136978356633595 1.02282751861988e-05 0.00476525199601523 -0.00017753428121068 4.70768790015626e-05 3.03697181619359e-05 0.00109071317815454 -4.25783376775783e-05 0.000479729363444143 2.24123039055464e-05
"249" 0.000207473019024907 6.33173190196848e-05 0.00026351839649932 -0.000120596295828231 1.21998829857856e-05 -0.000410944861181739 0.000156380025801153 2.13188345190562e-05 0.0048164317771246 -0.000183188119356866 4.19095802864158e-05 3.31510033708119e-05 0.00102481683120908 -3.95569979605005e-05 0.00104792738168805 2.4010973071463e-05
"250" 0.000220682296842723 7.37621888757361e-05 0.000285521390660543 -0.000116408862709374 1.82279706488271e-05 -0.000412164050311827 0.000175338919778175 3.13153917854223e-05 0.00483570430420252 -0.00018897872882314 3.69757526245774e-05 3.56325629383865e-05 0.000950607372134503 -3.6593156930127e-05 0.00162043241872214 2.56431006216454e-05
"251" 0.00023310041301673 8.38271909790463e-05 0.000306424548413179 -0.000111823241349245 2.37032109530992e-05 -0.00041320861420831 0.000193671880806723 4.01260183297282e-05 0.00482353863652138 -0.00019484171801114 3.23376357733223e-05 3.77975239874693e-05 0.000868778144587924 -3.37197128413284e-05 0.00219273466762243 2.72941220252983e-05
"252" 0.000244531101175902 9.33938330042865e-05 0.000326063654637337 -0.000106885784871012 2.86140621425076e-05 -0.000414109871279713 0.00021118830037033 4.76649561964173e-05 0.00478066265170878 -0.000200710865056657 2.80555805972655e-05 3.96291941505094e-05 0.000780092014621399 -3.09714207834603e-05 0.00275991902844439 2.894026775625e-05
"253" 0.000254779240979099 0.000102356658501587 0.000344264994861666 -0.000101651653215114 3.29194731390125e-05 -0.000414904094843963 0.000227695737817797 5.38465829110934e-05 0.00470805153316101 -0.000206533683006653 2.4170166757291e-05 4.11147379912966e-05 0.000685366350699952 -2.83868564952402e-05 0.00331664451585957 3.05654105762763e-05
"254" 0.000263647004513136 0.000110616326992143 0.000360866838545573 -9.6179133361088e-05 3.65997390462299e-05 -0.000415629997812826 0.00024300749936351 5.86025629649565e-05 0.00460687200180365 -0.00021224758887457 2.07154342754863e-05 4.22399618979336e-05 0.000585467547343708 -2.59916431372428e-05 0.00385718868541038 3.21487663645177e-05
"255" 0.000270951200955318 0.00011807365503747 0.000375717957956768 -9.05312626895799e-05 3.96223457257775e-05 -0.000416320656103434 0.000256938424285595 6.18663923226998e-05 0.00447846463657 -0.000217804988366209 1.77227887181202e-05 4.29907508917401e-05 0.000481300359435511 -2.38097712152411e-05 0.00437548387477738 3.36794923974368e-05
"256" 0.000276522052132717 0.000124641921817007 0.000388669972625033 -8.47754134391931e-05 4.1946306468666e-05 -0.000417019791869055 0.000269312005776618 6.35877439486222e-05 0.0043243006447144 -0.000223161565769108 1.52142799172105e-05 4.33524430745171e-05 0.000373800447214993 -2.18681143915993e-05 0.00486518830587853 3.51359985278295e-05
"257" 0.000280192603060258 0.000130252399029325 0.000399581909946334 -7.89792510167755e-05 4.35357905611755e-05 -0.000417762735702375 0.000279950439869339 6.37206117936857e-05 0.00414596174858449 -0.000228272650398295 1.3190834205884e-05 4.331528800862e-05 0.000263919813600985 -2.01829794072115e-05 0.00531977389208963 3.65116429209695e-05
"258" 0.000281813730126911 0.000134832796295264 0.000408339277568077 -7.32176520883494e-05 4.43531686891851e-05 -0.000418591473019797 0.000288702533543001 6.22389225876309e-05 0.0039451036161019 -0.000233105540951632 1.16588375578293e-05 4.28672253436042e-05 0.000152618417987527 -1.87699997676091e-05 0.00573265604108963 3.77922352702815e-05
"259" 0.000281256500980929 0.00013833411832444 0.000414831235472055 -6.75633690397916e-05 4.43539708397207e-05 -0.000419542696581733 0.000295414434290743 5.91229325152877e-05 0.00372344151022644 -0.000237628127758322 1.06109281194297e-05 4.19963459299176e-05 4.08668160211142e-05 -1.76398779044279e-05 0.00609732065716879 3.89671537327804e-05
"260" 0.000278408775191815 0.000140713693308159 0.000418961797328818 -6.20892240907345e-05 4.34991663024426e-05 -0.000420657901116336 0.000299955983830653 5.4366120974155e-05 0.00348272125571413 -0.000241816605569755 1.00303551081841e-05 4.06944767362628e-05 -7.03851891968785e-05 -1.6799661933489e-05 0.00640750160953478 4.0031820741896e-05
"261" 0.000273180284493714 0.000141943529917664 0.000420660062664436 -5.68718485272046e-05 4.17473414415124e-05 -0.000421973735513284 0.000302210476865001 4.7978544121539e-05 0.00322470506061248 -0.000245654597047658 9.89311019401978e-06 3.89541716769824e-05 -0.000180199610116967 -1.62518729304313e-05 0.00665735624710141 4.09809858237529e-05
"262" 0.000265507507881346 0.000142010714699385 0.000419871499541533 -5.19793221346414e-05 3.9062267220707e-05 -0.000423524458452611 0.000302083848438992 3.99836436894858e-05 0.00295115589278969 -0.000249126240826128 1.01725068223521e-05 3.67676713032118e-05 -0.000287664253882399 -1.60025771607685e-05 0.00684165756998214 4.18089351930237e-05
"263" 0.00025534760396839 0.000140910369134029 0.000416559471503481 -4.74898263291697e-05 3.54071471295985e-05 -0.000425347853899444 0.000299499080862914 3.04201173817394e-05 0.00266381730383863 -0.000252228601566238 1.08349265267081e-05 3.41275337146161e-05 -0.000391900666864382 -1.60399841949045e-05 0.00695600557592269 4.2512895284506e-05
"264" 0.000242680318074596 0.000138653991106119 0.000410709434563619 -4.34679646076545e-05 3.07455955943516e-05 -0.000427475858796779 0.00029440226025582 1.93381826273276e-05 0.0023644162018334 -0.00025496167607107 1.18392410225922e-05 3.10334594622282e-05 -0.00049207634692559 -1.63605818103067e-05 0.0069969843289107 4.3096199141621e-05
"265" 0.000227516353987793 0.000135266051207327 0.000402327864978712 -3.99825165391702e-05 2.50545770472899e-05 -0.000429934842476587 0.000286761447592978 6.80265945395818e-06 0.00205464416465423 -0.000257328995890823 1.31414377365574e-05 2.74813882289504e-05 -0.000587405687020616 -1.69558876073009e-05 0.00696233391640366 4.3560350392353e-05
"266" 0.000209896922524437 0.000130780027539137 0.000391441776871031 -3.70903893756874e-05 1.83095412880238e-05 -0.000432752609797869 0.000276572939344575 -7.10588774823365e-06 0.0017361616374912 -0.00025934378445297 1.46981284074019e-05 2.3471504281664e-05 -0.00067715653674347 -1.7809797801987e-05 0.00685108008756162 4.39076572031202e-05
"267" 0.000189875610437954 0.000125251174377845 0.000378097274427233 -3.48479965753085e-05 1.04860557453244e-05 -0.000435954096333652 0.000263849843691003 -2.22985585779222e-05 0.00141061003912032 -0.000261019724682299 1.64529718177754e-05 1.90093247038432e-05 -0.000760656348995282 -1.89090912583817e-05 0.00666356874877671 4.41432867443552e-05
"268" 0.000167544805034769 0.000118735432766353 0.000362360419612784 -3.33073968339569e-05 1.57175875655661e-06 -0.000439556641613468 0.000248635989104308 -3.86692214278333e-05 0.00107959208464067 -0.000262382412432754 1.83626631386564e-05 1.40957881509505e-05 -0.000837302993539867 -2.02319721083006e-05 0.0064015261647315 4.42738934957178e-05
"269" 0.000143017089049731 0.000111306191167181 0.000344317887065925 -3.25095450961152e-05 -8.44008460501528e-06 -0.000443577449814552 0.000230998624973437 -5.61067789859972e-05 0.000744694647358511 -0.000263454086850824 2.03668485445024e-05 8.74351693429315e-06 -0.000906561547133893 -2.17634640895974e-05 0.00606799150948553 4.43092859913949e-05
"270" 0.000116431526874708 0.000103047095076462 0.000324070071622164 -3.24876515346879e-05 -1.95540091777414e-05 -0.000448023654851082 0.000211025343393009 -7.44857522584239e-05 0.000407476972502605 -0.000264267839468905 2.2419756202656e-05 2.95989506838173e-06 -0.000967969116095175 -2.34785915991324e-05 0.0056672509059008 4.42546936237678e-05
"271" 8.79454599960118e-05 9.40494483586632e-05 0.000301740461430983 -3.32703651165397e-05 -3.1765671512387e-05 -0.000452905039312698 0.00018883169066217 -9.36748326323639e-05 6.94793912286764e-05 -0.000264859300266668 2.44653848101711e-05 -3.23875857729058e-06 -0.00102113618257709 -2.53539128314946e-05 0.00520467770858021 4.4122737950365e-05
"272" 5.77454198340495e-05 8.44149433433733e-05 0.000277465655546099 -3.48747685177659e-05 -4.50621419679982e-05 -0.000458223163893385 0.000164554534259754 -0.000113530423872311 -0.000267770850691497 -0.000265263828365018 2.64572519822815e-05 -9.83687487646143e-06 -0.00106575607795777 -2.73667920000624e-05 0.00468658014848839 4.39218343670443e-05
"273" 2.60337128652384e-05 7.42492030468945e-05 0.000251401556589372 -3.73111511849648e-05 -5.94232607056244e-05 -0.00046397077561605 0.000138355630268543 -0.000133904607060388 -0.000602752626589788 -0.000265523750431306 2.83470985997764e-05 -1.68121370682127e-05 -0.00110159629512136 -2.94956278183961e-05 0.00411999104411269 4.3664974675875e-05
"274" -6.97375224387314e-06 6.36699425823092e-05 0.000223706257409906 -4.05788220313495e-05 -7.48284845337621e-05 -0.000470142261188363 0.00011040958528246 -0.000154646273971057 -0.000933940915211568 -0.00026568363509229 3.00861283703315e-05 -2.41415719467441e-05 -0.00112850628607858 -3.17093553127425e-05 0.00351247192986315 4.33618115311087e-05
"275" -4.10321017338153e-05 5.27905553188615e-05 0.000194565524843667 -4.46668161149518e-05 -9.12377121610884e-05 -0.000476720192506144 8.09197592075815e-05 -0.000175598366483508 -0.00125981715931051 -0.000265784439782196 3.16386745412673e-05 -3.17984915925767e-05 -0.00114640689006988 -3.39829045828771e-05 0.00287189955091613 4.30246228302025e-05
"276" -7.59011379275858e-05 4.17407500202932e-05 0.000164152110531512 -4.95588480171973e-05 -0.000108623260710381 -0.000483690080345721 5.00943541239491e-05 -0.000196604988526793 -0.00157885485420656 -0.000265877454096923 3.29616069055918e-05 -3.97514930678244e-05 -0.00115530433403314 -3.62973027299167e-05 0.00220626780520047 4.26657334800192e-05
"277" -0.000111310707640567 3.06406306335693e-05 0.000132674061126474 -5.5224317852977e-05 -0.000126923490184537 -0.000491024802959727 1.81723628033719e-05 -0.000217500481554178 -0.0018895321493905 -0.000266002727008344 3.40258956657296e-05 -4.79659843880671e-05 -0.00115527713181618 -3.86244887124242e-05 0.00152352203187152 4.2294399225076e-05
"278" -0.000146992334188844 1.96144146003124e-05 0.000100337188644317 -6.16330641348239e-05 -0.000146083548851073 -0.000498695437782617 -1.46063897916241e-05 -0.000238124347136531 -0.00219031885647757 -0.000266205277139186 3.48026561085943e-05 -5.64072016438124e-05 -0.00114647867371472 -4.09430891787728e-05 0.000831402019604824 4.19248681478991e-05
"279" -0.000182668122718045 8.79259602869681e-06 6.7336508957089e-05 -6.87320611436554e-05 -0.000166049327848713 -0.000506668808582022 -4.79880944270514e-05 -0.00025832256353988 -0.00247969166652336 -0.000266534998530133 3.52680000939837e-05 -6.50319052195382e-05 -0.00112913380104899 -4.32285230439526e-05 0.000137321971875562 4.1565249275992e-05
"280" -0.000218055143165852 -1.7011114806219e-06 3.38938564066833e-05 -7.64686819240785e-05 -0.000186743996558491 -0.000514905515561216 -8.17071534493368e-05 -0.000277934643509959 -0.00275614538140631 -0.000267027261743555 3.54051775764463e-05 -7.37984044590831e-05 -0.00110353610788976 -4.54610870214259e-05 -0.000551735163114067 4.1227814433273e-05
"281" -0.000252864016847409 -1.17479755394388e-05 2.24693343182034e-07 -8.47846852485308e-05 -0.000208086148637037 -0.000523361173112814 -0.000115492000426057 -0.000296807900701427 -0.00301819838851926 -0.000267722870128165 3.52026483342247e-05 -8.26634839378082e-05 -0.00107003943445031 -4.76203527094849e-05 -0.00122927176845578 4.09209441434653e-05
"282" -0.000286817811229714 -2.1230374830809e-05 -3.34553321958052e-05 -9.3610953410072e-05 -0.000229993952766454 -0.00053199093362041 -0.000149072622202453 -0.000314795579075584 -0.00326440670446746 -0.000268658308223143 3.46526073928357e-05 -9.15780096418272e-05 -0.00102906435828028 -4.96869039294813e-05 -0.00188934900612268 4.06545660140413e-05
"283" -0.00031963095415607 -3.00347951855068e-05 -6.69335056674041e-05 -0.000102871081657096 -0.000252378950575576 -0.000540742952632352 -0.000182172059784671 -0.000331757436030396 -0.00349337680182336 -0.000269867540181585 3.37555641597938e-05 -0.000100492892595248 -0.000981080932510409 -5.1649210359598e-05 -0.00252660499704042 4.0437487898008e-05
"284" -0.000351031375821019 -3.80599934980304e-05 -9.99932199721821e-05 -0.000112489831596981 -0.00027513605222133 -0.000549563179662389 -0.000214516919700118 -0.000347555425448179 -0.00370379295690144 -0.000271379031068295 3.25138368139258e-05 -0.000109357761643376 -0.000926618086551037 -5.34877173402803e-05 -0.00313624853093268 4.02718202666197e-05
"285" -0.000380747304840763 -4.52057242039542e-05 -0.000132420739775043 -0.000122376100566589 -0.00029815771486375 -0.000558392168779353 -0.000245835118560387 -0.000362065661647287 -0.00389443180246088 -0.000273207269003305 3.09388812267484e-05 -0.000118121121715911 -0.000866246922841723 -5.51948826438343e-05 -0.00371408496249187 4.01695936534948e-05
"286" -0.000408521948917696 -5.13834385927994e-05 -0.000164013340143955 -0.000132447122532683 -0.000321340421210103 -0.000567169242306781 -0.000275864140774741 -0.000375170383637971 -0.00406417502899311 -0.000275378668595672 2.90455159944095e-05 -0.000126731334412224 -0.000800581167102969 -5.67568031184351e-05 -0.00425646501484237 4.01335227804048e-05
"287" -0.000434111231957723 -5.65156983509733e-05 -0.000194568546316216 -0.000142606600936936 -0.000344565516799189 -0.000575836085013379 -0.000304344021321421 -0.000386760235866781 -0.00421204639477724 -0.000277900949467514 2.68561041264691e-05 -0.000135136875367296 -0.0007302695146587 -5.81654412335896e-05 -0.00476028096362648 4.01653618279017e-05
"288" -0.000457286783821173 -6.0530453274614e-05 -0.000223895557534526 -0.000152767689730937 -0.000367712740291593 -0.000584324917654904 -0.000331032676071938 -0.000396743009099031 -0.0043372196242414 -0.000280779205705669 2.43906601033281e-05 -0.000143282221724835 -0.000655992070223958 -5.94146707836249e-05 -0.00522293709666501 4.02709960359123e-05
"289" -0.000477834289301365 -6.33697352860764e-05 -0.000251809193869628 -0.000162829758599615 -0.000390661320853465 -0.000592569985268183 -0.000355698453000934 -0.000405030800248652 -0.00443903258272677 -0.000284011302685656 2.16802754907567e-05 -0.0001511193979012 -0.000578451816704717 -6.04985221376429e-05 -0.00564229807648135 4.04523369144326e-05
"290" -0.000495557949677292 -6.49892096319174e-05 -0.000278132543401959 -0.000172700865432869 -0.000413285931086852 -0.000600508697356008 -0.000378124262857624 -0.000411551377410748 -0.00451701612733327 -0.000287591615441051 1.8752043946687e-05 -0.000158597277381863 -0.00049837555798907 -6.14152054182778e-05 -0.0060166716823753 4.07073920666825e-05
"291" -0.000510283948896801 -6.5354544339357e-05 -0.000302706552415064 -0.000182289202473021 -0.000435454665980594 -0.000608069186329898 -0.000398107495561773 -0.000416243418793574 -0.00457088762361465 -0.000291504840419405 1.56449736663764e-05 -0.000165668889754549 -0.000416495632329311 -6.21673499331171e-05 -0.0063447513615334 4.10379542277064e-05
"292" -0.000521866037773971 -6.44407701377157e-05 -0.000325378517079967 -0.000191498439816844 -0.000457045524459169 -0.000615187081473612 -0.0004154742936095 -0.000419066250182325 -0.00460055980872862 -0.000295732306570305 1.23946726611149e-05 -0.00017228613296383 -0.000333557888804522 -6.27498481461718e-05 -0.00662559116331891 4.14416500432375e-05
"293" -0.000530173446241158 -6.22388560528846e-05 -0.000346014573052021 -0.000200243276682489 -0.00047793203772311 -0.000621796830067425 -0.000430064419679837 -0.000419985240483353 -0.00460613784631335 -0.000300245244489799 9.03700202461942e-06 -0.000178407802619088 -0.000250306640856741 -6.31683330575983e-05 -0.0068585649561046 4.19161145276635e-05
"294" -0.000535105356294989 -5.87538133823452e-05 -0.000364488608756479 -0.000208433934862634 -0.000497985427909303 -0.000627834728997403 -0.000441740378196579 -0.000418980983335147 -0.00458792507650847 -0.000305011620922506 5.61451650871697e-06 -0.000183991427743612 -0.000167481260394102 -6.34274511649492e-05 -0.00704333474427772 4.24590914440575e-05
"295" -0.000536590650617203 -5.40008229375157e-05 -0.000380697099324684 -0.000215991345301819 -0.000517090765243856 -0.000633237945539425 -0.00045039492124289 -0.000416055531576425 -0.00454639760343862 -0.000309991549995094 2.16644333812449e-06 -0.000189000219456211 -8.58103170492915e-05 -6.35329979679484e-05 -0.00717980907238621 4.30663538585479e-05
"296" -0.00053458211622257 -4.80069112745439e-05 -0.000394550680606051 -0.000222837104132013 -0.000535125629732071 -0.000637948794558397 -0.000455941881788214 -0.000411218539299598 -0.00448220286973129 -0.000315141719793921 -1.26554573874002e-06 -0.000193403858692209 -6.00378185307058e-06 -6.34889431237071e-05 -0.00726812952739477 4.37324494826668e-05
"297" -0.000529065672302096 -4.08149562218115e-05 -0.000405971614189185 -0.000228904458822086 -0.000551981169998586 -0.000641907053677973 -0.000458322957852334 -0.000404497840671703 -0.00439613528948517 -0.000320414702569361 -4.64398805052131e-06 -0.000197169912709629 7.12493051143463e-05 -6.33009188760271e-05 -0.00730862799849963 4.44528750305037e-05
"298" -0.000520054045579401 -3.24781911937798e-05 -0.000414911908973032 -0.000234123308349514 -0.000567549856164802 -0.000645062159279371 -0.000457510268199847 -0.00039593756975956 -0.00428911479766193 -0.000325753374364395 -7.92996967129328e-06 -0.000200277411081987 0.000145296723933004 -6.29851632357772e-05 -0.00730182736154962 4.52187912218259e-05
"299" -0.000507588089902206 -2.30622197022341e-05 -0.00042132996341745 -0.000238440981820157 -0.000581734933929733 -0.000647362086148267 -0.000453500165693447 -0.000385591315118672 -0.00416215584592331 -0.000331104519867711 -1.10837854338497e-05 -0.000202704131657275 0.000215510774544881 -6.25434259306125e-05 -0.00724840339126723 4.60269935481971e-05
"300" -0.00049174594688901 -1.26415040849719e-05 -0.000425210045709188 -0.000241808063953101 -0.000594451294695674 -0.000648764870664466 -0.000446320519868018 -0.000373537223627622 -0.00401636423896696 -0.000336402457957489 -1.40742464293131e-05 -0.000204437656826062 0.000281311278798785 -6.19872796280521e-05 -0.00714917792950603 4.6869717784707e-05
"301" -0.000472622874147788 -1.30391036835143e-06 -0.000426551174679538 -0.000244183979869526 -0.000605612854485793 -0.000649231946643527 -0.000436026705292348 -0.000359855551093775 -0.00385290777264812 -0.000341587455982849 -1.68646053892094e-05 -0.000205469101533997 0.000342164345025344 -6.13299057554871e-05 -0.00700511122954966 4.77392051722865e-05
"302" -0.000450363215233002 1.08564783608558e-05 -0.000425377309399295 -0.000245537402123188 -0.000615159103868534 -0.000648725334478428 -0.000422705964300253 -0.000344648888611588 -0.00367298827770251 -0.000346589560899275 -1.94299236760019e-05 -0.000205792412598535 0.000397581681644367 -6.05783573529536e-05 -0.00681730045063374 4.86264627451931e-05
"303" -0.000425124742721538 2.37324817052815e-05 -0.000421729379068555 -0.000245842050259458 -0.000623028830193463 -0.000647219573109603 -0.00040647388805765 -0.000328029872045488 -0.00347784197782539 -0.000351347629288874 -2.17436005595504e-05 -0.000205411850975754 0.000447134770155479 -5.97454510933567e-05 -0.00658697028586982 4.95268473837953e-05
"304" -0.000397095360184866 3.72133472143455e-05 -0.000415661030046768 -0.000245092133462337 -0.00062918267216389 -0.000644692214716063 -0.000387467154670437 -0.000310124800804748 -0.00326872089691318 -0.000355793078399789 -2.37802807013939e-05 -0.000204330000998863 0.000490456042095823 -5.88392860316582e-05 -0.00631548332262585 5.04320726436085e-05
"305" -0.000366495486086358 5.11798744779392e-05 -0.000407254723059107 -0.000243279212117964 -0.000633591911762935 -0.000641129635760254 -0.000365859423550956 -0.000291072894833665 -0.00304686504087795 -0.000359859376523601 -2.55236392600135e-05 -0.000202562762624687 0.000527232197156687 -5.78723175024825e-05 -0.00600434165191214 5.13353694753819e-05
"306" -0.000333568993588769 6.55054417582346e-05 -0.000396600679882157 -0.000240411666950268 -0.000636236731656272 -0.000636522081727511 -0.000341843581945411 -0.000271015349421654 -0.00281351408274573 -0.000363480787072283 -2.69561599797685e-05 -0.000200126367213431 0.000557224963139398 -5.68521587550784e-05 -0.00565519598692861 5.22271280361573e-05
"307" -0.000298579618598279 8.00597046232646e-05 -0.00038380899058631 -0.000236512893882512 -0.000637110793388366 -0.000630870110076161 -0.000315635771982612 -0.000250110146022771 -0.00256988688186425 -0.000366594550033422 -2.80721500558933e-05 -0.000197043839669303 0.000580253970362265 -5.57860708268731e-05 -0.00526986104130783 5.31023435374372e-05
"308" -0.000261811982072593 9.47140048164446e-05 -0.000369015234390304 -0.00023160364174028 -0.000636236054729653 -0.00062417865555856 -0.00028748103199953 -0.00022852201600724 -0.00231718934656354 -0.000369140603680744 -2.88618018145702e-05 -0.000193342493461439 0.000596217008738903 -5.46903634189265e-05 -0.00485032819075457 5.39522848262431e-05
"309" -0.000223575978357828 0.00010932569409746 -0.000352355299370482 -0.000225729514134872 -0.000633632568162472 -0.000616467474251965 -0.000257636294626838 -0.000206419770018387 -0.00205660834587661 -0.000371064651685664 -2.93271392956362e-05 -0.000189055670863383 0.00060507404231754 -5.35652822201765e-05 -0.00439878851796674 5.47730136409205e-05
"310" -0.00018419054984011 0.000123768583772081 -0.000333994091462169 -0.000218930571624489 -0.000629341630191086 -0.000607751628442321 -0.000226381226033145 -0.000183977365390753 -0.00178931133384773 -0.000372311517762181 -2.94645720445187e-05 -0.000184219497590168 0.000606859539987133 -5.24262183739764e-05 -0.0039176551199768 5.55578251450383e-05
"311" -0.000143989591291668 0.000137901533158471 -0.000314090415180345 -0.000211271626329838 -0.00062342022385304 -0.000598067266858043 -0.000194010773923339 -0.000161373358465095 -0.00151645380081181 -0.000372834926035278 -2.92829505087464e-05 -0.00017887303633438 0.00060167384580225 -5.12750715954216e-05 -0.00340957575878373 5.63011128764299e-05
"312" -0.000103313877587645 0.000151591424989384 -0.000292834793223226 -0.00020281675881305 -0.000615939944361557 -0.000587451654349451 -0.000160830906467046 -0.000138787961037214 -0.00123918495003336 -0.000372594797593142 -2.87935021480698e-05 -0.000173065362343936 0.000589683895619699 -5.01203385822021e-05 -0.00287746885527929 5.69980562225751e-05
"313" -6.25138574954579e-05 0.000164710764125654 -0.000270411867488739 -0.000193643034011659 -0.00060698199287951 -0.000575946934055839 -0.000127155521601271 -0.000116398100145658 -0.000958646014071982 -0.000371555005263613 -2.80089950337955e-05 -0.000166842196298043 0.000571121582051737 -4.89661225875937e-05 -0.00232454325005619 5.76435107026223e-05
"314" -2.19408556780503e-05 0.00017713347212622 -0.000247017329693175 -0.000183832703088603 -0.000596640643331479 -0.000563611371059801 -9.33080092684439e-05 -9.43812462171e-05 -0.00067598059621342 -0.000369687011852372 -2.69436829761398e-05 -0.000160254691245199 0.000546282797771064 -4.78196459663787e-05 -0.00175431499753839 5.82354497890365e-05
"315" 1.80548186433869e-05 0.000188738822505685 -0.000222857283745644 -0.000173476651727864 -0.000585025243700365 -0.000550501264852709 -5.9612819962938e-05 -7.29092942919966e-05 -0.000392334507566894 -0.000366968146119833 -2.5620003534248e-05 -0.000153358019520278 0.000515513163830446 -4.66848786418453e-05 -0.00117064064017841 5.87674438667757e-05
"316" 5.71281902717229e-05 0.000199415855065526 -0.000198136247675703 -0.000162674306157379 -0.000572253205572551 -0.000536686026377055 -2.63925946687561e-05 -5.21522880466643e-05 -0.000108873306548359 -0.000363390261584523 -2.40571980677279e-05 -0.000146206770533592 0.000479218104949542 -4.55656494446791e-05 -0.000577712190797452 5.9239001821214e-05
"317" 9.49411687158151e-05 0.000209057003535833 -0.00017306408845463 -0.000151528183613971 -0.000558451281545972 -0.000522239088960468 6.03269897184344e-06 -3.2263922734247e-05 0.000173218625902354 -0.00035894118063709 -2.22826798930509e-05 -0.000138856857821887 0.000437845262997309 -4.44634698147145e-05 1.9912946581226e-05 5.96472597857371e-05
"318" 0.000131170595734422 0.000217570584468862 -0.000147847349507064 -0.000140145616779307 -0.00054375916285164 -0.000507240161116626 3.73485906022656e-05 -1.33983035748309e-05 0.000452737924465715 -0.000353627071451564 -2.03172211508899e-05 -0.000131368131637124 0.000391879338823248 -4.33838078245629e-05 0.000617338081026746 5.99930769178565e-05
"319" 0.000165507370511277 0.000224866469409563 -0.000122689791126497 -0.000128635432222819 -0.000528316303438254 -0.000491773577519751 6.72568849851509e-05 4.30989110706278e-06 0.00072845795677716 -0.000347458825482798 -1.81902645908377e-05 -0.000123798642212543 0.000341845578522576 -4.23266011635272e-05 0.00120931795097685 6.02694483977197e-05
"320" 0.000197656642728544 0.000230875449739951 -9.77987175705169e-05 -0.000117114238753926 -0.000512282910895113 -0.00047592919566889 9.5465896233916e-05 2.0728096558601e-05 0.000999125286402009 -0.000340454878642858 -1.59343549538237e-05 -0.000116203905730718 0.000288298118038122 -4.12961961121541e-05 0.00179029070772307 6.04829065856772e-05
"321" 0.000227356644125768 0.000235531311716441 -7.33628621475979e-05 -0.000105692310124773 -0.000495804629680098 -0.00045980038332312 0.000121710088326349 3.5748452156536e-05 0.0012634511085877 -0.000332641858054415 -1.35715005395972e-05 -0.000108644044338597 0.000231811221065098 -4.02934828547557e-05 0.00235443825998523 6.06269560505924e-05
"322" 0.000254356683719888 0.000238787775293258 -4.95733156944557e-05 -9.44826201161479e-05 -0.000479043665166415 -0.000443484571699452 0.000145734532686583 4.92733962413974e-05 0.0015201300548001 -0.000324053616113116 -1.11345666878878e-05 -0.000101174044142841 0.000172971110964653 -3.9319458173591e-05 0.00289573106649115 6.0705675769261e-05
"323" 0.000278443835694504 0.000240602411521504 -2.66012786033051e-05 -8.36031568435738e-05 -0.00046215314949468 -0.000427078601985304 0.000167315824631718 6.12254104178454e-05 0.00176783181277092 -0.000314736930238292 -8.65067864758676e-06 -9.38482918938615e-05 0.000112379747891145 -3.83729812314037e-05 0.00340802973883381 6.07185105162925e-05
"324" 0.000299432925101543 0.000240954944075524 -4.62340853096937e-06 -7.31556749101801e-05 -0.000445300153651095 -0.000410684293874661 0.000186249995610399 7.15374416525754e-05 0.00200522074949422 -0.000304739483257722 -6.14990738305391e-06 -8.67167389185929e-05 5.06368556257647e-05 -3.74603868753219e-05 0.00388519145741186 6.06684925955035e-05
"325" 0.000317168919117152 0.000239836014619068 1.62177002716691e-05 -6.32500386547853e-05 -0.000428640014543895 -0.000394402600687138 0.000202366761385867 8.01706952333793e-05 0.00223095331348713 -0.000294119365806803 -3.65724419815257e-06 -7.98304078619484e-05 -1.16578013242289e-05 -3.65780408305377e-05 0.00432119400543387 6.05551011549068e-05
"326" 0.000331531077953445 0.000237247695562766 3.57841983254992e-05 -5.39849008600385e-05 -0.000412318000678053 -0.000378334223038937 0.000215519707063851 8.70992275165073e-05 0.0024436904785429 -0.000282941129738812 -1.19816907538065e-06 -7.32336483729627e-05 -7.39156739850497e-05 -3.57260971765432e-05 0.0047102855782938 6.03806247164197e-05
"327" 0.000342430943545336 0.000233207903791272 5.39478754589828e-05 -4.54528771588512e-05 -0.000396496851920897 -0.000362575614159116 0.000225596389163716 9.23145478138873e-05 0.00264212622133613 -0.000271274529246504 1.20229292779609e-06 -6.69712116700575e-05 -0.000135564407920143 -3.49083370885455e-05 0.00504713729221878 6.0149927186888e-05
"328" 0.000349819365587886 0.000227745472288337 7.06096195657812e-05 -3.77431254024203e-05 -0.00038130689179688 -0.000347224554507826 0.000232520336925543 9.58384935385211e-05 0.00282497737932628 -0.00025919305369744 3.52626421589148e-06 -6.10770896485364e-05 -0.000196045622550079 -3.41226994057878e-05 0.00532700134964603 5.98615013837008e-05
"329" 0.000353679901326976 0.000220908015601868 8.56816697671665e-05 -3.09278715919141e-05 -0.000366884393236721 -0.000332374198207703 0.000236241483491598 9.77005587883045e-05 0.00299103402694985 -0.000246776478939546 5.74800958544456e-06 -5.55892060513044e-05 -0.000254833408192394 -3.33729834154691e-05 0.00554588197768066 5.95211431507064e-05
"330" 0.000354028930754414 0.000212747650003457 9.90987795870956e-05 -2.50785924350187e-05 -0.000353353882867871 -0.000318115784574854 0.000236751381274916 9.79535238460146e-05 0.00313915182063255 -0.000234110359979694 7.85378854074875e-06 -5.05348960007334e-05 -0.000311423194762697 -3.2660902315852e-05 0.00570066564458457 5.91331366542056e-05
"331" 0.000350923204674489 0.000203334778538444 0.000110808455116247 -2.025524945084e-05 -0.00034083225639674 -0.00030452821132153 0.000234065721250114 9.66751099014285e-05 0.00326828320577265 -0.000221279295808135 9.82835719684092e-06 -4.59406221319011e-05 -0.000365346456571059 -3.19840037724959e-05 0.0057892437501408 5.86976905503286e-05
"332" 0.000344451560297579 0.000192745552050524 0.000120784742527212 -1.65000332141983e-05 -0.000329415481327667 -0.000291689393228391 0.00022824400603278 9.39514150272598e-05 0.00337750234859875 -0.000208373926825868 1.16623965540084e-05 -4.18260607419996e-05 -0.000416168217005314 -3.13464098189264e-05 0.00581059842338618 5.82203299586613e-05
"333" 0.000334730294129491 0.000181077737401493 0.000129016139862804 -1.38512070519487e-05 -0.000319193489008734 -0.000279674659361075 0.000219369021303285 8.98947174988447e-05 0.00346602217860346 -0.000195479089790844 1.33426996253234e-05 -3.82049223736728e-05 -0.000463494299148045 -3.07485389589313e-05 0.00576484676138843 5.770522689426e-05
"334" 0.000321915104941482 0.000168422511602387 0.000135515957462815 -1.23324331625746e-05 -0.000310239415074505 -0.000268541944966026 0.000207563040113747 8.46253543980199e-05 0.003533214935452 -0.000182690150382419 1.48676751844582e-05 -3.50883228395218e-05 -0.000506967365933865 -3.0189861902641e-05 0.00565324502646813 5.71541175687272e-05
"335" 0.00030618233275486 0.000154894096767674 0.000140309017576241 -1.1955478807124e-05 -0.000302616042135371 -0.000258346135966464 0.0001929716342729 7.82832164939256e-05 0.00357863023035175 -0.000170093736093157 1.62306196077535e-05 -3.24836461750253e-05 -0.000546270459040053 -2.96739946869077e-05 0.00547813419991915 5.657257213664e-05
"336" 0.000287737208323326 0.00014060668109386 0.000143446664034216 -1.27217231730096e-05 -0.000296361090566766 -0.000249134125558828 0.00017577772352274 7.10222300423821e-05 0.00360200989013461 -0.000157778724707954 1.74316600107141e-05 -3.03864404595137e-05 -0.000581136491159731 -2.9204526026441e-05 0.00524286804446267 5.59659442147437e-05
"337" 0.000266814331409564 0.000125679644157426 0.000144989225424355 -1.46153228142299e-05 -0.000291506348575905 -0.000240943865378274 0.000156176322192452 6.30014870181691e-05 0.00360330330533359 -0.000145830201703658 1.84756749520543e-05 -2.87961338236646e-05 -0.000611333452693152 -2.87821683952613e-05 0.0049516812512336 5.53359405834772e-05
"338" 0.000243664130733653 0.000110241698678792 0.000145025375102478 -1.76141869596317e-05 -0.000288062352171356 -0.000233796652345422 0.000134400682482547 5.43965980345433e-05 0.00358267975909279 -0.000134332644063724 1.93660495724353e-05 -2.77021093952638e-05 -0.000636677336340439 -2.84044926444874e-05 0.00460954325015297 5.4687729345975e-05
"339" 0.000218555230635246 9.44244784032635e-05 0.000143644268212897 -2.16814542299509e-05 -0.000286022796090188 -0.000227709781060058 0.000110695017708826 4.53851975881874e-05 0.00354053418221441 -0.000123363268238817 2.01096115810665e-05 -2.70902717567959e-05 -0.00065702588514325 -2.8076034869073e-05 0.00422198817002774 5.40255385468809e-05
"340" 0.00019177652413967 7.83591334123035e-05 0.000140967833195206 -2.67720535941985e-05 -0.000285363669158432 -0.000222687099469876 8.53309477012089e-05 3.61581630356433e-05 0.00347747556838877 -0.000112993029333049 2.0718672050209e-05 -2.69451412385972e-05 -0.000672281923183625 -2.78019870343821e-05 0.00379495300658311 5.33545587215952e-05
"341" 0.00016362277793829 6.21822465582618e-05 0.000137110661095151 -3.28267020007179e-05 -0.000286057289287469 -0.000218726982806221 5.85848303526142e-05 2.68986476490051e-05 0.00339434405701434 -0.000103296872562587 2.12023076413036e-05 -2.72420160379954e-05 -0.000682389190989752 -2.75810824439769e-05 0.00333460014173934 5.26801046527776e-05
"342" 0.000134404956812217 4.60262481236722e-05 0.000132217460111534 -3.97772729646167e-05 -0.000288041237336069 -0.000215814641053366 3.07553826763244e-05 1.78029310873897e-05 0.00329218074377625 -9.43329001774278e-05 2.15760834798387e-05 -2.79581130945802e-05 -0.000687333372527041 -2.74123393990314e-05 0.00284716032000315 5.20030165093039e-05
"343" 0.000104432643423753 3.00249718265905e-05 0.000126430067431134 -4.75463354502443e-05 -0.000291250926002907 -0.000213918893345769 2.1465667693384e-06 9.05567801221978e-06 0.00317223067593117 -8.61577782301673e-05 2.1855879801883e-05 -2.90637739521488e-05 -0.000687140009568133 -2.72988459487701e-05 0.00233879139800192 5.13290523876505e-05
"344" 7.40283174766835e-05 1.43105611857248e-05 0.000119904736880244 -5.60531746485852e-05 -0.000295602940321577 -0.000213009520948169 -2.69305334955682e-05 8.49536929650713e-07 0.0030359112594303 -7.88220645501117e-05 2.20559709942754e-05 -3.05284903200068e-05 -0.000681871663483667 -2.72444590687597e-05 0.00181547696771345 5.0661526277915e-05
"345" 4.35042947318643e-05 -9.90664451972149e-07 0.000112801948188448 -6.5200711502173e-05 -0.000301004422669282 -0.000213037656131986 -5.61615173211882e-05 -6.63650882179159e-06 0.00288480543530797 -7.23619303780677e-05 2.21950178359674e-05 -3.23173200128885e-05 -0.00067162892168092 -2.72455312496785e-05 0.00128291343763393 5.00077192202577e-05
