"V1" "V2" "V4" "V5" "V7" "V8" "V10" "V11" "V13" "V14" "V15" "V17" "V18" "V20" "V21" "V23"
"1" 0.000447459465517556 -0.000172439999902914 0.000406564402091939 -6.15995168420804e-05 1.15634239530969e-06 1.16314545565962e-05 0.000288852646348913 0.000146505030140594 0.000280805957558144 7.76538766051898e-05 0.000430303385248506 0.000363163115168309 0.000529466442569782 -0.000409080308382317 0.000169411322093329 -1.09644024844274e-06
"2" 0.000455772476265994 -0.000166731442072497 0.000431186073604464 -3.33553725715913e-05 1.17641994980317e-05 -3.05468511254296e-05 0.00028683290246445 0.000125901333893516 0.000316275812484519 0.000108492952439112 0.000456432762572083 0.0003666081794614 0.000525150707806246 -0.00044354018403218 -2.46029086465934e-05 1.68133624548277e-05
"3" 0.000464711361860783 -0.000160835753551716 0.000454582868818698 -5.8465109061085e-06 2.30143723373759e-05 -7.24252944483242e-05 0.000284812997510877 0.000106444284006815 0.000350607471643672 0.000139528753624131 0.000481791337443779 0.000370405979357834 0.000521926210480092 -0.000478701273688137 -0.000222885057011793 3.476485842294e-05
"4" 0.000474232630859379 -0.000154797155505635 0.000476591993272574 2.077888521131e-05 3.48258957491962e-05 -0.00011380564760196 0.000282741019413072 8.80603151387467e-05 0.00038362370590251 0.000170593809541324 0.000506205381145398 0.000374571522551648 0.000519808257271681 -0.000514472739995784 -0.000423916925603422 5.26259854313096e-05
"5" 0.000484302741438899 -0.000148657790346919 0.00049708332070808 4.63834944065151e-05 4.712000630808e-05 -0.000154502536133708 0.000280563954610546 7.0667510472471e-05 0.000415156107423126 0.000201514539570134 0.000529504753196706 0.000379110780052935 0.000518799090017059 -0.000550747375499545 -0.00062619167462004 7.02538503357843e-05
"6" 0.000494869441744741 -0.000142454954181488 0.00051593567043371 7.08401970275906e-05 5.98137003199985e-05 -0.000194334822920162 0.000278234328577042 5.41761042991746e-05 0.000445048801076264 0.000232120480713715 0.000551528522944421 0.000384028494388473 0.000518882763035263 -0.000587417638186872 -0.000828225314568174 8.75159291068963e-05
"7" 0.00050588756334454 -0.000136229119938628 0.000533049593771993 9.40342360367348e-05 7.28252981226033e-05 -0.000233129517452415 0.000275703926479743 3.84973048477067e-05 0.000473153017168039 0.000262241038725593 0.000572128734688825 0.000389325252455275 0.000520031617820453 -0.000624355120726831 -0.00102858587084268 0.000104272281326492
"8" 0.000517302005327229 -0.000130011965525202 0.000548351071792938 0.000115864697287177 8.60715735295961e-05 -0.000270726806656468 0.000272928750563696 2.3540745648108e-05 0.000499332187596986 0.000291709341184732 0.000591159542828079 0.000394988121980555 0.000522197596030043 -0.000661430548610181 -0.00122589986548935 0.000120393494235062
"9" 0.00052905533411682 -0.000123835043059909 0.000561782205975246 0.000136244977006343 9.94719140989835e-05 -0.000306974743269955 0.000269866212531831 9.20936148612128e-06 0.000523462770031982 0.00032035774087846 0.000608493605021256 0.000401007851905412 0.00052532979263439 -0.000698499536212813 -0.00141886505523175 0.000135742300799362
"10" 0.000541082568707669 -0.000117727669242233 0.000573307948502204 0.000155095688751642 0.000112944954231716 -0.000341730327003025 0.000266473761046707 -4.59015158911711e-06 0.00054542394911319 0.000348022738855857 0.000624007152896965 0.000407356846634549 0.000529349212340931 -0.000735392112883292 -0.0016062516435973 0.000150189531748282
"11" 0.000553316745524696 -0.000111714519436199 0.000582910355699217 0.000172358007966204 0.000126405788110315 -0.000374866610030837 0.000262718763694279 -1.79489338142909e-05 0.00056511488604523 0.000374549040199888 0.00063759195806265 0.000414009044836707 0.000534171729639741 -0.000771949177569648 -0.00178691968284767 0.000163613234462134
"12" 0.000565688677493139 -0.000105817107381878 0.000590593362886902 0.000187982191101965 0.000139779809778445 -0.000406267115774439 0.000258568315108256 -3.09569660948964e-05 0.000582441189421389 0.000399782724331731 0.000649153653344457 0.000420926736560628 0.000539700642615448 -0.000807984852701666 -0.00195981478122201 0.000175893361690379
"13" 0.000578123786531323 -0.000100060110890046 0.000596374385591146 0.000201931968823024 0.000152984420023932 -0.000435831599267209 0.000253990199321697 -4.3701589349637e-05 0.000597319696473782 0.00042357908613232 0.000658600013283034 0.000428065153359134 0.000545825400170635 -0.000843307466534743 -0.00212397466440602 0.000186911718246261
"14" 0.000590533459327421 -9.44599850727359e-05 0.000600296175685128 0.00021418477776743 0.000165943696567313 -0.0004634681114954 0.000248957911379963 -5.62641121114463e-05 0.000609677338586429 0.000445799023904447 0.000665864844134851 0.000435371085353416 0.000552425324810532 -0.000877705921894897 -0.00227853194711677 0.000196563712903792
"15" 0.000602831426811338 -8.90344249823813e-05 0.000602398573805152 0.000224726433912982 0.000178580404488353 -0.000489107430490484 0.000243442844907929 -6.87186993977072e-05 0.000619446449988035 0.000466308710710875 0.000670880002907724 0.000442786258918548 0.000559365859707677 -0.000910953608442477 -0.00242270313651935 0.000204746941664657
"16" 0.000614935247217883 -8.37994640369282e-05 0.000602756958525385 0.000233559191856415 0.000190821746014379 -0.000512689141343445 0.000237432064451638 -8.11383565668973e-05 0.000626582984310526 0.000484993090189516 0.00067359969164713 0.000450244286120489 0.000566517439902901 -0.000942841313112187 -0.00255580432122734 0.000211369778442155
"17" 0.00062674273774383 -7.87681247115493e-05 0.000601442972467013 0.000240691051337046 0.000202594900099419 -0.000534173281396934 0.000230897489327855 -9.35810374020639e-05 0.000631036584835617 0.000501735923090394 0.0006739857207224 0.000457669723219795 0.000573728537059226 -0.000973115938199238 -0.00267723442309475 0.000216348068887553
"18" 0.00063815811826555 -7.39560796850933e-05 0.000598544341174933 0.000246142037071009 0.000213829576109304 -0.00055352748429413 0.000223831876241434 -0.000106098996601707 0.000632780508386623 0.000516440310062824 0.000672013899890759 0.00046498523171915 0.000580853442613726 -0.00100154436444638 -0.0027864729043523 0.000219609633395028
"19" 0.000649080062370321 -6.93756020952678e-05 0.000594155819493908 0.000249943450663219 0.00022445973286535 -0.000570746477460196 0.00021621938794625 -0.000118735635363753 0.000631791254358798 0.000529018491736468 0.000667670199275981 0.00047210444171516 0.000587736866571974 -0.00102787818910813 -0.00288308863859127 0.000221088339060226
"20" 0.000659402678531168 -6.50403422781937e-05 0.000588381374141233 0.000252130250979918 0.000234419163039997 -0.000585830110281052 0.000208049630048117 -0.000131526225431447 0.00062805345318803 0.00053939147762364 0.000660955430851843 0.000478937124269282 0.000594230977942945 -0.00105186833653473 -0.00296672418796288 0.000220731386023607
"21" 0.000669026595611936 -6.0962085260284e-05 0.000581326639212854 0.000252748733086831 0.000243648582339075 -0.000598805696613235 0.000199315676578349 -0.000144492105648224 0.000621571672181432 0.00054749968722951 0.000651882901314719 0.000485392603602548 0.000600179296364721 -0.00107327725547199 -0.00303710315335588 0.000218501512811977
"22" 0.000677839701659839 -5.71521866677602e-05 0.000573103629612771 0.000251851261609812 0.00025208825773414 -0.000609707310063336 0.000190012595023026 -0.00015764856075257 0.000612353630857467 0.000553296815020613 0.00064047494615689 0.000491373960773696 0.000605437942117827 -0.00109186327519613 -0.00309402415560124 0.000214369003919245
"23" 0.000685736801559186 -5.36254924231241e-05 0.000563820967105162 0.000249494413106953 0.000259686375348076 -0.000618586579434872 0.000180140707925123 -0.000170994068515503 0.000600418227304386 0.000556748047526523 0.000626770512284055 0.000496785025411365 0.000609861926268142 -0.00110740010877548 -0.00313736512767787 0.000208321000169653
"24" 0.000692617283067501 -5.03964327551611e-05 0.000553593328456149 0.000245739289325855 0.00026638827487189 -0.000625512891051283 0.000169699214069445 -0.000184523442288707 0.000585802711450862 0.000557840439044761 0.000610817725395926 0.000501530766592749 0.000613318870749533 -0.00111966901929188 -0.00316707503059453 0.000200355674653431
"25" 0.000698379470969018 -4.74795152864166e-05 0.000542532934844421 0.000240656076538955 0.000272152267823284 -0.000630570120140443 0.00015868881043122 -0.00019821871393833 0.000568548534694947 0.000556571174870708 0.000592679512045384 0.000505514765723501 0.000615681426076705 -0.00112847722568086 -0.00318318336217976 0.000190487793738339
"26" 0.000702923508700602 -4.48887056261072e-05 0.000530746311289641 0.000234309457595318 0.000276935391299453 -0.000633854240207369 0.000147125109098148 -0.000212049688520655 0.00054871570954449 0.000552959364100389 0.000572432870368631 0.000508650962018001 0.000616843988776749 -0.00113364966803516 -0.00318579096800542 0.000178749786711003
"27" 0.000706157689200566 -4.26409380696081e-05 0.000518339864724577 0.000226778189887898 0.000280700624516683 -0.000635477866754284 0.000135008836422997 -0.000225984597869261 0.000526380515822047 0.000547039843834293 0.00055016266162754 0.000510851070254571 0.000616700780004752 -0.0011350427326123 -0.00317507744266337 0.000165184857697373
"28" 0.000707990780686503 -4.07579217405007e-05 0.00050540783895076 0.000218130782149499 0.000283420488648197 -0.000635559123642696 0.000122357394829567 -0.000239974962880632 0.000501622708960488 0.000538864366890908 0.000525969134685754 0.00051203659725627 0.000615176697184807 -0.00113253712710663 -0.00315130449451397 0.000149852524256348
"29" 0.000708351774661842 -3.92527459128658e-05 0.000492049662740123 0.00020845023827078 0.000285064885705979 -0.000634234573444389 0.00010918560615783 -0.000253968811018961 0.00047455009992155 0.000528505633601296 0.000499970329885124 0.000512142119285877 0.000612213743319075 -0.0011260602336747 -0.00311480801012268 0.000132833931213595
"30" 0.000707161184508082 -3.81482912425648e-05 0.000478345915873276 0.000197809503129426 0.000285618356599329 -0.000631647880062033 9.55089667059318e-05 -0.000267908204680983 0.000445273521349853 0.000516049320770994 0.000472284929665988 0.000511101443323614 0.000607755845100282 -0.00111556075342212 -0.00306600629977266 0.000114220610169734
"31" 0.00070435920786229 -3.74661149016974e-05 0.000464378311554669 0.000186289912431742 0.000285062128224677 -0.000627949759453475 8.13492644362273e-05 -0.000281727550127869 0.000413924968121437 0.00050160659990233 0.000443054986418848 0.000508870227003335 0.000601794953721657 -0.00110104335497159 -0.00300539274982057 9.41223429969212e-05
"32" 0.000699896883885939 -3.72255803066409e-05 0.000450213924505211 0.000173966400672175 0.000283394318095934 -0.000623300302865204 6.67297778076522e-05 -0.000295361565839206 0.000380654225840897 0.000485296753289611 0.000412425748816842 0.000505410022009924 0.00059432366907976 -0.001082550850675 -0.00293354908854471 7.2661629850004e-05
"33" 0.000693729578218316 -3.74539301404576e-05 0.000435916433005467 0.000160918856236774 0.000280609023738871 -0.000617865254114878 5.16805386058837e-05 -0.000308734240734953 0.000345619885326202 0.000467262341009724 0.000380561476752252 0.000500696728490624 0.000585366966245159 -0.0010601767112238 -0.00285112927038167 4.99796828791721e-05
"34" 0.000685831377324663 -3.81727698559012e-05 0.00042153238546184 0.000147224791165913 0.00027671374515471 -0.000611812844385918 3.62301654233313e-05 -0.000321774011028341 0.000308996623128411 0.000447659471203417 0.000347627080485066 0.000494723723349151 0.000574971699812264 -0.00103405468758018 -0.00275888720347406 2.62322449812857e-05
"35" 0.000676180547154348 -3.94046013586097e-05 0.000407102505724496 0.000132962598353373 0.000271714060281023 -0.000605314309576636 2.04055434878158e-05 -0.000334406560980779 0.000270979909761189 0.000426658051583806 0.00031380737461382 0.000487495300166197 0.00056320505515254 -0.0010043737136812 -0.00265763813031486 1.58066685862086e-06
"36" 0.000664771962854078 -4.11763174284983e-05 0.000392657792616398 0.000118202808193493 0.000265627439066276 -0.00059854071374186 4.24342046298409e-06 -0.00034656145155684 0.000231765203399216 0.000404438209094385 0.000279283985315131 0.000479031266234349 0.000550151938384305 -0.000971351304864167 -0.00254829067230461 -2.37934133181931e-05
"37" 0.000651617482075524 -4.35150126296633e-05 0.000378219901537663 0.000103023530491332 0.000258472396876251 -0.000591659294717116 -1.22190896072552e-05 -0.000358163278227535 0.000191567927477293 0.000381196995766869 0.000244256600272485 0.000469368993217661 0.000535930366761211 -0.000935267006666409 -0.00243182649707367 -4.97019229637983e-05
"38" 0.000636728174367304 -4.64445438157323e-05 0.000363792303979374 8.74971824559733e-05 0.000250276878857906 -0.000584841462954009 -2.89424091674243e-05 -0.00036914220781543 0.000150612141782991 0.000357137731434394 0.000208920498184509 0.00045855647102815 0.000520664700138942 -0.000896430708136417 -0.00230930124771878 -7.59471134770736e-05
"39" 0.000620139547856148 -4.99930810710011e-05 0.000349374593181342 7.16901341842412e-05 0.000241066283549994 -0.000578246237618902 -4.58917174556946e-05 -0.000379438671638666 0.000109123719135743 0.000332466101565464 0.000173478189754989 0.000446659718811335 0.000504502836760693 -0.000855186317524792 -0.00218184639769753 -0.000102329803773022
"40" 0.000601886114157986 -5.41828089589587e-05 0.000334956311492758 5.56749554343886e-05 0.000230877643592388 -0.000572028418927137 -6.30264508523429e-05 -0.000388992245807705 6.73408774130478e-05 0.000307398269114837 0.000138131287816128 0.000433752896043191 0.000487602272121053 -0.000811919472725977 -0.00205065375761072 -0.000128641491267111
"41" 0.000582024490563682 -5.90428056291527e-05 0.000320513627973816 3.95143084838106e-05 0.000219741350600006 -0.000566333711610634 -8.0305183354646e-05 -0.000397748179599428 2.55005765939802e-05 0.0002821488980878 0.00010308615788896 0.000419925885462584 0.000470139430500221 -0.000767026549194563 -0.00191697628165572 -0.000154674067897587
"42" 0.000560608744252623 -6.45936549246296e-05 0.000306008650246482 2.32729961095039e-05 0.000207696869227233 -0.000561299432057724 -9.76891610770845e-05 -0.000405661914555565 -1.61601931250908e-05 0.000256932676949021 6.85397448028073e-05 0.000405277712298686 0.000452292371476874 -0.000720933647695989 -0.00178211606572778 -0.00018021730536278
"43" 0.000537712525363719 -7.08604295319898e-05 0.000291405478681416 7.00905727971032e-06 0.000194785225723593 -0.000557049711884585 -0.000115136079423765 -0.000412697581544654 -5.74038543504586e-05 0.00023196242790205 3.46855064332971e-05 0.000389916802878901 0.000434250495602278 -0.000674073688085987 -0.00164740961154471 -0.000205066881631398
"44" 0.000513409722047472 -7.7867470869166e-05 0.000276650791427319 -9.21642628456157e-06 0.000181046691966899 -0.000553693578003687 -0.000132607804867707 -0.000418824335535929 -9.80023134665688e-05 0.000207440016774485 1.71629105577818e-06 0.000373961055615948 0.000416211187701698 -0.000626895367974156 -0.00151422993551932 -0.000229020708115932
"45" 0.000487785466086872 -8.56327261394784e-05 0.00026168660513701 -2.53510698323889e-05 0.000166520895904432 -0.000551331981413192 -0.000150065573930409 -0.000424025183581809 -0.000137733078080096 0.000183564450994765 -3.01969075343614e-05 0.000357526869869253 0.000398358414633123 -0.000579830386012247 -0.00138395506828486 -0.000251886708575466
"46" 0.000460928501513113 -9.4173142835189e-05 0.000246445944231755 -4.13412012520433e-05 0.000151252905195704 -0.000550044491001679 -0.000167472532779226 -0.000428288924577546 -0.000176378590085296 0.000160519768235897 -6.08789051608174e-05 0.000340745921933455 0.00038088597946361 -0.000533316765569363 -0.0012579700582295 -0.000273483021903619
"47" 0.000432933624141161 -0.000103505031274819 0.000230858806147438 -5.71378352125517e-05 0.000135278155892657 -0.000549896610201044 -0.000184797771130555 -0.000431616126223778 -0.000213743298665539 0.000138475985812825 -9.01789528160289e-05 0.000323743590603474 0.00036397178085502 -0.000487767069478957 -0.00113764093030113 -0.000293636465616441
"48" 0.000403894633684635 -0.00011364069573592 0.000214849562599238 -7.26951532953659e-05 0.000118644366571107 -0.000550936525840627 -0.000202000965449898 -0.000434016103983759 -0.000249640897322812 0.00011759040080137 -0.00011795647785815 0.000306648020313265 0.000347798650553163 -0.000443578594926836 -0.00102430699389087 -0.000312190973263291
"49" 0.000373913511756109 -0.000124590986339099 0.00019833923665501 -8.79684222414577e-05 0.000101388426850757 -0.000553197994471807 -0.000219058521909735 -0.000435511967785906 -0.000283901604008325 9.8000102939194e-05 -0.000144087244259398 0.000289587261679746 0.00033252046645821 -0.000401113581647712 -0.000919252682901745 -0.000329004565232994
"50" 0.000343098062477579 -0.000136358232281357 0.000181250048666332 -0.000102915289378553 8.35461474352403e-05 -0.000556692474546847 -0.000235941611170624 -0.000436134854262904 -0.000316375377184809 7.98288093232257e-05 -0.000168463634300234 0.000272685254438153 0.000318290107339272 -0.000360721666155368 -0.000823697146497276 -0.000343950882104621
"51" 0.000311548004882135 -0.000148941827976525 0.000163496771029858 -0.000117499488835673 6.51572114854333e-05 -0.000561418612645125 -0.000252621624802091 -0.000435924654614875 -0.000346931705332171 6.31694028614113e-05 -0.000190995616337061 0.000256064464108759 0.000305238200085303 -0.000322691930727885 -0.000738776801719261 -0.000356929032323273
"52" 0.000279378560897279 -0.000162340164765617 0.000145007859143502 -0.000131683186077066 4.62617782358776e-05 -0.000567353503890814 -0.000269077644240141 -0.000434932197136818 -0.000375458581365576 4.81055467169322e-05 -0.000211612942125236 0.000239838757142032 0.000293485729372361 -0.000287291853349169 -0.000665519000945051 -0.000367851129023946
"53" 0.000246687495911092 -0.000176541849568809 0.000125706097931113 -0.00014543572591207 2.68929301964277e-05 -0.000574460308520676 -0.000285291029306719 -0.000433219043511326 -0.00040186534532672 3.46906749389187e-05 -0.000230264419111847 0.000224118067130133 0.00028312648522895 -0.000254740295303433 -0.0006048304991203 -0.000376649834783192
"54" 0.00021358970626538 -0.000191531016326822 0.000105520671102189 -0.000158720207199807 7.08799866299045e-06 -0.000582686399035357 -0.000301242751836041 -0.000430852398676808 -0.000426085930660356 2.29609414007406e-05 -0.000246916219777303 0.00020900392494633 0.000274236471533771 -0.000225215301057995 -0.000557481867943269 -0.000383282496414808
"55" 0.000180196581855468 -0.000207285247320695 8.43915902576128e-05 -0.000171512463580336 -1.3116598485695e-05 -0.000591959572427032 -0.000316917301454433 -0.000427907593774287 -0.000448071958785042 1.29311951317942e-05 -0.000261554155615093 0.000194590514512164 0.000266874798173622 -0.000198847757198314 -0.000524092506580756 -0.000387723602662984
"56" 0.000146611271056431 -0.000223775271309758 6.22656660596595e-05 -0.000183783098602447 -3.36851800957733e-05 -0.000602196446945022 -0.000332300697930848 -0.000424473052455562 -0.000467793960811124 4.59083848209022e-06 -0.000274181524078103 0.000180962804447366 0.000261075906524216 -0.000175732737963042 -0.00050511814794995 -0.000389972770347869
"57" 0.000112945882445968 -0.000240966605937284 3.90973332778981e-05 -0.00019550389671144 -5.45801478699442e-05 -0.000613299213887383 -0.000347382185680304 -0.000420633472575504 -0.000485249301079104 -2.08432050647574e-06 -0.000284818145219756 0.000168196681784238 0.000256859354838151 -0.000155913094136134 -0.000500824786347247 -0.000390044393299456
"58" 7.93102300330591e-05 -0.000258818584297246 1.48554682336502e-05 -0.000206655005559212 -7.57623863018201e-05 -0.000625160683545787 -0.000362152707450464 -0.000416490299894685 -0.000500444761015852 -7.1423762851674e-06 -0.00029350264826186 0.000156358053782578 0.000254216459918049 -0.000139406308025809 -0.000511309864498298 -0.000387978789719308
"59" 4.58175920848537e-05 -0.000277280922261812 -1.04770528150045e-05 -0.000217211183074883 -9.71897496376672e-05 -0.000637656654653648 -0.000376599303906436 -0.000412140542607083 -0.000513412150790653 -1.0644510110336e-05 -0.000300284479540845 0.000145507721857507 0.000253129414813669 -0.000126183285097172 -0.000536471232851777 -0.000383827960715484
"60" 1.25707334880316e-05 -0.000296296656663463 -3.69022102262528e-05 -0.000227155029497013 -0.000118821206961436 -0.000650658383374157 -0.000390713764814754 -0.000407692053740068 -0.000524194362250326 -1.2675341898574e-05 -0.000305233426946744 0.000135693670620173 0.000253555422301949 -0.000116177182954084 -0.000576019632496297 -0.000377668632039641
"61" -2.03137819565486e-05 -0.000315804599418699 -6.44119896480059e-05 -0.000236466356952483 -0.00014060764870117 -0.000664028013168066 -0.000404486912274164 -0.000403249072240625 -0.000532854750374054 -1.33249536909493e-05 -0.000308422898837394 0.0001269541964951 0.0002554345898604 -0.000109298947259907 -0.000629478615631432 -0.000369588905368952
"62" -5.27319226778778e-05 -0.000335734818891055 -9.29758285834559e-05 -0.000245127084003064 -0.000162504686076696 -0.000677620793135859 -0.000417909070522448 -0.000398919728675369 -0.000539461999214673 -1.27016809835179e-05 -0.000309942543858267 0.000119323689819651 0.00025869534662929 -0.000105427751109358 -0.000696184094660201 -0.000359694932007349
"63" -8.4571185314835e-05 -0.000356010335391063 -0.000122554614306074 -0.000253125128234064 -0.000184452420051603 -0.000691283805117131 -0.000430974636838999 -0.000394816615683556 -0.000544097480389219 -1.09196984843619e-05 -0.00030988951181123 0.000112823102413872 0.000263252389239535 -0.000104423162380126 -0.000775299017217557 -0.00034810238408984
"64" -0.000115719359676595 -0.000376553354197091 -0.000153084571922004 -0.000260447736085889 -0.000206401393737065 -0.000704866047928555 -0.000443667127296189 -0.000391043753314619 -0.000546856735088871 -8.1067287889807e-06 -0.000308365675194809 0.000107468489123139 0.000269005618898615 -0.000106120662314604 -0.000865825499887921 -0.000334941557940899
"65" -0.000146076996750479 -0.000397273104825531 -0.000184485396281095 -0.000267082794615906 -0.000228288603330839 -0.000718212624096732 -0.000455977285972787 -0.000387713107737544 -0.000547840128006326 -4.38785492450787e-06 -0.000305485651655005 0.00010326888904759 0.000275841037071971 -0.000110342433620548 -0.000966607826690021 -0.000320350603974097
"66" -0.000175529992078284 -0.000418077763586112 -0.000216668067924556 -0.000273023590474052 -0.000250047236099089 -0.000731169321102677 -0.000467893866905785 -0.000384924279729186 -0.000547149797492716 9.85340261349656e-08 -0.00030135730523691 0.000100222349180678 0.000283643693072683 -0.000116907972982412 -0.00107636420817102 -0.000304480626371149
"67" -0.000203980276061006 -0.000438874902191689 -0.000249520334545274 -0.0002782662003555 -0.000271609690556183 -0.000743575344117971 -0.000479399185354933 -0.000382779800451303 -0.00054489345473891 5.22202481378491e-06 -0.000296098034986344 9.83261240922027e-05 0.000292289649215963 -0.000125612513479973 -0.00119369144422318 -0.000287481446665257
"68" -0.000231315545116641 -0.000459561661180611 -0.000282915022368584 -0.000282805938937053 -0.000292910862405775 -0.000755284414100699 -0.000490478919393177 -0.000381374895647832 -0.00054118703164315 1.084467184154e-05 -0.000289825766280586 9.75661409169887e-05 0.00030164660188404 -0.000136264391626995 -0.00131708461702569 -0.000269510599227026
"69" -0.000257445554675785 -0.000480039213959006 -0.000316713071560923 -0.000286644488350979 -0.00031386861765466 -0.000766148512151562 -0.000501115449416356 -0.000380798686746491 -0.00053614101177459 1.68331110348905e-05 -0.000282657219510736 9.79219097001558e-05 0.000311577760851737 -0.000148646121155335 -0.00144495638383599 -0.000250736531103208
"70" -0.000282268321788129 -0.000500200058787728 -0.000350761899074533 -0.00028978719063415 -0.000334409584369509 -0.000776024439964912 -0.000511290481396661 -0.000381133100328933 -0.000529867167305393 2.30616139085995e-05 -0.000274702298669164 9.93734614152192e-05 0.000321948878783568 -0.000162572585648114 -0.00157567069108195 -0.00023131127337378
"71" -0.000305690641545132 -0.000519942100792762 -0.000384895839487407 -0.000292242813940632 -0.000354451201992089 -0.000784779510317252 -0.000520983314653498 -0.000382455479946642 -0.000522480823762066 2.94033970204563e-05 -0.00026607969228187 0.000101886247337661 0.000332623508316865 -0.000177829964081978 -0.00170753582984453 -0.000211408757377717
"72" -0.000327629429223986 -0.000539160728823182 -0.000418941625815713 -0.000294025255993732 -0.00037391477309651 -0.000792288879530583 -0.000530176446703807 -0.000384831276486346 -0.000514094057831637 3.57415080236785e-05 -0.000256898061440834 0.000105420595765364 0.00034345948339356 -0.000194217323205774 -0.00183885787343073 -0.000191185408021758
"73" -0.000348000224108512 -0.000557755231518057 -0.000452714481248749 -0.000295149704370197 -0.000392720020105318 -0.000798435511691815 -0.000538843606465469 -0.00038831397109636 -0.000504814249782756 4.19646017355006e-05 -0.000247261794279078 0.000109937059929324 0.000354319931647579 -0.000211547791249516 -0.0019679293924729 -0.000170800736072432
"74" -0.000366734675958808 -0.000575620504547158 -0.000486028036275692 -0.000295637788719122 -0.000410785628261298 -0.000803117904761535 -0.000546969940501567 -0.000392954194927887 -0.000494752150453994 4.79690101653083e-05 -0.000237274990055069 0.00011538309716661 0.000365075271312903 -0.000229620115169777 -0.00209306779959523 -0.000150415467457462
"75" -0.000383765855167517 -0.000592660173129572 -0.000518690388851462 -0.000295514667245188 -0.000428034656469617 -0.000806243665557587 -0.000554531853097213 -0.000398786489458416 -0.000484010771723099 5.36608735845696e-05 -0.000227037261044615 0.000121702962026335 0.000375588217377122 -0.000248249945409622 -0.00221262879327457 -0.000130179655167882
"76" -0.000399035684224865 -0.000608784276497203 -0.000550504941034925 -0.0002948160525355 -0.000444388427229283 -0.000807738837056089 -0.000561512696346749 -0.000405835872625867 -0.000472696819467962 5.89520669164779e-05 -0.000216644786586779 0.000128830874656522 0.000385729544835087 -0.000267248881561583 -0.00232502264458407 -0.000110241104607417
"77" -0.000412495156440442 -0.000623900686796014 -0.000581280878270994 -0.000293573595028602 -0.000459777061457062 -0.000807535223701733 -0.000567889462756692 -0.000414112994698693 -0.000460910799598148 6.37685000783877e-05 -0.000206186398902166 0.000136699198154558 0.000395375589296271 -0.000286433702892345 -0.00242873158334965 -9.07400656597125e-05
"78" -0.000424115563991606 -0.000637927442208715 -0.000610826590549063 -0.000291830575351461 -0.000474133495996403 -0.000805593787662019 -0.000573654027832658 -0.000423620558431723 -0.000448760847394593 6.80357901723566e-05 -0.000195753447080298 0.000145228817231328 0.000404404103755504 -0.000305612196618105 -0.00252232138039297 -7.18188770830228e-05
"79" -0.000433872635774703 -0.000650791723661821 -0.00063895410083167 -0.000289632991539084 -0.000487396075945864 -0.000801879826004512 -0.000578791329512365 -0.000434345600032126 -0.000436343215753649 7.16935797900108e-05 -0.000185429087290991 0.000154332845184849 0.000412696551272794 -0.000324602602614497 -0.00260446510301668 -5.36030283304502e-05
"80" -0.00044175006793201 -0.000662424714261139 -0.000665491668136109 -0.000287033143679342 -0.000499514763071505 -0.000796380516794925 -0.000583294657065855 -0.000446265285243853 -0.000423766476520645 7.46882162369048e-05 -0.000175300588465624 0.000163917091118768 0.000420139765997537 -0.000343211449403084 -0.00267393996301264 -3.62166115833693e-05
"81" -0.000447758069965337 -0.000672767769429085 -0.000690266672071617 -0.000284086594130562 -0.000510443001888796 -0.000789106576146837 -0.00058715540867715 -0.000459341272135465 -0.000411128829441809 7.69720551642525e-05 -0.000165445461016351 0.000173881722175972 0.000426621811517407 -0.000361245847628243 -0.00272965851772787 -1.9778427916014e-05
"82" -0.000451912391928979 -0.000681775264152138 -0.000713124984012714 -0.000280854895721034 -0.000520151131480096 -0.00078007861459232 -0.000590379347873717 -0.000473525230875781 -0.000398542945118424 7.84963078306797e-05 -0.000155948798639227 0.000184113886044123 0.00043203517527166 -0.000378497338130327 -0.00277066107865883 -4.40058031977399e-06
"83" -0.000454245901220636 -0.000689403247386677 -0.000733920018285852 -0.000277402234482218 -0.000528609321249034 -0.000769341096875272 -0.000592969999103989 -0.000488752387457482 -0.000386110326739799 7.92313477044561e-05 -0.000146888459211852 0.000194497648777834 0.000436279280072318 -0.000394769053242889 -0.00279614261858642 9.81414028494921e-06
"84" -0.000454802844973806 -0.000695628744407044 -0.000752527384595418 -0.000273797394582179 -0.000535807989805319 -0.000756957099124796 -0.000594937337798629 -0.000504954249864923 -0.000373945568436411 7.91371725584913e-05 -0.000138344584412037 0.000204909802313329 0.000439256861999929 -0.000409837130571878 -0.0028054489479662 2.27696490353903e-05
"85" -0.000453650112460991 -0.000700430274991211 -0.000768833410128576 -0.000270112017305371 -0.00054174210359758 -0.000743005311872062 -0.00059629651072095 -0.000522038648588065 -0.000362161205073288 7.81891516189556e-05 -0.000130397967985208 0.000215219214417999 0.00044087427494309 -0.000423485835130628 -0.00279808362993557 3.43764487987171e-05
"86" -0.000450859004709742 -0.000703803893413023 -0.000782745324097984 -0.000266422971350067 -0.00054642231551278 -0.00072758529149673 -0.000597072756159634 -0.000539913811573115 -0.000350872705302989 7.63565643198319e-05 -0.000123126494146981 0.000225288747952117 0.000441045688253797 -0.000435488564661904 -0.00277372763876134 4.45528741294319e-05
"87" -0.000446521308926657 -0.000705753139516952 -0.000794186430443291 -0.000262804221649438 -0.000549873986399564 -0.000710814442458496 -0.00059729246212071 -0.000558472349818641 -0.000340195387657187 7.36165340833803e-05 -0.000116608875361267 0.000234980012211346 0.00043968954783493 -0.000445614473805645 -0.00273223706471183 5.32248545193841e-05
"88" -0.000440745955646483 -0.000706298008685645 -0.000803107257746443 -0.000259336721967725 -0.000552130185959587 -0.000692828817464834 -0.000596990848068952 -0.000577595940549585 -0.000330251627618749 6.99450483293859e-05 -0.000110923944094456 0.00024414796049878 0.000436722966010696 -0.000453625799725345 -0.00267363143390997 6.03252618140105e-05
"89" -0.000433645946709559 -0.000705466446583801 -0.000809468051435528 -0.000256099058469007 -0.00055323746748848 -0.000673779046462436 -0.00059620452792111 -0.000597164713960793 -0.000321159458014383 6.53246877855226e-05 -0.000106147684818461 0.000252647594264501 0.000432085663036223 -0.000459292210563891 -0.00259812157620472 6.57970686998857e-05
"90" -0.000425348031247397 -0.000703296317037731 -0.000813261244567123 -0.000253168255680762 -0.000553254504461784 -0.000653826927465759 -0.000594979875345366 -0.000617045669302159 -0.00031303711362459 5.97362830469788e-05 -0.00010235508307773 0.000260336010941853 0.000425712334862806 -0.000462389047234334 -0.00250609254187962 6.95951535318116e-05
"91" -0.000415995573032382 -0.000699839953006376 -0.000814495506931389 -0.000250619114713999 -0.000552244773524427 -0.000633155575408906 -0.000593367943133567 -0.000637102123790841 -0.000306000537909565 5.31652622886877e-05 -9.96197687603309e-05 0.000267071243063953 0.000417555190633252 -0.000462691239993751 -0.00239810732142638 7.16783970669272e-05
"92" -0.000405727421120452 -0.000695156158499819 -0.000813197197518689 -0.000248524701390943 -0.000550286367764524 -0.000611951533571027 -0.000591412919275752 -0.000657195211346228 -0.000300156044217816 4.5601555298576e-05 -9.80059031586407e-05 0.000272719244238926 0.00040758017556224 -0.000460011710431199 -0.0022749112466529 7.20259877689134e-05
"93" -0.000394700647116464 -0.000689320981132085 -0.000809422367427821 -0.000246956772486025 -0.000547468138721666 -0.000590421008616778 -0.000589179902926767 -0.000677179076105159 -0.000295608338309317 3.70366294400453e-05 -9.75721152597273e-05 0.000277152773634313 0.00039575612837269 -0.000454155167758943 -0.00213740781529584 7.0620055191817e-05
"94" -0.000383066630487384 -0.000682407961312326 -0.000803235315445032 -0.000245975835062049 -0.000543872678122647 -0.000568768916893639 -0.00058672434079846 -0.00069691649661362 -0.000292446912869747 2.74705299656462e-05 -9.83736099772547e-05 0.000280254018413509 0.000382077800420858 -0.000444980136397559 -0.00198667320702675 6.74654239454799e-05
"95" -0.000370984089814324 -0.000674509746677997 -0.000794734532633135 -0.000245643720017308 -0.000539606734977241 -0.000547212592859405 -0.000584104423702779 -0.00071625781958382 -0.000290756177245697 1.69058368274342e-05 -0.000100455060869772 0.000281919477363304 0.00036654783910106 -0.000432352421201402 -0.00182392926841637 6.25699747364371e-05
"96" -0.000358607320365281 -0.000665719427885665 -0.000784026866023282 -0.000246006276457552 -0.000534765047922642 -0.000525965536042729 -0.000581385335136742 -0.000735068420437776 -0.000290601226882799 5.3563500329787e-06 -0.000103845030328579 0.000282057340172042 0.000349191139830135 -0.00041619466618016 -0.00165055265568017 5.59634931720325e-05
"97" -0.000346100608368139 -0.000656142708507499 -0.000771238120253058 -0.000247109162105837 -0.000529454399295729 -0.000505249917498329 -0.000578626365962799 -0.000753209417004379 -0.000292032031638456 -7.16144799478104e-06 -0.00010857041267928 0.000280597064675572 0.00033004851178412 -0.000396461444037523 -0.00146804805314292 4.76905551472832e-05
"98" -0.000333602860447521 -0.000645880288603499 -0.000756514842306126 -0.000248982104479694 -0.000523773058329848 -0.000485276565678097 -0.000575884855899768 -0.000770551127884589 -0.000295073705886857 -2.06138429710491e-05 -0.000114631094508633 0.000277488877012539 0.000309188378010255 -0.000373174326425278 -0.00127803718202393 3.78153247554261e-05
"99" -0.000321266373648019 -0.000635048724621602 -0.000740015660417589 -0.000251646807769934 -0.000517829516901098 -0.000466259382647485 -0.000573227851469728 -0.000786969589058774 -0.000299745338352287 -3.49675907089292e-05 -0.000122025011440712 0.000272697875169738 0.00028668373110772 -0.000346379934120773 -0.00108224392660245 2.64062941029586e-05
"100" -0.000309224308807176 -0.000623758237103222 -0.000721911759217633 -0.00025511560648864 -0.000511718277654998 -0.00044840166405387 -0.000570701959488691 -0.000802353743451561 -0.00030602607358887 -5.01718043215364e-05 -0.000130723525277986 0.000266217577032856 0.000262648972779084 -0.000316196800524985 -0.000882474132486868 1.35611326211277e-05
"101" -0.000297603186806335 -0.000612123859886059 -0.00070238983612919 -0.000259388061987276 -0.00050553909221572 -0.0004318956005002 -0.000568367842029378 -0.000816600403931494 -0.000313888389312515 -6.61670324071748e-05 -0.000140693837636953 0.000258062408667836 0.000237202147909924 -0.000282794052089493 -0.00068059997269281 -6.14067487345539e-07
"102" -0.00028651478798657 -0.000600260973833878 -0.000681642940126181 -0.00026445322456427 -0.000499379792089461 -0.000416920951864644 -0.000566267795417834 -0.000829617059209433 -0.000323267960398857 -8.28802125992127e-05 -0.000151873830952199 0.000248271577973589 0.00021049389454411 -0.000246401052234598 -0.000478546061212064 -1.59922288058053e-05
"103" -0.000276065772682317 -0.000588285805905506 -0.000659874450040595 -0.000270286715901904 -0.000493328317651 -0.000403645113787881 -0.000564454058145616 -0.000841328772329562 -0.000334091843492406 -0.000100233340863257 -0.00016419892436743 0.000236903400371525 0.00018267787155093 -0.000207284510222247 -0.000278250649935983 -3.24394068084807e-05
"104" -0.000266348271534547 -0.000576310539622276 -0.000637294680863817 -0.000276853843030384 -0.000487461394609834 -0.000392211770073148 -0.000562963033078437 -0.000851668640537138 -0.000346256252688819 -0.000118137027297012 -0.000177582597393072 0.000224044706789721 0.000153944732522735 -0.000165771850456177 -8.166883635976e-05 -4.98025064875129e-05
"105" -0.000257441219822604 -0.000564443513452379 -0.000614122183822934 -0.000284109026528697 -0.00048185436800593 -0.000382751860590926 -0.00056183391626426 -0.000860587790744591 -0.000359641354663089 -0.000136494301868451 -0.000191926588471205 0.000209795003050781 0.000124473549323009 -0.000122218832265688 0.000109269913015362 -6.79225648920586e-05
"106" -0.000249413704435231 -0.000552795607307688 -0.000590576143604133 -0.000291995099587585 -0.000476571007100083 -0.000375370942544661 -0.000561095973887671 -0.000868057171772011 -0.000374113038640491 -0.000155200246164862 -0.000207125809401705 0.000194279817307517 9.4480746142284e-05 -7.703008831777e-05 0.000292677200588085 -8.66320740782954e-05
"107" -0.000242316912018535 -0.00054146332254589 -0.000566877396628993 -0.000300445558664432 -0.000471664965907143 -0.000370151484307403 -0.000560779130787178 -0.000874052219273374 -0.000389516618637421 -0.000174145541842764 -0.000223054032818632 0.000177641457267425 6.4174707046637e-05 -3.06368539831685e-05 0.000466720551156008 -0.000105750193273079
"108" -0.000236195925537902 -0.000530543147426598 -0.000543248597998624 -0.000309383681940875 -0.000467189317109493 -0.000367156034838224 -0.000560901268435381 -0.00087857524209629 -0.0004056910135 -0.000193221917210243 -0.00023959574821888 0.000160031230355055 3.37664711715826e-05 1.6523863674895e-05 0.000629662064428792 -0.000125103694276853
"109" -0.000231084453416603 -0.000520124922046366 -0.00051990967053486 -0.000318725453777189 -0.000463185684797282 -0.000366418721332347 -0.000561482585410805 -0.000881637298437477 -0.000422461636906636 -0.000212311261218155 -0.000256613256062735 0.000141618737446148 3.48202072673931e-06 6.399023050247e-05 0.00077986087981635 -0.000144508610462169
"110" -0.000227009036024431 -0.00051028876452609 -0.000497075008196632 -0.000328380393585119 -0.000459686069823311 -0.000367948284057665 -0.000562536264826794 -0.000883269461942387 -0.000439655709630938 -0.000231309828723303 -0.000273977986800365 0.000122573656872225 -2.64650888610642e-05 0.000111314673385318 0.000915806818080224 -0.00016379011948689
"111" -0.000223978121019535 -0.000501110710227637 -0.000474957741911166 -0.000338255245476781 -0.000456723489760644 -0.000371733867109195 -0.000564071207605568 -0.00088351529471334 -0.000457096986417004 -0.00025010607195957 -0.000291558503733112 0.000103080348992952 -5.58688390657199e-05 0.000158044927775134 0.00103611856930682 -0.000182771296540562
"112" -0.000221996929352842 -0.000492652826504502 -0.000453760372578936 -0.000348245711284726 -0.000454310182605277 -0.000377732662289896 -0.000566089993339765 -0.000882437370553326 -0.000474604295496923 -0.000268599995925176 -0.000309222692078079 8.33179655198515e-05 -8.45274601994296e-05 0.00020375498290567 0.00113958465351219 -0.000201285898426011
"113" -0.000221070571708207 -0.000484974246455545 -0.000433675358651936 -0.000358251028763933 -0.000452468118925472 -0.000385886536314427 -0.000568597737458016 -0.000880105782695041 -0.000492008460545834 -0.00028669622373702 -0.000326847454771813 6.34727046661904e-05 -0.000112255582476503 0.000248043914519481 0.00122516266075795 -0.000219177038924826
"114" -0.000221180778435383 -0.000478116775225244 -0.00041488224469327 -0.000368166941039919 -0.000451200549141537 -0.000396107470948475 -0.000571586097791512 -0.000876613872606342 -0.000509142914374763 -0.000304308371595082 -0.000344312421820465 4.37207005000853e-05 -0.000138876349750838 0.000290535850100308 0.00129199610336864 -0.000236297342079073
"115" -0.000222313531037457 -0.000472117283286979 -0.000397552255529177 -0.000377886525473872 -0.000450514530205948 -0.000408288968322195 -0.00057505212047165 -0.000872059281915806 -0.000525853277696039 -0.000321360236137195 -0.000361509256773459 2.42390791251016e-05 -0.000164234309815556 0.000330903588724329 0.00133942318665578 -0.000252516160894769
"116" -0.000224448431896338 -0.000467001746221837 -0.000381837619585275 -0.000387308857995761 -0.000450398936736558 -0.000422308455598785 -0.00057898237704716 -0.000866554610702744 -0.000541995191001573 -0.000337788026228622 -0.000378334110519047 5.19269781006509e-06 -0.000188197699482468 0.000368857765040082 0.00136699112654919 -0.000267709747821118
"117" -0.000227558985690079 -0.000462786249251642 -0.000367873384368035 -0.00039633061144254 -0.000450848780848239 -0.00043802117778495 -0.000583364762552676 -0.000860226109377008 -0.000557437787726355 -0.000353534134594443 -0.000394699116936255 -1.32624062158973e-05 -0.000210649502257843 0.000404154331451626 0.00137445207531413 -0.000281778236497519
"118" -0.000231610394186859 -0.000459473943264954 -0.000355771713948429 -0.00040485837528735 -0.000451851334534563 -0.000455267493523032 -0.000588183224403786 -0.000853207465419412 -0.000572057951374685 -0.000368558628542406 -0.00041052016885163 -3.09787418074174e-05 -0.000231491091635924 0.00043659082014041 0.00136176792386738 -0.000294634314402582
"119" -0.000236562688250457 -0.000457056456050326 -0.000345633926967714 -0.000412797180219296 -0.000453380203623809 -0.00047387573902758 -0.000593411993400855 -0.000845641565395131 -0.000585758711710486 -0.00038282455946888 -0.000425729823953649 -4.78203333616044e-05 -0.000250651563620457 0.000466022386714617 0.00132911205173111 -0.000306206696017043
"120" -0.000242371488379826 -0.000455520784986495 -0.000337533203159966 -0.00042006161167249 -0.000455412974731779 -0.000493667789220498 -0.000599032800647321 -0.000837680946534427 -0.000598444698396166 -0.000396313433790601 -0.000440270964373622 -6.36704042080342e-05 -0.000268077937409027 0.000492350582905243 0.00127686051624501 -0.000316441894678301
"121" -0.000248989822987328 -0.000454837227367797 -0.000331522942178482 -0.000426572647560325 -0.000457920785268149 -0.000514447928954706 -0.000605009239068831 -0.000829487080307819 -0.000610039946076 -0.000409011133081057 -0.000454092280021634 -7.84165608898618e-05 -0.000283741365473148 0.000515508315933393 0.0012055923592383 -0.00032530112050723
"122" -0.000256358031550828 -0.000454971473751894 -0.00032763013742507 -0.000432261049649374 -0.000460858758989415 -0.000536020860473405 -0.000611311726571299 -0.000821222918708874 -0.000620484049943866 -0.000420913002946804 -0.000467155284372618 -9.19662013119591e-05 -0.000297625009089119 0.000535481928119243 0.0011160747993548 -0.00033276341941577
"123" -0.000264417550306057 -0.00045587522210616 -0.0003258583436399 -0.000437064495782196 -0.000464193236028192 -0.00055818827835193 -0.000617908044627265 -0.000813058955758985 -0.000629724553252179 -0.000432023594931943 -0.000479435038432401 -0.000104239278199169 -0.000309742103606502 0.000552300000580466 0.00100925864148706 -0.000338823689000072
"124" -0.000273105095094612 -0.000457498447302745 -0.000326193749966009 -0.000440928818866299 -0.000467876056453097 -0.000580746457750587 -0.000624754179386397 -0.00080517070659269 -0.000637726526628727 -0.000442354922747528 -0.000490907960652128 -0.000115170975910822 -0.000320114301649444 0.000566013813741741 0.000886261503469896 -0.000343492687633894
"125" -0.000282344834140867 -0.000459775301058304 -0.000328588763747139 -0.000443812418359838 -0.000471853727342898 -0.000603496180181841 -0.000631808661718385 -0.000797735440893899 -0.000644458392276939 -0.000451919872971384 -0.000501561261353892 -0.000124707228629546 -0.000328785029072654 0.000576711506148022 0.000748359902200975 -0.000346788337865085
"126" -0.000292060418417795 -0.000462639223710889 -0.000332980770342413 -0.000445686058531883 -0.000476070300115403 -0.000626242143246148 -0.000639022870038955 -0.000790934495316017 -0.000649904618932593 -0.000460736367126977 -0.000511387093364049 -0.000132809062691227 -0.000335811449205957 0.000584504681949468 0.000596970264902803 -0.000348748962902068
"127" -0.000302174097457589 -0.000466015464477455 -0.000339283615488532 -0.000446527052566376 -0.000480470603199945 -0.000648787987264762 -0.000646344732507687 -0.000784941692833783 -0.000654058459182865 -0.00046882630651322 -0.000520383923611666 -0.0001394474545379 -0.00034125832796809 0.000589523486444548 0.000433634001976024 -0.000349417559150937
"128" -0.000312596318030288 -0.000469823419344889 -0.000347381311809872 -0.000446328198266895 -0.000484986834860681 -0.000670954109682024 -0.000653726006369763 -0.000779939951809575 -0.000656911721835279 -0.000476209415145748 -0.000528554228161535 -0.000144609152622914 -0.000345207288278413 0.000591907751052747 0.000260002309845602 -0.000348850245081866
"129" -0.00032323295410348 -0.000473982120948643 -0.000357152488422523 -0.000445090649422092 -0.000489558234049625 -0.000692565109572839 -0.00066110634120264 -0.000776105369055803 -0.000658476973122824 -0.000482908218949983 -0.000535902786361571 -0.000148290382758457 -0.000347747420914058 0.000591820004428618 7.78069322915873e-05 -0.000347112862417736
"130" -0.000333995653274968 -0.000478405802814897 -0.000368446049094265 -0.000442831467568481 -0.00049411715482865 -0.000713454042733554 -0.000668428779928496 -0.000773609631995986 -0.000658758656045727 -0.000488938262188712 -0.000542438947427335 -0.000150498010759869 -0.000348977311693313 0.000589414550680984 -0.000111131492617622 -0.000344276114873959
"131" -0.000344782193496356 -0.00048300655548775 -0.000381102761560046 -0.00043957587664255 -0.000498589263992117 -0.000733472254120689 -0.000675631153472856 -0.000772621438018388 -0.00065777611939811 -0.000494321295033903 -0.000548173779513873 -0.000151252658076901 -0.000348999463495813 0.00058485893429621 -0.000304946784484307 -0.000340422188119906
"132" -0.000355499215979382 -0.000487695081481902 -0.000394942598516072 -0.000435363294507139 -0.000502912760506064 -0.000752476563524886 -0.000682655001542528 -0.000773305689967128 -0.000655547525664719 -0.000499066170968356 -0.000553115833654669 -0.000150579842381254 -0.000347921145897701 0.000578311317526085 -0.000501721713977184 -0.000335633412964463
"133" -0.000366044583662877 -0.000492390393696729 -0.000409777900561957 -0.00043024141897749 -0.000507013544983354 -0.000770347344444636 -0.000689433962878007 -0.000775814960974588 -0.000652098322193916 -0.000503183854786884 -0.000557280052304462 -0.000148520678388837 -0.000345854833316982 0.000569925296892253 -0.000699517629599247 -0.000329997457570548
"134" -0.000376312041381824 -0.000497003464244537 -0.000425409825343236 -0.000424270150648178 -0.000510827707886236 -0.000786972791403995 -0.000695908798130576 -0.000780291207012864 -0.000647454461524047 -0.000506678323069912 -0.000560678873111636 -0.000145117983669321 -0.000342917721561427 0.000559850563627001 -0.000896381579038893 -0.000323609239912078
"135" -0.000386209180312712 -0.000501455485497514 -0.00044163963449974 -0.000417524362510158 -0.000514288531091581 -0.000802261729885096 -0.00070201623007684 -0.000786873579517399 -0.000641648109095263 -0.000509553474806926 -0.000563326473057372 -0.00014043163676489 -0.000339227136277583 0.000548227440360108 -0.00109037357679366 -0.000316561569327478
"136" -0.000395630059849172 -0.00050567010204269 -0.000458254029135422 -0.000410080738762104 -0.000517337544748592 -0.00081613651997905 -0.000707696334769544 -0.000795684077831591 -0.000634713477210296 -0.00051179978895695 -0.000565238665683464 -0.000134524368654966 -0.000334899274136359 0.00053518082943569 -0.00127956675678906 -0.000308953331046655
"137" -0.000404486827960788 -0.000509573070949082 -0.000475043950736604 -0.000402032877544576 -0.000519912958382803 -0.000828540688489789 -0.000712888070132964 -0.000806832490859501 -0.0006266897103979 -0.000513417123340194 -0.000566428461731953 -0.000127470570796065 -0.000330054064952692 0.000520830465045391 -0.00146207572959254 -0.000300886762891926
"138" -0.000412683687857512 -0.00051310107242156 -0.000491805267026689 -0.000393474347768929 -0.000521967183344767 -0.000839433746952487 -0.000717538000302447 -0.0008204102269466 -0.000617619252252471 -0.000514388619503779 -0.000566913503579488 -0.000119349199876983 -0.000324805051892071 0.000505280734757137 -0.00163606087170067 -0.000292455655500941
"139" -0.000420134867518718 -0.000516196427263328 -0.000508333930766757 -0.000384516934228073 -0.000523453961832189 -0.000848791912818815 -0.000721593784628004 -0.000836495878837509 -0.000607551080431716 -0.000514706098256301 -0.0005667136471252 -0.000110248557617358 -0.000319275119364008 0.000488630161155209 -0.00179974791007709 -0.000283765816590387
"140" -0.000426765160936365 -0.000518806934095237 -0.000524429755208771 -0.000375267485941375 -0.000524334227760526 -0.000856609221526329 -0.000725005722439341 -0.000855148135688971 -0.000596536819162205 -0.00051435201502788 -0.000565846872678025 -0.000100264621966056 -0.000313577057489848 0.000470959327485666 -0.00195144005728635 -0.00027491600615678
"141" -0.000432499166256312 -0.000520890889310381 -0.000539907204728291 -0.00036584657586145 -0.000524581515463897 -0.000862898307893725 -0.000727733344766961 -0.000876408714502483 -0.000584632976107049 -0.000513310831564736 -0.000564337821968125 -8.9501661007521e-05 -0.000307826866247684 0.000452347274921722 -0.00208952839163903 -0.000266008700571837
"142" -0.000437271986086696 -0.000522412425120735 -0.000554587077329339 -0.000356371229270697 -0.0005241724589436 -0.000867685693493941 -0.000729735794818631 -0.000900294439380078 -0.00057190188967775 -0.00051156935363875 -0.000562208136117204 -7.80668960430507e-05 -0.000302137163719517 0.000432856404238676 -0.00221251690014275 -0.000257139174631945
"143" -0.000441032494867576 -0.000523349163298867 -0.000568302773427262 -0.000346967438569659 -0.000523093845135508 -0.000871017803604087 -0.000730981303488671 -0.00092680263298699 -0.000558412780200705 -0.000509110411889967 -0.000559490394048643 -6.60756966862739e-05 -0.000296616307479949 0.000412545792847771 -0.00231902360802547 -0.00024841241829261
"144" -0.000443733879519518 -0.000523684014623693 -0.0005809089883765 -0.000337758387613629 -0.000521342409038351 -0.000872952555298969 -0.000731447530343959 -0.00095590910538535 -0.000544241773020785 -0.000505924248321216 -0.00055621282547074 -5.36510911455167e-05 -0.000291373393515686 0.000391468323564663 -0.00240779280848679 -0.000239919505944107
"145" -0.000445346113630414 -0.000523409539017112 -0.000592270569487071 -0.000328866861270139 -0.000518931345592826 -0.000873568505564481 -0.000731117290001092 -0.00098756240788981 -0.00052946662042398 -0.000502005312005192 -0.000552413626609667 -4.09158458299199e-05 -0.000286513457050705 0.000369672229667201 -0.00247771996464111 -0.00023175999494605
"146" -0.0004458446541229 -0.000522531644321733 -0.000602273483600913 -0.000320412827058207 -0.000515870449521081 -0.000872950433752041 -0.000729976460934511 -0.00102168763980013 -0.000514174603772053 -0.000497345732902172 -0.000548130763469481 -2.7999080158059e-05 -0.000282137577875773 0.000347196486022171 -0.00252784834495722 -0.000224021482515646
"147" -0.000445221694614862 -0.000521061740203736 -0.000610822012165765 -0.000312514660915385 -0.000512192832255037 -0.000871199690246076 -0.000728024688478199 -0.00105819231426153 -0.000498461949660405 -0.000491950416332834 -0.000543408263445363 -1.5036484988945e-05 -0.000278341988349217 0.000324088070692113 -0.0025573878006365 -0.000216800885614046
"148" -0.000443475531035368 -0.000519021913718707 -0.000617839252538494 -0.000305284716373973 -0.00050792928794855 -0.000868429765858342 -0.000725266653981951 -0.00109694922987476 -0.000482422274631535 -0.000485826179971814 -0.000538294161862564 -2.16130545843771e-06 -0.000275218794641148 0.000300380102019602 -0.00256571948833516 -0.000210175973189566
"149" -0.000440623938113596 -0.000516438982435711 -0.000623272945864033 -0.000298825247305812 -0.000503133438768984 -0.000864757355510211 -0.000721717166455846 -0.00113781297196915 -0.000466158600097704 -0.000478990825012083 -0.000532839354085007 1.04908258170619e-05 -0.000272856765384964 0.00027611061777159 -0.00255240445238132 -0.000204235448735266
"150" -0.000436692500540066 -0.000513352929117346 -0.000627093883407774 -0.000293230536951859 -0.000497855371018468 -0.000860313595461921 -0.000717397316876099 -0.00118061060010296 -0.000449778827666754 -0.000471464545833842 -0.000527098779777083 2.27819693423264e-05 -0.00027133639598043 0.000251317389036915 -0.00251718799349301 -0.00019905497102238
"151" -0.000431711566989713 -0.000509808265014657 -0.000629283974255934 -0.000288585499419015 -0.000492155934442571 -0.000855231574105893 -0.000712331959279396 -0.00122514896386835 -0.000433392371635352 -0.000463276183296406 -0.000521131047680992 3.45808428915513e-05 -0.000270731576921354 0.00022603495036781 -0.00246000235622607 -0.000194706474053335
"152" -0.00042574115837299 -0.000505857115817119 -0.000629858608728521 -0.000284966298237374 -0.000486109071102841 -0.000849647779568524 -0.000706562348680934 -0.00127121279122908 -0.000417110725315741 -0.000454468411400881 -0.000514996445976555 4.57513349205174e-05 -0.000271114593692001 0.000200303220717627 -0.00238097308507207 -0.000191254267695481
"153" -0.000418831299864598 -0.000501556395926309 -0.000628849146633091 -0.00028242753089581 -0.000479792253557439 -0.000843704956392022 -0.000700130375562896 -0.00131856250582518 -0.000401046394004052 -0.000445080462827927 -0.000508756955435265 5.61707329832997e-05 -0.000272537999624249 0.000174152238965907 -0.00228041267415985 -0.000188761237044063
"154" -0.000411054583107848 -0.000496969041170559 -0.000626312834578141 -0.00028101423587106 -0.000473280794589689 -0.000837543336132665 -0.000693086909252773 -0.00136694233540398 -0.000385308846483971 -0.000435169724281249 -0.000502474396463288 6.57140054857469e-05 -0.000275051244624448 0.000147613757989561 -0.00215881357204565 -0.000187274273375616
"155" -0.000402489921893717 -0.000492163084290376 -0.000622321081522136 -0.000280759099731753 -0.000466661149980477 -0.000831300106769752 -0.000685489513448833 -0.00141607927860744 -0.000370007671841154 -0.000424794113879071 -0.000496216289509118 7.42659822670369e-05 -0.000278696447997453 0.000120727108414989 -0.00201684859193902 -0.000186837246140065
"156" -0.000393230047914123 -0.000487205626618491 -0.000616967286598757 -0.000281669631663159 -0.000460023512356144 -0.000825113126475418 -0.000677406398037964 -0.00146568706170476 -0.000355254637341401 -0.000414017665625458 -0.000490043238666124 8.1720554053729e-05 -0.000283504048167297 9.35254711380212e-05 -0.0018553546905639 -0.000187486131665825
"157" -0.000383358274581161 -0.000482170129495414 -0.00061036915647499 -0.000283741158054917 -0.000453453753060221 -0.000819107182128346 -0.00066889858093864 -0.00151546126450092 -0.000341146852465058 -0.000402914862812192 -0.000484014049714746 8.79854603738973e-05 -0.000289483218038252 6.60338075063357e-05 -0.00167534292085795 -0.000189241368163022
"158" -0.000372987036604308 -0.000477126492277758 -0.000602651474986 -0.000286948528400158 -0.000447043289033322 -0.000813404386571208 -0.000660046085232537 -0.00156509300800581 -0.000327779635050475 -0.000391559769151087 -0.000478192491051626 9.2966883646747e-05 -0.000296643757039706 3.82831570756584e-05 -0.001477957431649 -0.000192119993536631
"159" -0.00036221383574391 -0.000472145648383412 -0.000593962265486573 -0.000291252280711071 -0.000440872112419176 -0.000808121501324611 -0.00065092451490054 -0.00161426324380021 -0.000315245012396596 -0.000380032313480918 -0.000472633787400534 9.65950175288934e-05 -0.000304972005844031 1.03062171017792e-05 -0.00126448873470977 -0.000196121258261514
"160" -0.000351160058784289 -0.000467298935161042 -0.0005844656739324 -0.000296591265721775 -0.000435030779419296 -0.00080335114586335 -0.000641619643303592 -0.00166264907073544 -0.000303621804299177 -0.000368417227730735 -0.000467389886310585 9.88057904786429e-05 -0.000314448539309767 -1.78693972290924e-05 -0.00103634744721419 -0.000201241518579644
"161" -0.00033993535562392 -0.000462653816742707 -0.000574330365692318 -0.000302885677832391 -0.00042959602641517 -0.000799190009833808 -0.00063221427115388 -0.00170992435293824 -0.000292983051444552 -0.000356796085314045 -0.000462508417861187 9.95547578555473e-05 -0.000325041124108192 -4.62183109756532e-05 -0.000795059360842988 -0.000207456507563313
"162" -0.000328659467643412 -0.00045827303569517 -0.000563741267727147 -0.000310039755637756 -0.000424647351015995 -0.000795709157332672 -0.0006227919804732 -0.0017557647686027 -0.000283388001214955 -0.00034525672575236 -0.000458035730039776 9.88039373955963e-05 -0.000336700105588973 -7.47001883855213e-05 -0.000542243726188927 -0.000214738370102945
"163" -0.000317448543517071 -0.000454213054158256 -0.000552889197228973 -0.000317941927208328 -0.000420245696419485 -0.000792967653051267 -0.000613449103290988 -0.0017998482928219 -0.000274890185008271 -0.000333885422238068 -0.000454009404305511 9.65312394772336e-05 -0.000349364909366151 -0.000103283661849471 -0.000279601162336113 -0.000223044626669863
"164" -0.000306430549973992 -0.000450530935373657 -0.000541973889664631 -0.000326464134773134 -0.000416459260062894 -0.000791010610379686 -0.000604269932028194 -0.0018418615977064 -0.000267534975509873 -0.000322767418351772 -0.000450463968616159 9.27321343868684e-05 -0.000362966254820897 -0.00013191862042873 -8.90306279273432e-06 -0.000232323240463877
"165" -0.000295720818821543 -0.000447270959462995 -0.000531199827466005 -0.000335462933319722 -0.000413336658119282 -0.000789862636050482 -0.000595347077891146 -0.00188149473597073 -0.00026134935291817 -0.000311986060606146 -0.000447428541066679 8.74118681531575e-05 -0.000377419563103414 -0.000160562683923942 0.000268030775851769 -0.00024251413071024
"166" -0.000285441831031201 -0.000444471133316525 -0.000520767922944718 -0.000344782274838386 -0.000410928557257002 -0.00078953624125779 -0.000586769305211747 -0.00191845428759102 -0.000256356922103316 -0.00030162632127683 -0.000444924848582822 8.0588309822296e-05 -0.000392630336090539 -0.00018915139377191 0.000549333994081879 -0.000253545628606947
"167" -0.000275712106265475 -0.000442162396638778 -0.000510880463297954 -0.000354256831636592 -0.000409264974320262 -0.000790022333110873 -0.000578623020279401 -0.0019524570974201 -0.000252573161341035 -0.000291766574564533 -0.000442973703474258 7.2292790360994e-05 -0.000408501137216971 -0.000217602007874634 0.000833120865016042 -0.00026533555644138
"168" -0.000266644870132886 -0.000440367450362297 -0.000501742337899362 -0.000363711044051557 -0.000408375644070283 -0.000791299588577639 -0.000570997960463937 -0.0019832344330846 -0.000249997769778388 -0.000282485270312398 -0.000441591524881586 6.2566032878298e-05 -0.000424925651757005 -0.000245827150686411 0.00111749263588417 -0.000277800171286969
"169" -0.000258355026304491 -0.000439098101859245 -0.000493544251173416 -0.000372958699011045 -0.000408274095205422 -0.000793327381998601 -0.000563974956086114 -0.00201053683075389 -0.000248634269603497 -0.000273857232325593 -0.000440788794350505 5.14605025004956e-05 -0.000441787154275841 -0.00027371398849393 0.00140054729907987 -0.000290844415553918
"170" -0.000250953761896746 -0.000438359375005008 -0.000486475333978424 -0.00038181485370149 -0.000408971184138496 -0.000796043895646833 -0.000557632900580695 -0.00203412893658985 -0.000248467213785045 -0.000265955810887833 -0.000440571942627863 3.90396453574035e-05 -0.00045896890679152 -0.000301134241473342 0.00168040819846513 -0.000304370437934377
"171" -0.000244545800474216 -0.000438142831050215 -0.000480713929892696 -0.000390086644122455 -0.000410463037354581 -0.000799382101337531 -0.000552053193981317 -0.00205379945066496 -0.000249484487221506 -0.000258848915088732 -0.000440948912572394 2.53680075878574e-05 -0.000476351323426509 -0.000327929874349583 0.00195521972560674 -0.000318278032261493
"172" -0.000239223513423156 -0.000438432902748277 -0.0004764204387818 -0.000397580235525967 -0.000412728235380713 -0.00080325091516125 -0.00054730097947652 -0.00206935504673136 -0.000251660242673605 -0.00025259726214714 -0.000441919953833317 1.05224527413583e-05 -0.000493813950294467 -0.00035392759644927 0.00222317110260129 -0.000332460087184417
"173" -0.000235085945917142 -0.00043920687760446 -0.000473745250184811 -0.000404106998302024 -0.000415756665302832 -0.000807554085950991 -0.000543441925031447 -0.0020806274235625 -0.00025497435888161 -0.000247267846179426 -0.000443488796209406 -5.42061612616979e-06 -0.000511238258826742 -0.000378918349527988 0.0024825017761278 -0.000346811400026176
"174" -0.000232220056475295 -0.000440424469449161 -0.000472821919933726 -0.000409474254492083 -0.000419508037170365 -0.000812176957260302 -0.000540542285463889 -0.00208746805590976 -0.000259397228737585 -0.000242915688850762 -0.000445653383078234 -2.23765922374377e-05 -0.00052850518864235 -0.000402678162742649 0.00273151689137069 -0.000361227023627024
"175" -0.000230701301383089 -0.000442044047124004 -0.000473761733743831 -0.000413504638109442 -0.000423942933531034 -0.000816998255825229 -0.000538652205524029 -0.00208975334378237 -0.000264900857708727 -0.000239591628577781 -0.00044841772322756 -4.02577848846183e-05 -0.000545503015075519 -0.00042494878272394 0.00296860441890105 -0.000375601778479803
"176" -0.000230597090564142 -0.000444011325711379 -0.000476657482213505 -0.000416019920097083 -0.00042901302631969 -0.000821885705999035 -0.000537814296336918 -0.00208738204330398 -0.000271450982337735 -0.000237346003348526 -0.000451775396184668 -5.89828398533781e-05 -0.00056212286967697 -0.000445461574217813 0.00319223979705055 -0.000389830702092105
"177" -0.00023197425815805 -0.000446267960536162 -0.000481580958828402 -0.000416855038543982 -0.000434660688815865 -0.000826699544309866 -0.000538071320994661 -0.00208028033395073 -0.000279013164144042 -0.000236220100406241 -0.000455727141026547 -7.84595457363863e-05 -0.000578264307187611 -0.000463919348880066 0.00340099692861096 -0.000403816406490955
"178" -0.000234884606278193 -0.000448741636091703 -0.000488581441271916 -0.000415854258301451 -0.000440823269953393 -0.000831298401134795 -0.00053945503113337 -0.00206839956379955 -0.000287560757828161 -0.000236252645052217 -0.000460273563112698 -9.86061255299726e-05 -0.000593833437031098 -0.000479998479421826 0.00359356984812208 -0.000417465562528749
"179" -0.000239362122226665 -0.000451358039202266 -0.000497681240461857 -0.000412875227763034 -0.000447431782941491 -0.000835531978550437 -0.000541980748861405 -0.00205170819522458 -0.000297054368277549 -0.000237476940311826 -0.000465410423790064 -0.000119336799278828 -0.000608741903307619 -0.000493378857889887 0.00376876857594887 -0.000430683612711367
"180" -0.00024544747222694 -0.000454038417509428 -0.000508881089078512 -0.000407789421102219 -0.000454408240892105 -0.000839253913319262 -0.000545671037574878 -0.00203020905977953 -0.000307468078439976 -0.000239920919186979 -0.000471144014160767 -0.000140573848236419 -0.000622917601277435 -0.000503706834049158 0.00392554935549573 -0.000443391260069982
"181" -0.000253149652772653 -0.000456695325132878 -0.000522153615099901 -0.000400487758329565 -0.000461677376264312 -0.000842312154506633 -0.0005505277663641 -0.00200392168063817 -0.000318763068646149 -0.000243603365620293 -0.000477467061342431 -0.000162239154533325 -0.000636292663384388 -0.000510637616554241 0.00406300844960269 -0.000455507671297939
"182" -0.000262478433346148 -0.000459242285475183 -0.000537454214984015 -0.000390872195966759 -0.000469152284281822 -0.000844562489038104 -0.000556547595320088 -0.00197289742751926 -0.000330910658236184 -0.000248542081422069 -0.000484384383527221 -0.000184260166452953 -0.000648810514460545 -0.000513816484331269 0.00418039656644542 -0.000466966057010374
"183" -0.000273430488914913 -0.000461584230809155 -0.000554702419641539 -0.000378867049467714 -0.000476744860858526 -0.000845860914587001 -0.000563718687715787 -0.00193720412426107 -0.000343882759202619 -0.000254743715048273 -0.000491897127840115 -0.000206569691110854 -0.000660428014177625 -0.000512888395221451 0.00427713129317293 -0.000477705848185477
"184" -0.000285989055480184 -0.000463632961495637 -0.00057380359779331 -0.000364414111761947 -0.000484374996127915 -0.000846071522962084 -0.000572018870283625 -0.00189694127995316 -0.000357647616959378 -0.000262211380928067 -0.000500005887383711 -0.000229104759713367 -0.000671112554539769 -0.000507510102694674 0.00435279771077758 -0.000487673584248265
"185" -0.000300123099606792 -0.000465294176983109 -0.00059463871268886 -0.000347477051191692 -0.00049194707720143 -0.000845059704123847 -0.00058142707371587 -0.00185222963641931 -0.000372175017371536 -0.000270935430928844 -0.000508709650216703 -0.000251808898878269 -0.000680839307316319 -0.000497351456176016 0.00440715869557193 -0.000496824743077075
"186" -0.000315790270370695 -0.000466478163570956 -0.000617063695474363 -0.000328036794490709 -0.000499378939953547 -0.00084270832005281 -0.000591898139707685 -0.00180321383610549 -0.000387438493862797 -0.000280908225253679 -0.000518012689639385 -0.000274627947585329 -0.000689601690036321 -0.000482090864571789 0.00444015717519878 -0.000505128151808528
"187" -0.000332939214039451 -0.000467096292285179 -0.000640922185386543 -0.000306099182746383 -0.000506582737647448 -0.000838905551961697 -0.000603392740214806 -0.00175006022520741 -0.000403403802679477 -0.000292104621278662 -0.00052791255418012 -0.000297520640803577 -0.000697393053109882 -0.000461437322058372 0.00445190787203684 -0.000512552787148819
"188" -0.000351508432077909 -0.000467061414450412 -0.000666026691288991 -0.000281691457446275 -0.000513471971947574 -0.000833551077856305 -0.000615854596080738 -0.00169296290938944 -0.000420048866618633 -0.000304497235603596 -0.000538411489226223 -0.000320442529542045 -0.00070423112718625 -0.000435120946890603 0.00444270223866624 -0.000519089269702992
"189" -0.00037141648164079 -0.000466294788797143 -0.0006921910263967 -0.000254865564474833 -0.000519967867853348 -0.000826555876887352 -0.000629230735117192 -0.00163213894793799 -0.000437341228493712 -0.000318052807769706 -0.000549506936243466 -0.000343360068928872 -0.000710136006036103 -0.000402899894976583 0.00441301768591919 -0.000524726961778106
"190" -0.000392576938854189 -0.000464721653465467 -0.000719200805072483 -0.000225690927540798 -0.000525986484061458 -0.000817850144609697 -0.000643448674985565 -0.00156782484122863 -0.000455249368057934 -0.000332724036030951 -0.000561193769356296 -0.000366245136997076 -0.000715135317926314 -0.000364576717731014 0.00436348600460905 -0.000529465825991631
"191" -0.000414901479153713 -0.000462274624727963 -0.000746834120082094 -0.000194267698308439 -0.000531462345287467 -0.00080737254831407 -0.000658442473332027 -0.00150027994930055 -0.000473746638091292 -0.000348465519348918 -0.000573470203832309 -0.00038906948779573 -0.000719272763368735 -0.00031997613985725 0.00429490354281472 -0.000533322677631132
"192" -0.000438273318705971 -0.000458894003679795 -0.000774861000165627 -0.000160711171938968 -0.000536324632674748 -0.000795082026757804 -0.000674128947973567 -0.00142978835816337 -0.000492798062128434 -0.000365211632884694 -0.000586326365526955 -0.000411812372350042 -0.000722594404525579 -0.000268985440897093 0.00420822210156249 -0.000536313722584674
"193" -0.000462588742812488 -0.000454524499685104 -0.000803046137734912 -0.000125165296355552 -0.000540509804590393 -0.000780951104655807 -0.000690427596772659 -0.00135665555347928 -0.000512370237724522 -0.000382903928712329 -0.000599751967218164 -0.000434455167021263 -0.000725157849232864 -0.000211518950522761 0.00410452320696242 -0.000538461830364476
"194" -0.000487725784394902 -0.000449125046547994 -0.000831142129673961 -8.77949367980837e-05 -0.00054396598489884 -0.000764968233760563 -0.0007072499220362 -0.00128120156541135 -0.000532433143956384 -0.000401468336061912 -0.000613735785112831 -0.00045699131611763 -0.000727026200136592 -0.000147531199037581 0.00398501719282073 -0.000539808663013072
"195" -0.000513552722754428 -0.000442662542596337 -0.000858904230209045 -4.8791603557225e-05 -0.00054663585660989 -0.00074714525175154 -0.000724505005073575 -0.00120377236222134 -0.000552946993918511 -0.00042082745082888 -0.000628263127258656 -0.000479401883528546 -0.000728266302910892 -7.70465616899761e-05 0.00385101244453311 -0.000540391342405452
"196" -0.000539941803453849 -0.000435111331867385 -0.000886089130864211 -8.36114082397119e-06 -0.000548481462661158 -0.00072750325262407 -0.00074209673598882 -0.00112473059980812 -0.000573872654865226 -0.000440900732524571 -0.00064331430207248 -0.000501683902575732 -0.000728955381331456 -1.17787394027659e-07 0.00370391644120509 -0.000540261390863775
"197" -0.00056675683793076 -0.000426459063670035 -0.000912450994562565 3.32651714084596e-05 -0.00054946947210077 -0.000706088064265371 -0.000759924771591488 -0.00104444861665636 -0.00059516966088184 -0.000461599649859982 -0.000658866083676423 -0.000523827577461472 -0.000729169519457344 8.3139228001256e-05 0.00354519166590784 -0.000539466376558234
"198" -0.000593856670752473 -0.000416703328024161 -0.00093774884699246 7.58356673488612e-05 -0.000549568516565603 -0.000682957043567315 -0.000777892687146889 -0.000963320746451802 -0.000616797714365686 -0.000482834116480107 -0.000674893594078624 -0.000545830921552538 -0.000728988350971785 0.000172575404826418 0.00337635879954367 -0.000538066882364782
"199" -0.000621097213979522 -0.000405851039382856 -0.000961746366571288 0.000119082661528116 -0.000548757197175158 -0.000658191785382408 -0.000795894236945883 -0.00088175305874289 -0.000638706620484554 -0.000504508496727947 -0.000691364679826426 -0.000567685489223428 -0.000728492448733986 0.000267977798639761 0.0031989601699798 -0.000536126661913685
"200" -0.00064833632233003 -0.000393919901777776 -0.000984223230174519 0.000162717198875105 -0.000547027286810731 -0.000631888640254897 -0.000813828853671106 -0.000800158394745414 -0.000660853076487396 -0.000526525789929584 -0.000708246956270061 -0.000589393087744325 -0.000727770262148759 0.000369085644904804 0.00301455146327621 -0.000533710251222351
"201" -0.00067543138892237 -0.000380936118711168 -0.00100495890751551 0.000206441212323636 -0.00054436252561426 -0.000604163959403092 -0.00083159321284096 -0.000718961315618904 -0.000683177771025346 -0.000548787869427877 -0.00072550219669279 -0.000610944455203657 -0.000726899956489976 0.000475597506148201 0.00282467855252429 -0.000530885030624606
"202" -0.000702233843711425 -0.0003669395986567 -0.00102374968779696 0.000249938805468634 -0.000540774393190399 -0.000575146199994831 -0.000849082777447467 -0.000638586046829196 -0.000705631810465609 -0.000571193050581365 -0.000743088935690724 -0.000632336690663615 -0.000725968808651255 0.000587157425391477 0.00263085588543477 -0.000527724387196234
"203" -0.000728603307524148 -0.000351976625993117 -0.00104040152411195 0.000292887646355966 -0.000536263016313338 -0.000544985819875347 -0.000866197696013591 -0.000559460350605035 -0.000728151491959257 -0.000593639983139369 -0.000760959573293813 -0.000653562208944013 -0.000725048569581406 0.000703364351719555 0.00243455087071378 -0.000524294559288396
"204" -0.000754398558951444 -0.00033610825134234 -0.00105474134749883 0.000334957860842137 -0.000530844322253856 -0.000513846445308046 -0.000882835548054857 -0.000482011615995846 -0.000750676161299346 -0.000616027991631582 -0.000779066953296254 -0.000674615781894058 -0.000724221493103012 0.000823774945394126 0.00223717318209326 -0.000520676710369611
"205" -0.000779478749469413 -0.00031939334086897 -0.00106660539656512 0.000375809311054087 -0.000524535010971811 -0.000481904504121253 -0.000898900818006018 -0.000406660506516118 -0.000773139914299552 -0.000638257403353005 -0.000797356724817794 -0.000695485779414679 -0.000723556504637994 0.000947897747369706 0.00204005549030172 -0.000516935242258836
"206" -0.000803709288190038 -0.000301912505716431 -0.00107584800976649 0.000415109400571175 -0.00051736254955167 -0.000449353672266706 -0.000914299502989483 -0.000333810337052326 -0.000795472277103393 -0.000660226141323901 -0.0008157719186098 -0.00071616076640035 -0.000723124080679343 0.00107520061818733 0.00184444329648666 -0.000513142551400907
"207" -0.000826958292743184 -0.000283741857444108 -0.00108234550171261 0.000452520863185297 -0.000509358264991301 -0.000416399799489244 -0.000928938284289456 -0.000263858868660394 -0.000817595277892531 -0.000681837319662332 -0.000834249576534937 -0.000736623529791692 -0.000722978806720192 0.00120511686285707 0.00165148244012172 -0.000509368384692228
"208" -0.000849102624230732 -0.000264969826428468 -0.00108598571727421 0.000487714092725537 -0.000500551573986863 -0.000383258640672599 -0.00094273199394801 -0.000197180015964272 -0.000839430479775089 -0.000702994167824878 -0.000852728208348183 -0.000756856925714143 -0.000723178026083744 0.00133703054524835 0.00146222180794103 -0.000505680167139065
"209" -0.000870017467837859 -0.000245695602175117 -0.00108668686540811 0.000520370408784128 -0.000490981121483173 -0.000350151293952285 -0.000955597861817946 -0.000134125962258205 -0.000860893210627045 -0.000723603049520575 -0.000871140566641474 -0.000776837957136579 -0.00072376590451243 0.00147030410514296 0.00127759357672643 -0.000502138652181182
"210" -0.000889588312725576 -0.000226012623710113 -0.00108437868563291 0.000550183795529753 -0.000480690414035188 -0.000317314312285926 -0.000967457578796998 -7.50246332026889e-05 -0.00088190080807336 -0.000743570075053193 -0.000889414486350115 -0.000796544525712414 -0.000724778435856881 0.00160426708499527 0.00109843161302247 -0.000498803620070699
"211" -0.000907704378342534 -0.000206028201215495 -0.00107901614156851 0.000576866715035417 -0.000469719305890666 -0.000284976051387219 -0.000978246067882466 -2.01627307498493e-05 -0.00090235470025214 -0.000762805523789371 -0.000907478991760519 -0.00081594485330488 -0.000726242241633913 0.00173821508440487 0.000925445669817681 -0.000495729570809229
"212" -0.000924265119354873 -0.000185850567441989 -0.00107057594805777 0.000600149400024164 -0.000458120824278665 -0.000253382358348847 -0.000987892958486294 3.01981744713564e-05 -0.000922162258552684 -0.000781223163486582 -0.000925257823039879 -0.000835005017429658 -0.000728175287730288 0.00187142856009683 0.000759238159995304 -0.0004929635643318
"213" -0.000939174410348386 -0.000165584127656189 -0.00105905424676386 0.000619793258149429 -0.000445931409264243 -0.000222764584039231 -0.000996345328678272 7.58387828181547e-05 -0.000941222488793187 -0.000798737253727656 -0.000942672126248852 -0.00085369028839987 -0.000730584973775122 0.00200315540313464 0.000600301192753978 -0.000490548454013122
"214" -0.000952351048487165 -0.000145347154324757 -0.00104447439095972 0.000635581162932906 -0.000433209998098761 -0.000193363190707554 -0.00100355032327379 0.000116584562666722 -0.000959438964566272 -0.000815269889447859 -0.000959651072965332 -0.00087196423334613 -0.000733471872455601 0.00213265619552425 0.000449023486731035 -0.000488525327900909
"215" -0.000963715150224115 -0.000125247549280835 -0.00102687781805729 0.000647332466133531 -0.000419998194924229 -0.000165407051815355 -0.00100946805861118 0.00015230220451565 -0.000976704916742739 -0.000830738124974874 -0.000976110092887688 -0.000889777621352612 -0.000736818902375398 0.00225915858602424 0.00030569966702002 -0.000486921728623952
"216" -0.000973196790207119 -0.000105398921258857 -0.00100633228964122 0.000654898318372666 -0.000406348617411744 -0.000139115689227555 -0.00101406337574591 0.000182903536218315 -0.000992913723918788 -0.000845068233043747 -0.000991975464953972 -0.000907089263409993 -0.00074060418069089 0.00238190144620313 0.000170532882297145 -0.000485763222892596
"217" -0.000980747251856611 -8.5911418231101e-05 -0.000982926545769133 0.000658166958588401 -0.00039230957841961 -0.000114702512847868 -0.00101731235376725 0.00020834923872899 -0.0010079664933129 -0.000858187723742526 -0.00100716833302739 -0.000923850371213106 -0.00074480260466236 0.00250013028423631 4.36375983053716e-05 -0.000485070582450855
"218" -0.000986315912324217 -6.68929179132229e-05 -0.000956766630436317 0.000657069639172292 -0.000377933724758972 -9.23628319164653e-05 -0.00101920039308395 0.000228650193826413 -0.00102175681297332 -0.000870029102008371 -0.00102161563266499 -0.000940012077758489 -0.000749364018660263 0.00261309251391076 -7.49431866171538e-05 -0.000484851192469639
"219" -0.00098987101324821 -4.84512754807257e-05 -0.000927990336842757 0.000651569373860975 -0.000363262439771372 -7.22821492371553e-05 -0.00101971836798759 0.000243857735489875 -0.00103418953430018 -0.000880526284541393 -0.00103524186802294 -0.000955529020507295 -0.000754250105826928 0.00272007196129122 -0.000185238208218415 -0.000485115411692931
"220" -0.000991397317291584 -3.06908440983222e-05 -0.000896749168743623 0.000641677127407219 -0.000348351603474485 -5.46207751948081e-05 -0.00101887426105213 0.000254075995865206 -0.0010451662911385 -0.000889622448636932 -0.00104798472444789 -0.000970346118078052 -0.000759402863361044 0.00282036735287798 -0.000287328194175129 -0.000485863936973544
"221" -0.00099088114436453 -1.37031260730533e-05 -0.000863218433493604 0.000627442488000364 -0.000333242357683294 -3.95208156552567e-05 -0.00101667787864654 0.000259451407747502 -0.00105459736703358 -0.000897259550149243 -0.00105977882257407 -0.000984420615600152 -0.000764761328230064 0.00291331083530988 -0.000381359732793607 -0.000487086864573638
"222" -0.00098833698899459 2.41628718370589e-06 -0.000827593152208804 0.00060895782232507 -0.000317984938387776 -2.71042117374413e-05 -0.00101315888298355 0.000260172157799057 -0.00106240374658498 -0.000903390595893027 -0.00107057196462471 -0.000997706185484722 -0.000770266899318688 0.00299829416943986 -0.000467507208783297 -0.000488781767815288
"223" -0.000983779694952501 1.75822626147644e-05 -0.000790086199837414 0.00058635536966359 -0.000302624142259429 -1.74672310222216e-05 -0.00100834335251783 0.000256465977520138 -0.00106851363418437 -0.000907972747029836 -0.00108031068806232 -0.00101016046093147 -0.000775848251377345 0.00307474472246672 -0.000545990684960828 -0.000490935704993777
"224" -0.000977247634690187 3.17134803551833e-05 -0.000750933217243065 0.000559802929782423 -0.000287205653384817 -1.06820630450147e-05 -0.00100228294119356 0.000248597488345495 -0.00107286408966167 -0.000910968323040758 -0.00108895691536873 -0.00102175220601675 -0.000781443673448884 0.00314215676580314 -0.000617061530926087 -0.000493529239941047
"225" -0.00096878971878522 4.47435296145846e-05 -0.000710381181805117 0.000529509049423768 -0.00027178005414044 -6.7882755191544e-06 -0.000995030672108543 0.000236857786236753 -0.00107540562509493 -0.000912348910862668 -0.0010964769635567 -0.00103244518055622 -0.00078697751366068 0.00320008027457987 -0.000680992476756995 -0.000496544909090911
"226" -0.000958471794513509 5.66066986413578e-05 -0.000668691330684834 0.000495718327615379 -0.000256384335743925 -5.8042244678508e-06 -0.000986653251052697 0.000221574043672856 -0.0010761028700568 -0.000912091765784676 -0.00110285230559487 -0.00104221556077247 -0.000792393709973423 0.00324815057813437 -0.000738075846874607 -0.000499962568118833
"227" -0.000946368050870917 6.72515610017117e-05 -0.000626139967531947 0.000458703172337515 -0.00024106609375048 -7.72082007027268e-06 -0.00097722322672838 0.000203082198807008 -0.0010749328793138 -0.000910185966909175 -0.00110807133812075 -0.00105104993080255 -0.000797625858920567 0.0032860675775445 -0.000788614063316979 -0.00050376155220573
"228" -0.000932577185918664 7.66320421148801e-05 -0.000583014188902178 0.000418767682259768 -0.000225876291495099 -1.2498669428612e-05 -0.000966825446570146 0.000181747124317559 -0.00107189666439583 -0.000906628282169843 -0.0011121375416802 -0.00105893988421244 -0.000802616231779386 0.00331362754591082 -0.000832923141230494 -0.000507919081783853
"229" -0.000917197895099106 8.47209829246958e-05 -0.000539607642907814 0.000376238190522556 -0.000210851185949459 -2.00756882037791e-05 -0.000955555282893321 0.000157943419705959 -0.0010669992546128 -0.000901420218333876 -0.00111505508506301 -0.00106588594528256 -0.000807309440088546 0.00333069036880652 -0.000871321261941386 -0.000512411638446251
"230" -0.000900344953688415 9.14933611638101e-05 -0.000496224003229665 0.000331465431678686 -0.000196042355077438 -3.03582412003054e-05 -0.000943512957857426 0.000132048172192382 -0.00106027260559117 -0.000894581269732848 -0.00111685414633767 -0.00107189699315814 -0.000811666301887221 0.00333722161282878 -0.000904131219790248 -0.000517219867338301
"231" -0.000882150202230509 9.69366035908016e-05 -0.000453164879500858 0.000284816305127942 -0.000181490902944488 -4.32325903767991e-05 -0.000930804801530163 0.00010444636780845 -0.00105175698572383 -0.00088613397179212 -0.00111756699575748 -0.00107699298823318 -0.000815641141643854 0.00333326548804326 -0.000931672197505646 -0.000522319648274723
"232" -0.000862746953497913 0.000101053592429735 -0.00041073900294922 0.000236670640238467 -0.000167239970991293 -5.8559662177863e-05 -0.000917547124878657 7.55185218552891e-05 -0.00104151975768186 -0.000876116235957429 -0.00111723963871178 -0.00108120702394842 -0.000819204355435702 0.00331896422413661 -0.000954263317872623 -0.000527694480287506
"233" -0.000842282092862214 0.000103858981591273 -0.000369243044902031 0.000187415980978031 -0.000153334939327782 -7.61810698893962e-05 -0.000903860793969026 4.56362757102055e-05 -0.00102963383757863 -0.000864571388666935 -0.00111593119960467 -0.00108457758972239 -0.00082233432146534 0.00329453650206117 -0.000972217905966044 -0.000533319511510986
"234" -0.00082090709435277 0.00010537379141647 -0.000328978190002185 0.000137446439496795 -0.000139818860483119 -9.59183780682639e-05 -0.000889868526981413 1.5165299167934e-05 -0.00101619675084403 -0.000851558402117305 -0.00111370754648519 -0.00108715516087436 -0.000825015746112474 0.00326030378557371 -0.000985839737593029 -0.000539185578245571
"235" -0.000798774471544763 0.000105636733114303 -0.000290229873770391 8.71573426665085e-05 -0.000126733447753021 -0.000117577977744569 -0.000875698603576145 -1.55466623627518e-05 -0.00100131619699276 -0.000837141445689074 -0.00111064656902035 -0.00108899544422713 -0.000827243854790732 0.00321665389227557 -0.000995434394714473 -0.000545270040633268
"236" -0.000776048687682131 0.000104693454682243 -0.000253280667545204 3.69428141832152e-05 -0.000114121845983583 -0.000140947158666922 -0.000861477497436459 -4.61694458242876e-05 -0.000985115766011114 -0.000821396177413879 -0.00110682783978277 -0.00109016990779602 -0.00082901938327785 0.00316406423822016 -0.00100128386131672 -0.000551561696666159
"237" -0.000752888577340418 0.000102603986440156 -0.000218390975787106 -1.28135861945656e-05 -0.00010202858305976 -0.000165806816239142 -0.000847338471042012 -7.63901208448819e-05 -0.00096773247140351 -0.000804408936916679 -0.00110235210011016 -0.00109075210082707 -0.000830359853032005 0.00310308338539058 -0.00100367585717701 -0.000558047404652027
"238" -0.000729455635469747 9.94363479601818e-05 -0.000185807662133884 -6.17317715784998e-05 -9.04833286326698e-05 -0.000191925528134708 -0.00083340765169036 -0.000105922348449594 -0.000949310570624974 -0.000786272119071257 -0.00109730993130638 -0.00109082019727214 -0.000831277902153157 0.00303432464814693 -0.00100288365322722 -0.000564712024819328
"239" -0.000705907899327115 9.52691432370757e-05 -0.000155755725759513 -0.000109449249408055 -7.95326723592788e-05 -0.000219069707434387 -0.000819812624602772 -0.000134504213062036 -0.000930006160523022 -0.000767091120718782 -0.00109180547001455 -0.00109046732753444 -0.000831804736886311 0.00295846515930565 -0.000999164025012436 -0.000571548432305678
"240" -0.000682403848553623 9.01942936845468e-05 -0.00012844465287301 -0.00015561609169761 -6.92095180161482e-05 -0.000246993498215594 -0.000806672231670413 -0.000161898914128609 -0.000909982984979592 -0.000746975350629289 -0.00108594305711545 -0.00108978508588354 -0.000831969370865363 0.00287623078863415 -0.00099277183679364 -0.00057854423172961
"241" -0.000659097372129247 8.43036371584993e-05 -0.000104054366690033 -0.000199902230740271 -5.95490713915357e-05 -0.000275459203998262 -0.000794108043529802 -0.000187901682685348 -0.00088941323537271 -0.00072603991522307 -0.00107983190710462 -0.00108886582635539 -0.000831814508840808 0.00278840346185686 -0.000983944161453906 -0.000585690882496297
"242" -0.000636131702489266 7.7704000453958e-05 -8.27404051043952e-05 -0.000241994977450197 -5.05849601875051e-05 -0.000304221948920363 -0.00078223174309472 -0.000212334008993277 -0.00086846703752545 -0.000704410665614784 -0.00107357872069759 -0.00108781499648719 -0.000831390003984975 0.00269579457726169 -0.000972912584637616 -0.000592978805007686
"243" -0.000613640107361852 7.05045676918941e-05 -6.4631069443604e-05 -0.000281607277333425 -4.23450736793977e-05 -0.000333046091046147 -0.000771145234096678 -0.00023504595715954 -0.000847320328382666 -0.000682214863919861 -0.00106729130203587 -0.00108672829086351 -0.00083073761059206 0.00259924547168939 -0.000959888537400629 -0.000600396332376526
"244" -0.000591762473157848 6.28221235569756e-05 -4.98249843229972e-05 -0.000318471278720286 -3.48558265530623e-05 -0.000361700170008686 -0.000760944298433139 -0.000255920332564559 -0.000826151189987389 -0.000659586596733147 -0.00106107223110322 -0.00108570717784719 -0.000829918960605373 0.00249961736464909 -0.000945076998978034 -0.000607936480122753
"245" -0.000570615169696017 5.47748903746611e-05 -3.83956673160186e-05 -0.000352348529510582 -2.81479849256881e-05 -0.000389957548272381 -0.000751718226135149 -0.000274867540257066 -0.000805132329737251 -0.000636664302821712 -0.00105502514466546 -0.00108484943367254 -0.000828987806081303 0.00239778683040537 -0.00092867024460099 -0.000615591815988212
"246" -0.000550310598765175 4.64849419456234e-05 -3.0382474947602e-05 -0.000383021308737818 -2.22442067332891e-05 -0.000417603029235284 -0.000743543131563061 -0.000291830021481835 -0.000784435475896594 -0.000613585361394053 -0.00104924116446334 -0.00108425401384206 -0.000828004630123173 0.00229462935810382 -0.000910844076013769 -0.000623345943696972
"247" -0.000530949549343225 3.80758925880367e-05 -2.5795145714343e-05 -0.000410305387466906 -1.71601643708406e-05 -0.000444431231825839 -0.000736483174231421 -0.000306778825671184 -0.000764226004355773 -0.000590493930777902 -0.0010438140451391 -0.00108401271235599 -0.000827033235790787 0.00219101829543612 -0.000891766271860176 -0.000631194508965845
"248" -0.000512622054707812 2.96683877937529e-05 -2.46174719550979e-05 -0.000434037938241333 -1.29224038583939e-05 -0.000470250263061452 -0.000730593527850342 -0.000319709337902188 -0.000744665436997969 -0.000567530823872109 -0.00103882379593576 -0.00108421113748134 -0.000826136045041335 0.00208780988845653 -0.00087158913823037 -0.000639120995262471
"249" -0.000495410181467742 2.13873184863396e-05 -2.68026897007071e-05 -0.000454087311110934 -9.54000461833506e-06 -0.000494880367508876 -0.000725918506582121 -0.000330647221435606 -0.000725907722557806 -0.000544840975801365 -0.00103435186166562 -0.00108493766057418 -0.000825378299536052 0.00198584831152256 -0.000850453266864389 -0.000647117837799597
"250" -0.000479381907244489 1.33471298925853e-05 -3.22744920783181e-05 -0.000470347896572735 -7.02868874509183e-06 -0.000518158843271899 -0.000722487208895894 -0.000339643274301254 -0.000708096561341719 -0.000522569053131368 -0.00103046432179403 -0.00108626619179377 -0.000824820289398598 0.00188594187753455 -0.000828489530422981 -0.000655170969937581
"251" -0.000464594876857723 5.66581729113773e-06 -4.09333619014116e-05 -0.000482742685601224 -5.40074783982161e-06 -0.000539932215397485 -0.000720313676415175 -0.000346773257806589 -0.000691362679890431 -0.000500851911142334 -0.00102721684783478 -0.00108826684826936 -0.00082452971858205 0.00178886062897495 -0.000805814236658482 -0.000663269128137127
"252" -0.000451100407727969 -1.54949397173853e-06 -5.26525899068914e-05 -0.000491225595948133 -4.66630951340551e-06 -0.00056006878015706 -0.000719407762728775 -0.000352130711662183 -0.000675834674669125 -0.000479830202837507 -0.00102466403436548 -0.00109099766456186 -0.000824562858706837 0.00169534197740305 -0.000782536574196365 -0.000671398263509104
"253" -0.000438935447335228 -8.19678647198757e-06 -6.72860064941444e-05 -0.000495771994972315 -4.82969609564627e-06 -0.000578450837341022 -0.000719757197987572 -0.000355838482364813 -0.00066162205934742 -0.000459639005741765 -0.00102284518007667 -0.00109452081270445 -0.000824986791377767 0.00160607442800598 -0.000758757737939397 -0.000679546341329826
"254" -0.000428127195357973 -1.41812040757631e-05 -8.46602222257327e-05 -0.000496390513872951 -5.89437839790198e-06 -0.000594979521480638 -0.000721348284150378 -0.000358030232096653 -0.000648823125570579 -0.000440409365973706 -0.00102179273448562 -0.00109887187517823 -0.000825855152146164 0.00152169350872631 -0.000734560725331997 -0.000687700074959639
"255" -0.000418698569774418 -1.94143476415998e-05 -0.000104593077916379 -0.000493114336771322 -7.86658699613628e-06 -0.000609568502634212 -0.000724143215938153 -0.00035886298266069 -0.000637526555062305 -0.000422266702705233 -0.00102152861291775 -0.00110409110652637 -0.000827227025146353 0.00144277535611764 -0.000710027883704399 -0.000695846712903244
"256" -0.000410657539166779 -2.38222718072332e-05 -0.000126878926169941 -0.00048600334703866 -1.0742369061948e-05 -0.000622155548695937 -0.000728102509194972 -0.000358504095843116 -0.000627806792476102 -0.000405334960313343 -0.00102206868815328 -0.00111020424674962 -0.00082915419047027 0.00136984395867904 -0.000685225274360159 -0.000703975687064401
"257" -0.00040400675197115 -2.73367864502194e-05 -0.000151302046907654 -0.000475143593590204 -1.45207117960844e-05 -0.000632688664006287 -0.000733172575544942 -0.000357136829164274 -0.000619722313811861 -0.000389727634701912 -0.00102341492308883 -0.00111722756086635 -0.000831691706251998 0.0013033538221861 -0.000660213615714661 -0.000712073592037835
"258" -0.000398744226415923 -2.99008680672436e-05 -0.000177633655006949 -0.000460643968839436 -1.91949445386227e-05 -0.00064113867239975 -0.000739285766927245 -0.000354954355094917 -0.000613319818265822 -0.000375548852007642 -0.00102556467913249 -0.00112516467700258 -0.000834877340573 0.00124369103089283 -0.000635040288472639 -0.000720127775995874
"259" -0.000394856065420972 -3.14713916449156e-05 -0.000205636833256978 -0.000442638123906634 -2.47538330910192e-05 -0.000647487735074804 -0.000746371480889239 -0.000352159300316945 -0.00060863155430006 -0.000362903522483982 -0.00102850654644932 -0.00113401618436922 -0.000838762189289173 0.00119118114252073 -0.00060975069700994 -0.000728128808591443
"260" -0.000392325372561873 -3.20126782291256e-05 -0.000235070494898035 -0.000421287064147985 -3.11932981623023e-05 -0.000651735626891681 -0.000754344307071695 -0.000348960374161091 -0.000605676475360894 -0.000351879061220307 -0.00103221485585194 -0.00114376806606515 -0.000843380508025672 0.00114607956486374 -0.000584376008561704 -0.000736067218448975
"261" -0.000391128789020305 -3.15041192951558e-05 -0.000265689354497919 -0.000396766965998285 -3.84941844214288e-05 -0.000653901582103644 -0.000763116562323515 -0.000345564128399326 -0.000604457976971481 -0.000342557121707264 -0.00103666532491572 -0.00115439882797245 -0.000848766397348879 0.00110856742812768 -0.000558940791582148 -0.000743933115025193
"262" -0.000391237378539664 -2.9934567436901e-05 -0.000297243225184356 -0.000369280982342554 -4.6641795510218e-05 -0.000654016340305197 -0.000772588370977399 -0.000342191875530431 -0.000604966752144 -0.00033501063993013 -0.00104181985742478 -0.00116587446970497 -0.000854949279696185 0.00107875576919179 -0.000533470346807924 -0.000751714825544758
"263" -0.000392612753448952 -2.73067705066786e-05 -0.000329486787899907 -0.000339048253334543 -5.56130930250289e-05 -0.000652130007534466 -0.000782652870761323 -0.000339051278753715 -0.000607176115229863 -0.000329296221338842 -0.00104763425058843 -0.00117815356603955 -0.000861946541610213 0.00105669236743943 -0.000507973323371182 -0.000759405017713073
"264" -0.000395220074093502 -2.36319660770619e-05 -0.000362180242548765 -0.000306309376657624 -6.53865175956212e-05 -0.000648303583144633 -0.000793206000015827 -0.000336352983060645 -0.000611051312798852 -0.00032546495298888 -0.00105406351106588 -0.00119118703261667 -0.0008697831919658 0.00104234863297689 -0.000482454911058901 -0.000766999157631623
"265" -0.000399013036934706 -1.89358195323288e-05 -0.000395082689871719 -0.000271318980459995 -7.59317130948925e-05 -0.000642608473275118 -0.000804133416375219 -0.000334301767739051 -0.000616538193372098 -0.000323552975998039 -0.00106104703884144 -0.00120491602874749 -0.000878463403342328 0.0010356332974622 -0.000456910716314971 -0.000774483603951198
"266" -0.000403946338251 -1.3246609243772e-05 -0.000427964831521258 -0.000234349750482463 -8.72175950497834e-05 -0.000635133899601753 -0.000815319073319031 -0.000333091479549916 -0.00062357496761942 -0.000323583161591854 -0.00106852483735483 -0.00121927193199808 -0.000887989233148351 0.0010363927085224 -0.000431330534595363 -0.000781853192917572
"267" -0.000409967819749586 -6.61422532233377e-06 -0.000460602095312443 -0.000195686954139912 -9.92038894101924e-05 -0.000625979230385966 -0.000826641350153091 -0.000332912758245166 -0.000632080939982463 -0.000325565295639562 -0.00107643103811681 -0.00123418438141819 -0.000898361104091298 0.00104439854217045 -0.000405693779314719 -0.000789098164420877
"268" -0.000417024645232117 9.12587500894575e-07 -0.000492783521267911 -0.000155626430637226 -0.000111851286416079 -0.000615253999875338 -0.000837983006541055 -0.000333937167092819 -0.000641969114123385 -0.000329500696680714 -0.00108469754944171 -0.00124956870856513 -0.000909561210572353 0.00105937813692978 -0.000379979080152122 -0.000796212375761054
"269" -0.000425058588958746 9.26867105413484e-06 -0.000524306189157462 -0.000114480960904132 -0.000125112669886804 -0.000603078601941618 -0.000849222724190455 -0.000336324375019999 -0.000653136911523916 -0.000335369715606061 -0.00109324542284254 -0.0012653353148156 -0.000921577183896141 0.00108099359736097 -0.000354159521017525 -0.000803185175591597
"270" -0.000434005025869212 1.83897327531469e-05 -0.000554978458035504 -7.25593123627088e-05 -0.000138936139077516 -0.000589578890823208 -0.000860246366492735 -0.000340216437592971 -0.000665467602686728 -0.000343139864289582 -0.00110199742053672 -0.00128139316536256 -0.000934374238549109 0.00110884471176542 -0.000328198380117666 -0.000810007896213763
"271" -0.000443810196859642 2.81952904757959e-05 -0.000584630708911165 -3.01889436600324e-05 -0.000153265966139796 -0.00057489272133095 -0.000870930551738861 -0.000345743174199694 -0.000678843191390432 -0.000352768683231913 -0.00111087206984562 -0.00129764048228876 -0.000947918860610346 0.00114250830841257 -0.000302057891776267 -0.000816669896126777
"272" -0.000454398027359717 3.86076518330673e-05 -0.000613095120850573 1.23088418036078e-05 -0.000168039751515019 -0.000559160210022453 -0.000881163949083435 -0.00035300993424065 -0.000693126026204923 -0.000364192416297424 -0.00111978549971079 -0.00131397459008655 -0.000962167051941719 0.00118149132148688 -0.000275701716379622 -0.000823158403194903
"273" -0.000465709487974772 4.95375934171376e-05 -0.000640226313332887 5.46052437517005e-05 -0.000183191409250113 -0.000542527259982896 -0.00089083882513906 -0.000362099283309162 -0.000708175333936794 -0.000377340738321688 -0.00112865553472019 -0.00133028915473386 -0.000977066054878127 0.0012252791652464 -0.000249091782329274 -0.00082946607883796
"274" -0.000477669171082556 6.08990735674745e-05 -0.000665894885100637 9.63733401772008e-05 -0.00019864913468108 -0.000525151095778111 -0.00089984646273943 -0.000373080509987759 -0.000723844125787517 -0.000392125546690511 -0.00113739437469312 -0.00134647486197822 -0.000992556172596401 0.00127331566564525 -0.00022218485709755 -0.00083557522507752
"275" -0.000490207173914963 7.25928683984595e-05 -0.000689981371848199 0.000137296173528413 -0.000214334547879834 -0.000507177776693961 -0.000908088044061626 -0.000385990250207516 -0.000739972915982576 -0.000408441601519531 -0.00114591246500195 -0.00136241625673488 -0.0010085698779291 0.00132501550654553 -0.000194947619380059 -0.000841472643588302
"276" -0.000503251887850545 8.45308635964591e-05 -0.000712388128936341 0.00017705622294224 -0.000230175027600487 -0.000488765502907411 -0.000915470220860485 -0.000400850201512312 -0.000756403098097273 -0.000426178948996154 -0.00115412735305904 -0.00137800764151162 -0.00102502995972064 0.00137977784382391 -0.000167348477573092 -0.000847144735685002
"277" -0.000516731818127039 9.66123125681971e-05 -0.000733027152436391 0.000215349208724118 -0.000246076286118092 -0.000470071147728314 -0.000921911280298459 -0.000417651964608507 -0.000772970109685124 -0.00044520760723808 -0.00116195350466155 -0.00139313873026015 -0.0010418561072209 0.00143698034761573 -0.000139364584495102 -0.000852576706321957
"278" -0.000530571534456794 0.000108746912071964 -0.000751837077125814 0.000251879098064049 -0.000261962102571933 -0.000451243518119892 -0.000927326355403999 -0.000436367165419919 -0.000789509545862651 -0.000465393817109702 -0.00116931317428436 -0.00140769641098111 -0.00105896322254836 0.00149599838178417 -0.0001109816187545 -0.000857753939297611
"279" -0.000544696813908822 0.000120834598406767 -0.000768761722655687 0.000286364504569553 -0.000277734096281672 -0.000432439685277243 -0.000931652760099184 -0.000456942216967422 -0.000805857837228241 -0.000486585327019839 -0.00117612776681442 -0.00142158269890883 -0.00107626207062055 0.00155620271581494 -8.21994254903319e-05 -0.000862662477076738
"280" -0.000559036955587671 0.000132789926185807 -0.000783768600089357 0.000318548755953686 -0.000293309350346115 -0.000413801753601781 -0.000934827895554469 -0.000479299706248421 -0.000821849232277378 -0.000508628780501042 -0.00118232120095232 -0.00143469550812486 -0.00109365460703783 0.00161695871250072 -5.30368462962901e-05 -0.000867288119111276
"281" -0.000573519818490734 0.000144520079204038 -0.000796838358615724 0.000348185331209953 -0.000308587341990933 -0.000395476259234643 -0.000936804948883994 -0.000503338780468242 -0.000837320977015837 -0.000531357304668813 -0.00118782783411406 -0.00144693646229598 -0.00111104150625265 0.0016776454157419 -2.35226325856699e-05 -0.000871612453097015
"282" -0.000588074165054067 0.000155942317556825 -0.000807963584283898 0.000375051365462032 -0.000323477006748371 -0.000377597714147381 -0.00093754242558976 -0.000528939308570131 -0.000852124980275007 -0.000554601027391749 -0.00119258367074815 -0.00145822661369791 -0.0011283304314749 0.00173766709722935 6.29439430033865e-06 -0.000875631782122886
"283" -0.000602631956404405 0.000166976987744508 -0.000817160200500429 0.000398953410854897 -0.000337888520165315 -0.000360293191896573 -0.000937016756313412 -0.000555964069690466 -0.000866106900158169 -0.000578183174711513 -0.00119653588869401 -0.00146848014742813 -0.00114541499220457 0.00179643812484385 3.63374848905461e-05 -0.000879328496789197
"284" -0.000617126125415748 0.000177547220699374 -0.000824446292516146 0.000419716537870438 -0.000351721922560576 -0.000343688161213005 -0.000935206361988892 -0.000584247517577879 -0.000879128822845234 -0.000601923095121583 -0.00119963975528462 -0.00147763420397312 -0.00116219590363059 0.00185340545879332 6.65090126315974e-05 -0.000882696833850974
"285" -0.000631495795763943 0.000187588905316493 -0.00082986833873554 0.000437199569156333 -0.000364898265847692 -0.000327891442767627 -0.000932110370546955 -0.000613617501097566 -0.000891062794404992 -0.000625640977818911 -0.0012018517251007 -0.00148562546540357 -0.00117858207614801 0.00190804548542727 9.66836472247276e-05 -0.000885731449187601
"286" -0.000645675878919279 0.000197037084591843 -0.00083347221814478 0.000451285369141903 -0.000377322039327727 -0.000313007274100039 -0.00092773144327547 -0.000643879167164811 -0.000901790206501085 -0.000649150145155326 -0.0012031465893573 -0.00149240826966598 -0.00119447537114823 0.00195986873979113 0.000126709811738945 -0.000888430441230677
"287" -0.000659613402388267 0.000205843908677254 -0.000835324538985449 0.000461891805343414 -0.000388910030974525 -0.000299127213844019 -0.000922093825763179 -0.000674824182274347 -0.000911204818639365 -0.000672274476606111 -0.00120350669680403 -0.00149794657652312 -0.00120978758659112 0.00200842454668633 0.000156411136821384 -0.000890790637270286
"288" -0.000673250240966582 0.00021395962964331 -0.000835497825100862 0.000468963837368107 -0.000399583586033814 -0.000286327845537861 -0.000915219331606106 -0.000706237253854211 -0.000919217083826155 -0.00069482839138735 -0.00120291561880411 -0.0015022181806261 -0.00122442837351067 0.00205331709537965 0.000185573639003787 -0.00089281658751977
"289" -0.000686543578223727 0.000221349083550218 -0.000834078938913669 0.000472479787637958 -0.000409268517099641 -0.000274685230323869 -0.000907154073149109 -0.000737889638161982 -0.000925750996619523 -0.000716640237421939 -0.00120137929073727 -0.00150521288382423 -0.00123832259080679 0.00209418876354593 0.000213961698374006 -0.000894515589349118
"290" -0.0006994418075644 0.000227986868597053 -0.000831161254515376 0.000472444615738774 -0.000417898345693478 -0.000264251027046246 -0.000897947924406521 -0.000769545753079952 -0.000930750078909063 -0.000737540184883694 -0.00119891282863517 -0.00150693467628875 -0.00125139705333251 0.00213073980710492 0.000241306699037244 -0.000895898417614333
"291" -0.000711903664730203 0.000233848934861089 -0.000826846812656135 0.000468900418068243 -0.000425407352810798 -0.000255075943607117 -0.000887664242758676 -0.000800966607779783 -0.000934167843890377 -0.000757364900662462 -0.0011955328632041 -0.00150740093050659 -0.00126358230029575 0.00216270683157169 0.000267315028653951 -0.000896977645861176
"292" -0.000723894905440784 0.000238930974061122 -0.000821239804785351 0.000461916117215453 -0.000431744096017381 -0.00024718675364806 -0.000876372226029329 -0.000831906541648425 -0.000935982960203952 -0.000775959988634007 -0.00119127335979248 -0.00150663946273656 -0.00127482685379584 0.00218989305985171 0.000291671102980579 -0.000897772164360015
"293" -0.000735377026761575 0.000243228416023043 -0.000814458645730834 0.000451588483518709 -0.000436855261678804 -0.000240609005311776 -0.000864154394595592 -0.000862122192275514 -0.000936183821278262 -0.000793176479636795 -0.00118617704459113 -0.00150469548398612 -0.00128507821392099 0.00221214220827969 0.000314037156363335 -0.000898301006872444
"294" -0.000746326623300262 0.000246752475983722 -0.000806618280311549 0.000438045048842672 -0.00044070513561382 -0.000235355157771073 -0.000851099704103749 -0.000891367877352276 -0.000934780302421495 -0.000808882699018095 -0.00118029613019884 -0.00150162251988603 -0.00129429667228125 0.00222936592787907 0.000334056495942164 -0.000898589620559952
"295" -0.000756715555522859 0.000249521405998865 -0.000797839789410924 0.00042143505193439 -0.000443259196376523 -0.000231419811783856 -0.000837302130819245 -0.00091940396065806 -0.000931797937218518 -0.000822953058194477 -0.00117368868213554 -0.00149748759612388 -0.00130244797819368 0.00224150813716382 0.000351365072981611 -0.000898660725079862
"296" -0.000766522726050833 0.000251562446270377 -0.000788238478867025 0.000401933486951079 -0.000444497496058364 -0.000228795029235099 -0.000822866496364021 -0.00094599330270236 -0.000927276625203629 -0.000835275392605725 -0.00116641973002284 -0.00149237038177962 -0.00130951042024834 0.00224856944167941 0.000365578750691195 -0.000898544480698777
"297" -0.000775732255994196 0.000252905252656789 -0.000777939762961397 0.000379733786407947 -0.000444400236290192 -0.000227454742016214 -0.000807900047859566 -0.000970909912421506 -0.000921279620879966 -0.000845753051716552 -0.00115857402570684 -0.00148635369188385 -0.00131546675666192 0.00225061100390717 0.000376320569668616 -0.000898274710379414
"298" -0.000784328288633931 0.00025359725154675 -0.000767060580556573 0.000355052183617236 -0.000442967742594246 -0.000227369152773145 -0.00079251162687859 -0.00099392920278203 -0.000913873528800316 -0.000854297792877052 -0.00115022157336215 -0.0014795361707028 -0.0013203134529995 0.00224771300316528 0.000383218730693428 -0.00089787764490343
"299" -0.000792305497475239 0.000253686770226991 -0.000755720808413336 0.00032811512619013 -0.000440198621230964 -0.000228499931851917 -0.000776817146996822 -0.00101484517662278 -0.000905148172373588 -0.000860844210149317 -0.00114145251915975 -0.00147202318985748 -0.00132405045792578 0.00224002492685405 0.00038590635936029 -0.000897388374873074
"300" -0.000799651771516775 0.000253228518929029 -0.000744028398924635 0.000299171182059953 -0.000436104354852004 -0.000230796001427704 -0.000760932649673567 -0.0010334571484621 -0.000895200241625478 -0.000865333092248493 -0.0011323579529732 -0.0014639179381324 -0.00132668785880585 0.00222771664672618 0.000384047586362402 -0.000896839271596758
"301" -0.000806365906657965 0.000252283274839819 -0.000732095064451282 0.000268466687909161 -0.000430709055741815 -0.00023420561811117 -0.000744971239115237 -0.00104958387180735 -0.000884136758174751 -0.000867727734466543 -0.00112302499929408 -0.00145533477044754 -0.00132824407931129 0.00221099489526504 0.000377315008084339 -0.0008962615731085
"302" -0.00081244922272821 0.000250919471482238 -0.000720021187546709 0.000236265796545348 -0.000424043047567322 -0.000238662936051996 -0.000729050777607405 -0.00106305496640765 -0.000872080417000855 -0.000868002399664932 -0.00111354838783367 -0.0014463903684534 -0.00132873811995264 0.00219011297648822 0.000365424240970447 -0.000895688404045232
"303" -0.000817904419133619 0.00024920693961337 -0.000707901397699679 0.000202832719696821 -0.0004161397036179 -0.000244103995979845 -0.000713281515371326 -0.00107371497523156 -0.000859155103790605 -0.000866151755533098 -0.00110401895518993 -0.00143719885388508 -0.00132820568628954 0.00216533085521084 0.000348123438978801 -0.000895146590981967
"304" -0.000822738530132954 0.000247213991082732 -0.000695826764971817 0.000168431613267392 -0.000407048801078097 -0.000250457285800129 -0.000697768532201714 -0.00108143144036906 -0.000845492244513245 -0.000862181591885235 -0.00109452834948652 -0.00142787516429278 -0.00132667280097637 0.00213694223748032 0.000325203898511299 -0.000894664224831101
"305" -0.000826959717876312 0.000245019522093801 -0.000683878266555776 0.000133330080708517 -0.000396823010955766 -0.000257646899248382 -0.000682620980487048 -0.0010860840738501 -0.000831231819762035 -0.000856117463047145 -0.00108516351172321 -0.00141853560247416 -0.00132418861679813 0.00210526783028363 0.000296504301151596 -0.000894265263100208
"306" -0.000830580129384451 0.000242697051469553 -0.000672127614091152 9.77845750333195e-05 -0.000385525021029886 -0.000265600687627855 -0.000667927996787636 -0.00108757352326945 -0.000816512124387425 -0.000847997390095987 -0.00107601125628975 -0.00140928780204332 -0.00132078931553603 0.00207062987548933 0.000261923127364025 -0.000893974313528153
"307" -0.000833617920730753 0.000240320341446041 -0.000660635977193768 6.20564227631931e-05 -0.000373218937797845 -0.000274234068931537 -0.000653784425881085 -0.00108581926124611 -0.00080147250911859 -0.000837878054117311 -0.00106714741348938 -0.00140023209189905 -0.00131652633972939 0.00203335616006612 0.000221405432322485 -0.000893804859474272
"308" -0.000836090385084971 0.000237965541951667 -0.000649462342007999 2.63882335269316e-05 -0.000359983675044981 -0.000283468104202373 -0.000640270562721831 -0.00108076393410657 -0.000786247414714265 -0.000825827016385355 -0.00105864408516745 -0.0013914687353881 -0.00131144072624718 0.00199379599555312 0.000174973452648492 -0.000893770456532539
"309" -0.000838022071582539 0.000235698351274767 -0.000638648733558629 -8.98257599758958e-06 -0.000345896638879832 -0.00029322570420902 -0.000627454901223596 -0.00107236873725334 -0.00077097796216257 -0.000811928759066029 -0.00105056338536753 -0.00138308387236302 -0.00130559079959354 0.00195228801079107 0.000122703042280485 -0.000893882078829279
"310" -0.000839432810042791 0.000233588000140543 -0.000628233872971565 -4.38324338551836e-05 -0.00033104699676527 -0.000303425461061502 -0.000615400491961587 -0.00106061715062294 -0.000755793185245696 -0.000796279189980532 -0.00104296899807856 -0.00137515755458312 -0.00129902495265551 0.00190917912323309 6.4740112472424e-05 -0.000894143018197623
"311" -0.000840351845746938 0.000231690865895489 -0.000618244238097509 -7.79524417544869e-05 -0.000315525600134794 -0.000313993635783552 -0.000604159722715451 -0.0010455161793666 -0.000740815053049427 -0.000778989192746571 -0.00103590686484619 -0.00136775586946308 -0.00129179511810752 0.00186479682377552 1.28793539812532e-06 -0.000894549871479756
"312" -0.000840809951746699 0.000230065059612425 -0.000608701243165726 -0.000111146731894162 -0.000299427112136933 -0.000324852037394393 -0.000593770949123789 -0.00102709192150708 -0.000726165416550255 -0.00076017898424098 -0.00102941191643166 -0.00136093732736776 -0.00128395138445239 0.00181947364359991 -6.73720632441308e-05 -0.00089510271152847
"313" -0.000840835368502797 0.000228754629919464 -0.000599614618384446 -0.000143239640887277 -0.000282850323323367 -0.000335923186488783 -0.000584259370082217 -0.00100539811818406 -0.000711947399136233 -0.000739978607982057 -0.00102351576400823 -0.00135474819479476 -0.0012755465472712 0.00177351269697569 -0.000140906942360879 -0.000895782249920881
"314" -0.000840468042895849 0.000227802204179572 -0.000590988313629859 -0.000174067904551941 -0.000265891011714566 -0.000347144342173451 -0.000575639560120222 -0.000980506254752509 -0.00069825631376806 -0.000718530725285666 -0.00101823489936606 -0.00134921335385478 -0.00126662907650885 0.00172721622799319 -0.000218911617781481 -0.000896579837792663
"315" -0.000839738434549332 0.000227236671793047 -0.000582817984862435 -0.000203490908508303 -0.000248656546598616 -0.000358442950057391 -0.000567919958947662 -0.000952515296425603 -0.00068518320754116 -0.000695983136847992 -0.00101357718302322 -0.00134435982874303 -0.00125724597650978 0.00168085838520788 -0.000300935839974487 -0.0008974673126613
"316" -0.000838685699304591 0.000227085695602055 -0.000575093064515915 -0.000231387528005642 -0.000231247847811971 -0.000369757559386076 -0.000561085914673228 -0.000921548097474431 -0.000672798603824126 -0.000672492684587314 -0.00100954039165618 -0.00134018944842435 -0.00124744505891 0.00163469782696137 -0.000386467606655353 -0.000898425212963972
"317" -0.000837351534745574 0.000227363320367793 -0.000567802918457451 -0.000257651494489538 -0.000213770221500659 -0.000381028419195222 -0.000555120656984 -0.000887745997144488 -0.000661158085194951 -0.00064821977453894 -0.00100611057310822 -0.00133669185444783 -0.00123726219345156 0.00158896070430786 -0.000474950110226879 -0.00089941986835192
"318" -0.000835782194459948 0.000228078178762518 -0.000560926036762937 -0.000282200573125186 -0.000196331552755039 -0.000392201059344752 -0.000549991193667784 -0.000851274893147928 -0.000650310041065498 -0.000623330060107268 -0.00100326013366528 -0.001333849876107 -0.00122674740491284 0.00154386688199487 -0.000565782808479263 -0.000900415576881106
"319" -0.000834016968360036 0.00022922890085475 -0.00055443439390572 -0.000304966602381556 -0.000179026047233078 -0.000403218945380464 -0.000545650995032927 -0.000812327171223409 -0.000640283264592256 -0.000597988537231997 -0.00100095699990072 -0.00133162330238167 -0.00121592438894467 0.00149958784048543 -0.000658336082480735 -0.000901373047822539
"320" -0.000832100944424246 0.000230803210294246 -0.000548306895728303 -0.00032590842202845 -0.000161961209284757 -0.000414041414241261 -0.00054204979213751 -0.00077111242588828 -0.000631094993015457 -0.00057236569677914 -0.000999157583671495 -0.0013299754218483 -0.00120483695680953 0.00145628559280845 -0.000751942718429088 -0.000902252707142856
"321" -0.000830084597777365 0.000232787008854209 -0.000542514039403603 -0.000344994861754068 -0.00014523077669704 -0.000424619861594482 -0.000539120565070003 -0.000727865703031189 -0.000622743180304707 -0.000546623776624949 -0.000997808014208337 -0.00132884258138211 -0.00119351017768454 0.00141408104794191 -0.00084591166563578 -0.000903005562856924
"322" -0.000828018751851011 0.00023514781971066 -0.000537028444500805 -0.000362218837339158 -0.000128936269731278 -0.000434916274142905 -0.000536794277871164 -0.000682838211125791 -0.000615216556845306 -0.000520933902365692 -0.000996844697665088 -0.00132815677682033 -0.0011819740927413 0.0013730895929069 -0.000939541714018218 -0.000903584945999196
"323" -0.000825945702218774 0.000237856971154809 -0.00053181452087072 -0.000377586750672933 -0.000113159465349259 -0.000444897244634839 -0.000534989996779901 -0.000636306492304009 -0.000608488027353979 -0.000495452833497721 -0.000996200830786259 -0.00132784758655555 -0.00117024942512906 0.00133337558005365 -0.00103211004196813 -0.000903941135485172
"324" -0.000823918637948351 0.000240868159223586 -0.000526847967526325 -0.000391124318897892 -9.7994537278873e-05 -0.000454527717833423 -0.000533617749557438 -0.000588559303686518 -0.00060251533881305 -0.000470335240366958 -0.000995802452778432 -0.00132782291351118 -0.0011583573006529 0.0012949951582604 -0.00112289156607313 -0.000904025079805382
"325" -0.000821991369669303 0.000244132236799439 -0.000522099032301969 -0.000402873280668502 -8.35170728361284e-05 -0.000463780218980414 -0.00053258874857674 -0.000539906262454712 -0.000597248657611987 -0.000445730987142359 -0.000995566942190814 -0.00132799365176199 -0.00114632119996938 0.00125797199125448 -0.00121115791440217 -0.000903780051502254
"326" -0.000820209377050715 0.00024759308877415 -0.000517543186101579 -0.000412887732531278 -6.98049005726211e-05 -0.000472633576301156 -0.000531804788264531 -0.000490673651924601 -0.000592621015191733 -0.000421785418963335 -0.000995413688690277 -0.00132826481013515 -0.00113415254264105 0.00122231942385571 -0.00129618897078106 -0.000903158286760449
"327" -0.000818621396987201 0.000251194330649615 -0.000513152033750666 -0.000421232413224862 -5.69248045082157e-05 -0.000481064298222401 -0.000531166079728445 -0.000441197172045448 -0.000588554025698195 -0.000398624877606975 -0.000995247881236116 -0.00132853289652949 -0.00112186786566111 0.00118800600376764 -0.00137727102283203 -0.000902108346664509
"328" -0.0008172801963458 0.00025486671239425 -0.000508913352127267 -0.000427991304049536 -4.49390543621118e-05 -0.000489051297555927 -0.000530571217538837 -0.00039182550629925 -0.000584970213896161 -0.000376378240002492 -0.000994989693026249 -0.00132869913217061 -0.00110948090335006 0.00115501186624244 -0.00145370886650696 -0.000900580571708621
"329" -0.00081623527598598 0.000258541698150264 -0.000504803667644075 -0.000433253039469284 -3.39066540516764e-05 -0.000496580814770952 -0.000529919937683939 -0.000342916150458497 -0.000581776359203967 -0.000355157037411032 -0.000994544089376874 -0.00132865747738827 -0.00109700640737781 0.00112328343018644 -0.00152482109069987 -0.00089852994908786
"330" -0.000815531287498891 0.000262145853968008 -0.000500817488090576 -0.000437117404959294 -2.38680124993754e-05 -0.000503640530909861 -0.000529113703774848 -0.000294832662498797 -0.000578877498297132 -0.000335061392385974 -0.000993827863918925 -0.00132830871955008 -0.00108445805810312 0.00109276074625685 -0.00158996003015566 -0.000895913351649811
"331" -0.000815210892711634 0.000265606807332033 -0.000496939815409114 -0.000439692115958667 -1.48712821694072e-05 -0.000510216388938512 -0.00052805059352183 -0.00024794241963758 -0.000576172598849074 -0.000316180226008632 -0.000992750796046498 -0.00132755130518873 -0.00107184601094867 0.00106336897297328 -0.00164849994716802 -0.000892689181137068
"332" -0.000815324082701863 0.000268848902439723 -0.000493173628623466 -0.000441093394107052 -6.94080093624684e-06 -0.000516297691424694 -0.000526642442862599 -0.000202609710884048 -0.000573562041148053 -0.000298593838839421 -0.000991238419915114 -0.00132629314604379 -0.00105919053766686 0.00103503953077161 -0.00169984926798391 -0.000888825244412234
"333" -0.000815910006281292 0.000271796631010423 -0.000489517551058746 -0.000441437255874786 -1.0872228889988e-07 -0.000521877268530284 -0.000524796594546727 -0.000159201609699886 -0.000570942333313438 -0.000282364740493403 -0.000989211166288688 -0.00132444460753244 -0.00104650186057117 0.00100768120323343 -0.00174346001479055 -0.000884290122751155
"334" -0.000817001167175917 0.000274378338857485 -0.000485982207178829 -0.000440843293349318 5.60992703681393e-06 -0.000526945986001267 -0.000522436098297887 -0.000118073916161457 -0.000568211300990476 -0.000267545585876998 -0.000986602554105567 -0.0013219260379538 -0.00103380263427997 0.000981206188925073 -0.00177882163711819 -0.00087906212845308
"335" -0.000818636645163716 0.000276521853366517 -0.000482574028519934 -0.000439438261508104 1.02055513699192e-05 -0.000531497608312434 -0.000519483663510948 -7.95767631938702e-05 -0.000565275362203749 -0.000254176466148408 -0.00098334783609221 -0.00131866440917471 -0.00102111178604691 0.000955535542710722 -0.00180547864533429 -0.000873122858892068
"336" -0.000820852019451134 0.000278158846088247 -0.000479315498984514 -0.000437344542904728 1.36734905380518e-05 -0.00053552556699207 -0.000515877403835769 -4.40445508966277e-05 -0.000562041505242916 -0.000242285010745834 -0.000979401507088747 -0.00131460275043018 -0.00100845672490179 0.00093058825018758 -0.00182301797037303 -0.000866461748350372
"337" -0.000823669018979601 0.000279223447448481 -0.000476222502615047 -0.000434684909558698 1.60203542065711e-05 -0.000539023917984359 -0.000511561019278696 -1.17903039511872e-05 -0.000558425438918686 -0.00023188217195678 -0.000974714717341194 -0.00130969017564022 -0.000995859475028989 0.000906285696104759 -0.00183109573863575 -0.000859078413461624
"338" -0.000827118496119306 0.00027966197542405 -0.000473324727737572 -0.000431577337030455 1.72556954819931e-05 -0.000541990586048035 -0.000506492487148406 1.68870404454191e-05 -0.000554352425872576 -0.000222972218465105 -0.000969258515524137 -0.00130388789464469 -0.00098335227862593 0.000882554054705231 -0.00182942236380801 -0.000850973457939837
"339" -0.000831218471669939 0.00027941939658241 -0.000470647636746941 -0.000428136714643675 1.73924653342366e-05 -0.000544417981983629 -0.000500638549679215 4.17171110336178e-05 -0.000549754367077488 -0.000215547408279126 -0.000963016951261308 -0.00129717407631652 -0.000970970579467726 0.000859340440108019 -0.0018177757003537 -0.000842162565469812
"340" -0.000835981316718611 0.000278449483784203 -0.000468225974055838 -0.000424473231418241 1.64525184150341e-05 -0.000546303638046112 -0.000493981343248327 6.24549775817948e-05 -0.000544578278791036 -0.000209582952077902 -0.000955976414458182 -0.00128954081680484 -0.000958754276219202 0.000836581358014211 -0.00179601049666754 -0.00083266498551004
"341" -0.000841421811711937 0.000276714221148017 -0.000466093238957909 -0.000420689435200569 1.4469064568973e-05 -0.000547644626040851 -0.000486514020029585 7.88933570510522e-05 -0.000538778353226435 -0.000205050922990708 -0.000948145734027528 -0.00128099117917381 -0.000946741235025411 0.00081424153930091 -0.00176404758779897 -0.000822510791477301
"342" -0.00084754826382389 0.000274188374940127 -0.000464285948999024 -0.000416881812077984 1.1468864515526e-05 -0.00054843599298003 -0.000478239297997576 9.08518138356161e-05 -0.000532332438777262 -0.000201907781338213 -0.000939542962359398 -0.00127155284031466 -0.000934978475290726 0.000792293165025502 -0.00172189775107102 -0.000811738110373265
