"V1" "V2" "V4" "V5" "V7" "V8" "V10" "V11" "V13" "V14" "V15" "V17" "V18" "V20" "V21" "V23"
"1" -8.03606058023542e-05 0.00031418145557994 -0.000123232982768472 0.000245019508602475 -0.000188902812221977 0.00010461098627398 -0.000232887734043084 0.000159173205155491 0.000451710274441717 0.00164300631312513 0.000551920318171556 0.00102831776664073 -0.0014078548181553 8.38308428223266e-05 0.00137866097289511 -0.00141170543799484
"2" -0.000108834869840466 0.000322760103906876 -0.000128309899941968 0.00022991013029803 -0.000192449049506384 0.000105833105371867 -0.000240371551323361 0.000182985855153253 0.000354250659609744 0.00156903445147006 0.000901722776216015 0.00118638566903699 -0.00130341053959966 0.000217333444704421 0.00114448876940539 -0.00132759931489677
"3" -0.000138003265033282 0.000330717348029555 -0.000133002111401625 0.000212738296960037 -0.000196612941360071 0.000106849375390297 -0.0002486312395299 0.000205149170413855 0.000260627610144936 0.00148825946203036 0.00125768327473222 0.00134216460530465 -0.00118946286396109 0.000364639730707006 0.000903666360596986 -0.00123194806303832
"4" -0.000167532569430691 0.000338007932172005 -0.000137169640176478 0.000193801323593225 -0.000201112475663781 0.000107803503654769 -0.000257501807103358 0.000225677941197985 0.000171077700716471 0.00140135709936371 0.00161717370970684 0.00149416246925765 -0.00106628395395098 0.000524495588125629 0.000658481265689511 -0.00112549986472937
"5" -0.000197093841302077 0.00034458110529022 -0.000140686963554003 0.000173405940065072 -0.000205677221268987 0.000108827229960513 -0.000266822259045005 0.000244604201758852 8.58338803904725e-05 0.00130908475594975 0.00197745323527275 0.00164091237456886 -0.000934213695655793 0.000695516283699255 0.000411242032475479 -0.00100908610807107
"6" -0.000226379852067178 0.000350385315844332 -0.000143457892160122 0.000151860946442605 -0.000210079060980193 0.000110038773231286 -0.000276445884415279 0.000261966324241712 5.14731242666012e-06 0.00121230308080807 0.00233568143557413 0.00178099833680142 -0.00079365444215866 0.000876191052674131 0.000164270917422502 -0.000883622555189594
"7" -0.000255088793671923 0.000355371230704339 -0.000145395530897826 0.000129479436652111 -0.000214120556823717 0.000111535491504726 -0.000286225987293706 0.000277801137703427 -7.07247179913578e-05 0.0011119473941758 0.00268893327943027 0.00191306449725641 -0.00064508570970475 0.00106488480462468 -8.01389966475675e-05 -0.000750094596862392
"8" -0.000282936203120212 0.000359491667872187 -0.000146451578475799 0.000106572186636305 -0.000217631964546734 0.000113397212016333 -0.000296032880883145 0.000292159766406477 -0.00014152714036409 0.00100901662377996 0.00303421122011274 0.00203582455462193 -0.000489049086734578 0.00125985264883035 -0.00031976056149782 -0.000609556256176662
"9" -0.000309671206909985 0.000362706912472211 -0.000146584510904685 8.34399209541458e-05 -0.000220501498571801 0.00011568304802709 -0.000305760779191881 0.000305085724476523 -0.00020694911948447 0.000904597693129007 0.00336847165890428 0.00214808984696943 -0.000326160281733142 0.00145925166110292 -0.000552448559129003 -0.000463120133307614
"10" -0.000335049525765192 0.000364975363857857 -0.000145790443249548 6.03781118052725e-05 -0.000222646645661255 0.000118428256483817 -0.000315301206533979 0.000316630465668386 -0.000266692966475693 0.000799817154464202 0.00368864556949911 0.00224877499740922 -0.00015710624801765 0.00166115280647901 -0.000776167252977403 -0.000311951044753728
"11" -0.000358864756446448 0.000366266062913173 -0.000144085789808885 3.76721476377899e-05 -0.000224036520993215 0.000121646295366966 -0.000324574167229208 0.000326839664503021 -0.000320400700257836 0.000695872552512678 0.00399168049997239 0.00233691854374145 1.73609438344936e-05 0.00186356445369212 -0.000989029807633993 -0.000157256355647731
"12" -0.000380938454715086 0.000366559572627429 -0.000141510235294631 1.55902273811796e-05 -0.000224686435845703 0.000125331997584165 -0.000333515851928902 0.000335761959754979 -0.000367708405089892 0.000593993337481904 0.00427457256470596 0.00241170041657732 0.00019641068825264 0.00206444014904983 -0.00118928639878461 -2.78523303310324e-07
"13" -0.00040111612966408 0.000365834393312742 -0.000138129819383996 -5.61014700900901e-06 -0.000224651358680563 0.000129447704956887 -0.000342076259741496 0.000343437708427798 -0.000408218297676302 0.000495443084108602 0.00453440974246672 0.00247244343225441 0.000379163060150269 0.00226170466187371 -0.00137536181921731 0.000157719990751987
"14" -0.000419268943215468 0.000364091707896232 -0.00013403498643061 -2.56939279730461e-05 -0.000224036756275776 0.000133940644943278 -0.000350224085837755 0.000349901825698931 -0.000441495761579391 0.00040152049390149 0.00476842335739389 0.00251864757287911 0.000564651043984783 0.00245329304062223 -0.00154585027819149 0.000315466147944056
"15" -0.000435306671867623 0.000361332464117329 -0.00012932798518304 -4.44375936123704e-05 -0.00022298476656375 0.000138738378656546 -0.000357945048948605 0.00035519271225824 -0.000467109201430547 0.000313512754610966 0.00497402258956418 0.00254997498497952 0.000751857236684827 0.00263714530491771 -0.00169954060617504 0.000471683573489051
"16" -0.000449160389675138 0.000357572968675134 -0.000124141073057476 -6.16363849601612e-05 -0.000221669915494488 0.000143745622612493 -0.000365236118584476 0.00035934302161132 -0.000484615544334814 0.000232707067593864 0.00514886213848501 0.00256627133049862 0.00093969772806203 0.00281124631476629 -0.0018353948970707 0.000625113084348543
"17" -0.000460789596952073 0.000352845388074172 -0.000118611152697 -7.71072912010164e-05 -0.000220304988366456 0.000148848042115056 -0.000372111618999933 0.000362370215249953 -0.000493533475587722 0.000160381993119958 0.00529088595015317 0.0025675792262832 0.00112703853353304 0.00297366595127033 -0.00195257868869766 0.000774514902023514
"18" -0.000470176477059608 0.000347183635207757 -0.00011288920352575 -9.06797717572998e-05 -0.000219110272932194 0.000153929455428708 -0.000378594850988042 0.000364306954632955 -0.000493457682664906 9.77408352188337e-05 0.0053983835334374 0.00255412156689248 0.00131269298097984 0.00312255925177817 -0.00205041679408052 0.000918687605840451
"19" -0.00047733512326853 0.000340640895655241 -0.000107137709187618 -0.000102205071714086 -0.000218331782610576 0.000158852708426057 -0.00038471778853755 0.000365170695314786 -0.000483971429522117 4.59447266328428e-05 0.005470030347318 0.00252631310215874 0.00149542894387254 0.00325621016136727 -0.00212842151407589 0.00105647624398582
"20" -0.000482285809560096 0.000333276856197476 -0.000101514350271603 -0.000111545586774894 -0.000218211059772373 0.000163483021793943 -0.000390518176605087 0.000364986043420761 -0.000464735286546621 6.05041409461235e-06 0.00550493095998492 0.00248475410966677 0.00167399350330563 0.00337305124624156 -0.00218626741769907 0.0011867916155504
"21" -0.000485069550386266 0.000325160427707546 -9.61750750189789e-05 -0.000118578359240992 -0.000218975705989396 0.000167683968596666 -0.000396026048571403 0.000363780516254065 -0.000435494594019431 -2.10081281205016e-05 0.00550263865933709 0.00243022216230672 0.00184711201201867 0.0034716803868955 -0.0022237811143634 0.00130860734470753
"22" -0.000485734591109799 0.000316371825889166 -9.12656591813306e-05 -0.00012319111058497 -0.00022083120193182 0.000171327790977955 -0.000401272095567878 0.000361590300945653 -0.000396118361910378 -3.44461215017664e-05 0.00546319696116858 0.00236365102360262 0.00201351928346441 0.00355087943814714 -0.00224093539271232 0.00142098250780153
"23" -0.000484344818272153 0.000306993148974346 -8.69201653676877e-05 -0.000125283539206752 -0.000223939721447336 0.000174301716388057 -0.000406280013965067 0.00035846216309881 -0.000346614470375033 -3.3663494802869e-05 0.0053871165191646 0.00228612394219885 0.00217196187298097 0.0036096347612431 -0.00223783715215024 0.00152306467531638
"24" -0.000480952784469221 0.000297114894445343 -8.32403731505271e-05 -0.000124761090779839 -0.000228403665843276 0.000176511671709711 -0.000411049069412248 0.000354454455587343 -0.000287190423993112 -1.82791914611735e-05 0.00527540891270639 0.00219885456351385 0.00232121118751475 0.0036471356770081 -0.00221470513715453 0.00161409475364434
"25" -0.000475615716434251 0.00028682739547672 -8.03082219162467e-05 -0.000121540450303841 -0.000234271887143843 0.000177889574012363 -0.000415570200352946 0.000349646331763553 -0.000218241291270736 1.18554475601542e-05 0.00512954295480615 0.00210315179550855 0.00246011165925192 0.00366278800756793 -0.00217189283099825 0.00169341278827638
"26" -0.000468381718085014 0.000276222366399458 -7.81706183365271e-05 -0.000115538337954068 -0.000241496671062001 0.000178403407434144 -0.000419798305554985 0.000344138968602956 -0.000140438180386818 5.65994686679864e-05 0.00495143550328237 0.00200040927842173 0.00258757783194627 0.00365620721277717 -0.00210983734285697 0.00176045391765681
"27" -0.000459292771640245 0.000265393588058028 -7.68391535364178e-05 -0.000106679785955981 -0.000249941448612156 0.000178056069923874 -0.000423673426493672 0.000338053310884346 -5.46880275233873e-05 0.000115538725071626 0.00474340411853449 0.00189207500885975 0.00270261807754991 0.00362722105004798 -0.00202909171719487 0.00181475983663095
"28" -0.000448370515840486 0.000254426462224615 -7.62793514131712e-05 -9.48926114740955e-05 -0.000259368219111526 0.000176892078745993 -0.000427097354201908 0.000331541777837686 3.77976985400146e-05 0.000187931517598563 0.00450811933418989 0.00177962202062512 0.00280436274430523 0.00357586057026391 -0.0019302985012326 0.00185597048195093
"29" -0.000435628978666559 0.000243401052719459 -7.64178920888422e-05 -8.01144253115377e-05 -0.000269447766994417 0.000175004226877174 -0.000429941778008148 0.000324781863866043 0.000135536290017932 0.000272735723177554 0.00424855868129215 0.00166453048861703 0.0028920717524151 0.00350234672952918 -0.00181418413073457 0.00188383623571934
"30" -0.000421071351359412 0.000232393099015793 -7.71472198176801e-05 -6.22914554712113e-05 -0.000279747309438618 0.000172517961671879 -0.000432056864286027 0.000317967653862138 0.000236781741619293 0.000368609933521058 0.00396794610496162 0.00154826285727262 0.0029651593361004 0.0034070976800454 -0.00168157395648056 0.00189820776375757
"31" -0.000404690337933956 0.000221468323758887 -7.83251825982478e-05 -4.1383335219782e-05 -0.000289754530344446 0.000169604659574639 -0.000433266316023153 0.000311320780445485 0.000339552768735712 0.000473935645919973 0.00366969136156597 0.00143225511079746 0.00302319034150207 0.00329070751889429 -0.00153335932999618 0.0018990487652495
"32" -0.000386471998153049 0.000210684901398563 -7.97734422766793e-05 -1.73668137978947e-05 -0.000298881995878931 0.000166459443293489 -0.000433373049174366 0.000305069714756539 0.000441668097893211 0.000586846303357869 0.00335733847896679 0.0013178883524783 0.00306589915227897 0.00315393739012467 -0.00137051605594134 0.00188641996362314
"33" -0.000366413601452774 0.000200088828558484 -8.12948362047351e-05 9.75265505841092e-06 -0.000306502672774394 0.000163311094222682 -0.000432168236163656 0.000299458604710586 0.000540824277113096 0.000705284895675792 0.00303449465498627 0.00120649341147714 0.00309319003084891 0.00299772550096652 -0.0011941025475501 0.00186049530222895
"34" -0.000344514931720488 0.000189721207912027 -8.26914687825085e-05 3.99376616734914e-05 -0.000311976579945903 0.000160385976404001 -0.000429457059006489 0.000294715747471558 0.000634670013251545 0.000827075435988244 0.00270478551743527 0.00109934659711819 0.0031051233052748 0.00282316784683322 -0.00100523434407586 0.00182156208624475
"35" -0.000320796057120752 0.000179609018046467 -8.37620098990496e-05 7.31147698232748e-05 -0.000314678292093117 0.000157916609570017 -0.000425041963363098 0.000291059645468366 0.000720890612250811 0.000949974189706091 0.00237179655437412 0.000997655773794133 0.00310190709393611 0.00263152253172425 -0.000805106732168208 0.00177001551785882
"36" -0.000295314711830852 0.000169780027102553 -8.43158040024956e-05 0.000109163677565633 -0.000314040601919089 0.000156117478021272 -0.000418758061193008 0.000288685305330025 0.000797292676164906 0.00107176335130715 0.00203904265107864 0.000902588778713256 0.00308388877793337 0.00242421969149134 -0.000594960082454773 0.00170638093864043
"37" -0.000268153876648474 0.000160249332120358 -8.41951926955581e-05 0.000147911462764539 -0.000309579907580062 0.000155171589423847 -0.000410475796166048 0.000287744094982854 0.000861917504457335 0.00119032950406675 0.00170990547971288 0.000815262631497013 0.00305152354995445 0.00220284950288921 -0.00037610108400256 0.00163129149647597
"38" -0.000239449003949441 0.000151035098974682 -8.3277317382582e-05 0.000189127423959865 -0.000300925898529633 0.000155220247481321 -0.000400109404369603 0.000288348112020022 0.000913092940233778 0.00130370579161885 0.00138762320886361 0.000736739647487991 0.00300537355865485 0.00196914802600742 -0.000149887902127491 0.00154550239845429
"39" -0.000209380902817243 0.000142146720548391 -8.14888609497313e-05 0.000232529723488754 -0.000287844232426863 0.000156352940708423 -0.000387633736419037 0.000290550031235845 0.000949517747452352 0.00141016019848443 0.00107524147479461 0.000668045859789995 0.00294608019156998 0.00172500773445275 8.22601270814423e-05 0.00144988788642237
"40" -0.000178176835685564 0.000133592851675809 -7.88007405473634e-05 0.000277768019215912 -0.000270266976654347 0.000158600629209904 -0.00037307113263319 0.000294341062191654 0.000970312321667746 0.00150822437841509 0.000775594837573106 0.00061015865427845 0.0028743426880833 0.00147244800877095 0.000318873792131955 0.001345429393023
"41" -0.000146125581625671 0.000125392214538126 -7.5237475666113e-05 0.00032444683460917 -0.000248272674419671 0.000161935873775235 -0.000356509948337677 0.000299652670224731 0.000975034838458607 0.00159671862633857 0.000491287099036854 0.000563995104873999 0.0027909050821065 0.00121359591853765 0.000558427802940677 0.00123321557685545
"42" -0.00011354477758905 0.000117552046687099 -7.08783577066764e-05 0.000372116762879335 -0.00022209284467096 0.000166276207686319 -0.000338095861053033 0.000306366253250188 0.000963662793741574 0.00167475721498903 0.000224666910860875 0.000530408068512614 0.00269655529916518 0.000950651161079314 0.000799348298945441 0.00111441822532311
"43" -8.07997177414343e-05 0.000110088160413036 -6.58405837908344e-05 0.000420290119182523 -0.000192116421737977 0.000171478178093388 -0.000318024710405978 0.000314296862680576 0.00093661680355896 0.00174175855673251 -2.21784221721735e-05 0.000510177771761584 0.00259209451713444 0.000685872311000423 0.00104000637536841 0.000990282385417754
"44" -4.82806275376791e-05 0.000103018083314209 -6.02855378921232e-05 0.000468447470577866 -0.000158834331921206 0.00017736167927958 -0.000296541973183178 0.000323219452781874 0.000894686742330178 0.00179739621689829 -0.000247433757776459 0.000503967996387415 0.00247835210428843 0.000421520923105942 0.00127871142335632 0.000862103080313361
"45" -1.6399544572468e-05 9.63571384817939e-05 -5.43981429223448e-05 0.000516052957726238 -0.00012284103202174 0.000183709376399847 -0.000273914027409742 0.000332871484011748 0.000838975343892776 0.00184158021876583 -0.000449574360843083 0.00051234262460124 0.00235616811964949 0.000159824006998866 0.00151372648528301 0.000731208982871892
"46" 1.44338031397924e-05 9.01232823288232e-05 -4.83794926238607e-05 0.000562557992596791 -8.47928706141849e-05 0.000190284183764948 -0.000250440698174647 0.000342965863545733 0.00077084338529895 0.00187440900492615 -0.000627359817565099 0.000535708714341835 0.00222638974641877 -9.70470306293285e-05 0.00174326769816147 0.000598941076554543
"47" 4.38128994133909e-05 8.43316748594474e-05 -4.244262460427e-05 0.000607429339713365 -4.53814606220136e-05 0.000196842086381473 -0.000226430359161472 0.00035320098623052 0.000691840394216584 0.00189614430843945 -0.000779837130927122 0.000574334323579847 0.0020898629940823 -0.000347021702483642 0.00196552725986855 0.0004666229885134
"48" 7.1341105937411e-05 7.89952546333882e-05 -3.67877164256253e-05 0.000650141968984211 -5.29538579012252e-06 0.000203137583861347 -0.000202189993405307 0.000363269412715934 0.0006036454054685 0.00190715068154246 -0.000906329892256672 0.000628294237862574 0.00194745113109572 -0.000588156696583801 0.00217866626392116 0.000335546892296958
"49" 9.66626317318938e-05 7.41247319751349e-05 -3.16091614910362e-05 0.000690204926051355 3.47859053544222e-05 0.000208941286362279 -0.000178025298769758 0.000372876003473138 0.000507967956317436 0.00190787424318304 -0.00100644543587454 0.00069750045681543 0.00180000158011492 -0.00081866452506719 0.00238087351288363 0.000206960041264061
"50" 0.000119452513814833 6.97229147487895e-05 -2.7074526399914e-05 0.000727164191169836 7.42400813910303e-05 0.00021404763222057 -0.000154215263413933 0.000381737075785049 0.000406536120771693 0.00189880199898066 -0.00108005763763975 0.000781655254539406 0.00164837093749085 -0.00103694211361153 0.00257034898653282 8.20344091954485e-05
"51" 0.00013942210841105 6.57887114519632e-05 -2.33276481177115e-05 0.000760615096768142 0.000112500365560414 0.00021827298747564 -0.000131023125059888 0.000389598628064311 0.000301023555036918 0.00188045254146987 -0.00112730771678264 0.000880274212305781 0.00149339009378324 -0.00124156171178327 0.00274537016687799 -3.8132749653709e-05
"52" 0.000156337947997228 6.23123029597802e-05 -2.04788735169159e-05 0.000790198905122902 0.000149082715513212 0.000221477589790992 -0.00010868127746777 0.000396228140602708 0.000193011199755598 0.00185334380118931 -0.00114858166559553 0.000992672098985608 0.00133588800490836 -0.00143129698832069 0.00290429891347002 -0.000152543610292753
"53" 0.000170015283458131 5.9275329944924e-05 -1.86127538977881e-05 0.000815620699098666 0.000183568976338037 0.000223545996516112 -8.7394578320157e-05 0.000401435279703222 8.39876636490899e-05 0.0018180011165671 -0.00114450505953001 0.00111798164281094 0.00117666570775944 -0.00160512407976975 0.00304562885489617 -0.000260298985739814
"54" 0.000180322082496522 5.66482858101439e-05 -1.77722994385015e-05 0.000836641273443623 0.000215642565538902 0.000224409049451552 -6.73338762335909e-05 0.000405061571270024 -2.47052023774355e-05 0.00177493660422929 -0.00111592666172236 0.00125515614272807 0.00101649296188903 -0.00176222221774758 0.00316801695404589 -0.000360603911387548
"55" 0.000187176154730127 5.43980499828511e-05 -1.79713288761394e-05 0.000853083747991384 0.000245067860625366 0.000224027965872775 -4.86410514535291e-05 0.000406987238838676 -0.000131869981044229 0.00172465292394745 -0.0010639107172116 0.00140297928313787 0.000856120281234832 -0.00190196981378752 0.00327030881490395 -0.00045278579055631
"56" 0.000190549594695902 5.2477303295032e-05 -1.91959302660355e-05 0.000864829860713413 0.000271683741377883 0.000222401218828512 -3.14247036244531e-05 0.000407133244328693 -0.00023643123078515 0.00166766070736528 -0.000989710202583292 0.00156008062691511 0.000696251596728484 -0.00202393326347141 0.003351571514063 -0.000536278191341091
"57" 0.000190451184176419 5.08292603014601e-05 -2.14004830478585e-05 0.000871825451845349 0.000295422371814803 0.000219556228918111 -1.57667522354481e-05 0.000405449712971867 -0.000337481391144764 0.0016044502643736 -0.000894764435882113 0.00172495760988428 0.000537556839078387 -0.00212787088351639 0.0034111204683659 -0.000610637631145721
"58" 0.000186948289991542 4.93935727488653e-05 -2.4520751501841e-05 0.000874065742511863 0.000316258495956641 0.000215548000759827 -1.72290156647672e-06 0.000401924891230364 -0.000434219246154004 0.00153554336194312 -0.000780681278580582 0.00189599508697901 0.000380665217613134 -0.00221370940163986 0.00344853259004285 -0.000675534019412164
"59" 0.000180143139947803 4.81009230154901e-05 -2.84644675356509e-05 0.000871606208352793 0.000334255625788128 0.000210463339509891 1.06763112226944e-05 0.000396583478235724 -0.000526032958979899 0.00146142067494224 -0.000649221008012412 0.00207146377627712 0.000226167799811141 -0.00228156507269303 0.00346367376313272 -0.000730757124280025
"60" 0.000170164466842703 4.68699879808764e-05 -3.31329374417911e-05 0.000864546144869949 0.000349506759804836 0.000204398790116382 2.14181910687496e-05 0.000389473152374696 -0.000612369013585317 0.0013826248758362 -0.000502284280758393 0.00224957119673785 7.46011741354033e-05 -0.00233169402086377 0.00345668089180348 -0.000776199480244359
"61" 0.000157186310767052 4.56217003201882e-05 -3.84114544231814e-05 0.000853033060149004 0.000362158007743062 0.000197469667077111 3.0516567419762e-05 0.000380667127440487 -0.00069283130898962 0.00129968447291649 -0.000341900596194902 0.00242845631581941 -7.35387362031874e-05 -0.00236451434923126 0.00342797816548266 -0.000811868832325148
"62" 0.000141407466733762 4.42674633220406e-05 -4.41776442296995e-05 0.000837254347243845 0.000372386417721962 0.000189811893791616 3.79906301268252e-05 0.000370269373938809 -0.000767123373318069 0.00121313413966488 -0.000170205465352024 0.00260621195537161 -0.000217788776444669 -0.00238059105549999 0.00337824011786933 -0.00083787584252094
"63" 0.000123036930048572 4.27183785326078e-05 -5.03016613032723e-05 0.000817432069230526 0.000380390004958766 0.000181558740593674 4.38815959016553e-05 0.000358393428509802 -0.000835044884271503 0.00112352900136946 1.05586609973517e-05 0.00278091709461444 -0.000357741557357403 -0.00238062461450205 0.00330840449813115 -0.000854423957997154
"64" 0.000102320742530029 4.08839974678531e-05 -5.66584513113731e-05 0.000793817812720872 0.000386387938795973 0.000172855648862786 4.82296263064841e-05 0.000345176027510839 -0.000896485095710566 0.00103144287412643 0.000198078053279019 0.00295065865507038 -0.000493021400000271 -0.00236544140868455 0.00321962902546739 -0.000861809680265844
"65" 7.94998747243897e-05 3.86723861718045e-05 -6.31210167447197e-05 0.000766686379704579 0.000390595043034029 0.000163844414914209 5.1096075467686e-05 0.000330757585061002 -0.000951397479198586 0.000937458877591753 0.000389962506339213 0.00311354770561871 -0.000623293802635713 -0.00233598035775043 0.00311325811106193 -0.000860404849445812
"66" 5.48335704484556e-05 3.59985997988405e-05 -6.95751077559088e-05 0.000736337459914725 0.000393237114960081 0.000154665468004034 5.25344502983805e-05 0.000315293023874375 -0.00099983136433892 0.000842160409347462 0.000583777332102104 0.0032677414916097 -0.000748257854294158 -0.0022933026551678 0.00299080660607373 -0.000850657893523874
"67" 2.85895173360226e-05 3.27755017349404e-05 -7.59050548933154e-05 0.00070308516257212 0.000394527595397676 0.000145456404727859 5.26126053597787e-05 0.000298944274686526 -0.00104188773019789 0.000746145102591278 0.000777054112192357 0.00341146763877963 -0.000867662254214243 -0.00223855942857355 0.00285392184076859 -0.000833064687977183
"68" 1.02868873367514e-06 2.8923299770688e-05 -8.20118872522756e-05 0.000667256087659874 0.000394669811030056 0.000136343538121801 5.13887389447384e-05 0.000281865326403804 -0.0010777359246446 0.000650007693903002 0.000967318144610876 0.00354305344549813 -0.000981289836033113 -0.00217299543696924 0.00270434667828152 -0.000808181602355526
"69" -2.75810636166094e-05 2.43672229411103e-05 -8.78077424194074e-05 0.000629181537810931 0.000393849830802118 0.000127444289046653 4.89344234824493e-05 0.000264218543058532 -0.00110759994865829 0.000554335507820786 0.00115211415444298 0.00366093181028331 -0.00108895940035327 -0.0020979439180275 0.0025438808086147 -0.00077659083980255
"70" -5.69818104733934e-05 1.90435031089313e-05 -9.3214759199642e-05 0.000589203408682432 0.000392233685301897 0.000118865398788192 4.53043998243093e-05 0.000246156289777016 -0.00113175193148116 0.000459718251130744 0.00132902136884901 0.00376369021100487 -0.00119053750532014 -0.00201479152105696 0.00237436281551932 -0.000738903556342434
"71" -8.69160194393715e-05 1.28956144777503e-05 -9.81786472185817e-05 0.000547657254499565 0.000389952376172576 0.000110690627832373 4.05608559191419e-05 0.000227822677446235 -0.00115047551336826 0.000366753188638934 0.00149569833012935 0.00385007420058571 -0.0012859274110151 -0.00192498645026413 0.00219763020348581 -0.000695740632467418
"72" -0.00011713924476973 5.87757182412038e-06 -0.000102652081123437 0.000504885134999569 0.000387116157759659 0.000102994925211149 3.47596356677441e-05 0.000209354525048599 -0.00116414351325308 0.00027599372629056 0.00164990948622159 0.00391900563159279 -0.00137506539490193 -0.00183002041277591 0.00201550114526861 -0.000647721552711766
"73" -0.000147417895913025 -2.04196785289289e-06 -0.000106604376271206 0.000461218485622185 0.000383802466871597 9.58335486601788e-05 2.79523642018043e-05 0.000190872320611897 -0.00117311500666401 0.000188006720548443 0.00178955539801421 0.00396961125368107 -0.00145792840555532 -0.00173140804178981 0.00182975859946988 -0.0005954553830545
"74" -0.000177525932891616 -1.08856533550619e-05 -0.00011002507633226 0.000416985480816671 0.000380048960499502 8.92390954586723e-05 2.01776039264301e-05 0.000172487869374515 -0.00117778599801356 0.000103330649864022 0.00191270827769957 0.00400123708559092 -0.00153454420591949 -0.00163068008057438 0.00164213102299511 -0.000539520735568977
"75" -0.000207254450828975 -2.06586245347322e-05 -0.000112918878290794 0.000372505731420929 0.000375877055411789 8.32280303297378e-05 1.14879125597372e-05 0.000154288300447932 -0.00117858256044266 2.24806045456264e-05 0.00201764818810383 0.00401345523829902 -0.00160496451047366 -0.00152936231735734 0.00145428177997486 -0.000480462768230443
"76" -0.000236403338605047 -3.1352158762915e-05 -0.000115302775608059 0.000328089707879645 0.000371255760827162 7.77955521397561e-05 1.91083822723461e-06 0.000136352216070146 -0.001175920942661 -5.40444850327267e-05 0.00210288652320814 0.00400608766683656 -0.00166929136735336 -0.00142896052099286 0.0012678098982021 -0.000418776887068306
"77" -0.000264789700293161 -4.29410501729257e-05 -0.000117210536277782 0.000284033626088076 0.000366137451644761 7.29190170023881e-05 -8.52178065388046e-06 0.000118730655036757 -0.0011702319653341 -0.000125783058807909 0.00216721300966897 0.00397919340696342 -0.00172764834093855 -0.00133093485148017 0.00108422615617104 -0.000354912662190029
"78" -0.000292247950315632 -5.53859829147004e-05 -0.000118685444916176 0.000240625131937796 0.00036044073541836 6.85586596446228e-05 -1.97780239730588e-05 0.000101468310928136 -0.0011619568337949 -0.000192306999565572 0.00220970672592116 0.00393309411113375 -0.00178020031350352 -0.0012366983284579 0.000904978375915367 -0.00028925709623723
"79" -0.000318618446661826 -6.86272116224594e-05 -0.000119784001521341 0.000198137553346329 0.000354060543790167 6.46551689685449e-05 -3.18336289876503e-05 8.45791044168972e-05 -0.00115150940225916 -0.00025322364916743 0.00222976471530175 0.00386834786130196 -0.00182712659625643 -0.0011475785557026 0.000731426354420701 -0.00022213047975016
"80" -0.000343762674736661 -8.25903989269979e-05 -0.000120571129714705 0.000156826476659366 0.00034687465862113 6.1138824994404e-05 -4.46620077569653e-05 6.80700443082529e-05 -0.00113929723170248 -0.000308186593912567 0.00222712054519591 0.00378575940842115 -0.00186863084919034 -0.00106481493165285 0.000564852756723331 -0.000153791912480495
"81" -0.000367551729784396 -9.7184449418603e-05 -0.000121114648814114 0.00011693972359079 0.000338742084893078 5.79278289427076e-05 -5.82341472884964e-05 5.19282650554141e-05 -0.00112572163456633 -0.000356907286066084 0.00220183884889858 0.00368635420015695 -0.00190492841090202 -0.000989530379936244 0.000406457814728788 -8.4435509373354e-05
"82" -0.000389868235797997 -0.000112302540418431 -0.000121485290728778 7.87078260932993e-05 0.000329518522184544 5.49286845138696e-05 -7.25196160915157e-05 3.61296648280929e-05 -0.00111114592881479 -0.000399140465735739 0.0021543337366462 0.00357138855917334 -0.00193624108491071 -0.000922721373974765 0.000257379469119294 -1.41957520308273e-05
"83" -0.000410611746821595 -0.000127819874019846 -0.000121762320716981 4.23424417675089e-05 0.000319064932908315 5.20501189201912e-05 -8.74800095167396e-05 2.06399093992425e-05 -0.0010959151940556 -0.000434723156443629 0.00208534769317451 0.00344229072089807 -0.0019627716584846 -0.00086524334320042 0.000118651013992168 5.68491133083604e-05
"84" -0.000429682781271743 -0.000143601239141539 -0.000122011752675567 8.04492726168729e-06 0.000307247498102316 4.91941941157823e-05 -0.000103071835704895 5.41324877112589e-06 -0.00108035145272249 -0.000463550759750351 0.00199593116312957 0.00330067064017149 -0.00198471953312577 -0.000817800344273635 -8.75398538694442e-06 0.000128666078299269
"85" -0.000446997276034945 -0.00015949354063414 -0.000122295706465061 -2.40000892068533e-05 0.000293949048397129 4.6274586260296e-05 -0.00011923167609073 -9.59082423917412e-06 -0.00106475419022685 -0.000485606805036443 0.00188743277295263 0.00314827835224444 -0.00200225512533358 -0.000780929455823832 -0.000123955774588976 0.000201267259859393
"86" -0.000462476215564575 -0.000175335101118642 -0.000122671863440864 -5.36258554140352e-05 0.000279090759594529 4.3206607952536e-05 -0.000135890054143555 -2.44235913512632e-05 -0.00104939498018318 -0.000500962322888 0.00176146064435287 0.00298696490331209 -0.00201551253500063 -0.000754997326405298 -0.000226161790824643 0.000274689019036121
"87" -0.00047605647758636 -0.000190958210181743 -0.000123180595706931 -8.06776615934733e-05 0.00026261172411759 3.99221450052777e-05 -0.000152957259725811 -3.91253110929411e-05 -0.00103450376532654 -0.000509760716669041 0.00161985192260231 0.00281867748897818 -0.00202459002686873 -0.000740174927928908 -0.000314668243875599 0.000349004173277057
"88" -0.000487664668117492 -0.00020618428451094 -0.000123848834815942 -0.000105018171666961 0.000244518762992814 3.63689045029919e-05 -0.00017033375792378 -5.37265088055066e-05 -0.00102033045812837 -0.000512257440043335 0.00146462729216726 0.00264541005231251 -0.00202953270857465 -0.000736471367165076 -0.00038884819084507 0.00042428098171555
"89" -0.000497246820725703 -0.000220832129573599 -0.000124689730040596 -0.000126526869760916 0.000224851867272166 3.25153115493259e-05 -0.000187892556631731 -6.82537539507544e-05 -0.00100706319453537 -0.000508783943557237 0.00129795117889675 0.0024691695926769 -0.00203032633896003 -0.000743698388864685 -0.000448199547645428 0.000500587343057313
"90" -0.000504750498906452 -0.000234722616731783 -0.000125689146145984 -0.000145101670861018 0.00020371101751523 2.83522147260038e-05 -0.000205487583621941 -8.27185859613898e-05 -0.000994904884278242 -0.000499770847292409 0.00112208841867987 0.00229196020939616 -0.00202690747922839 -0.000761488907825621 -0.000492293916328012 0.000577983831704816
"91" -0.000510123332577398 -0.000247676172736936 -0.000126822852247216 -0.000160654667299948 0.000181263877302521 2.38966236128433e-05 -0.000222962155468958 -9.7109963281756e-05 -0.000984037912436014 -0.000485731390093446 0.000939366238388118 0.00211573222161695 -0.00201914086025734 -0.000789296717789433 -0.000520825345532879 0.000656507475641327
"92" -0.000513331055840828 -0.000259520600108593 -0.000128047334028985 -0.00017312311213067 0.000157719954071908 1.91893792982901e-05 -0.000240134867278205 -0.000111406563247837 -0.000974599789888682 -0.00046723457152123 0.000752126123625436 0.00194237894743866 -0.00200684369228775 -0.000826400292602544 -0.000533584582188799 0.000736162456086648
"93" -0.000514335980442565 -0.000270090798104804 -0.000129295285336095 -0.000182458344451665 0.0001333637598859 1.42976537675994e-05 -0.000256813589817993 -0.00012556001264661 -0.000966768454287193 -0.000444943623133867 0.000562686482972785 0.00177369691691156 -0.00198977592623146 -0.000871928960394156 -0.000530464167113225 0.000816921245305967
"94" -0.000513118570691615 -0.000279232133393807 -0.000130499044695009 -0.00018863811594358 0.000108507633659391 9.30661519678365e-06 -0.000272796963640869 -0.00013951439448167 -0.000960632297841824 -0.000419526032790902 0.00037331011706794 0.00161138409223002 -0.0019676544680967 -0.000924850743437752 -0.000511468274922476 0.000898720662180882
"95" -0.000509664041808342 -0.000286801155743303 -0.000131565089203531 -0.000191661232098084 8.35167284963359e-05 4.3260170597917e-06 -0.000287870160094321 -0.000153191263698677 -0.00095628755172664 -0.000391703473594801 0.000186169302012819 0.00145700357439639 -0.00194015893566236 -0.000984003084301062 -0.000476711530097003 0.0009814468980724
"96" -0.000503980565318739 -0.000292673815954044 -0.000132402151632099 -0.000191554204417483 5.87837885118378e-05 -5.22116866527798e-07 -0.000301822064257451 -0.00016649732375098 -0.000953787845675481 -0.000362188487233914 3.31701742612917e-06 0.00131199167412157 -0.00190694701131503 -0.00104811053022297 -0.000426399005092295 0.00106495661467885
"97" -0.000496081888498592 -0.000296734023192352 -0.000132913416633066 -0.00018836883535919 3.47045441860864e-05 -5.10715044857366e-06 -0.000314451987095071 -0.000179333530180945 -0.000953119347045587 -0.000331676560780946 -0.000173341082469236 0.00117764603618611 -0.00186766959626475 -0.00111579590124999 -0.000360842156240985 0.00114906553040978
"98" -0.000486004160420423 -0.000298885275068077 -0.000133005287228173 -0.000182185683296833 1.16870137062439e-05 -9.28951729997287e-06 -0.000325555670705052 -0.000191595788332079 -0.000954237082265236 -0.000300848085194054 -0.000342068849827545 0.00105511091811515 -0.00182197641831768 -0.00118562096090161 -0.00028045357968157 0.00123354682526276
"99" -0.000473809776022734 -0.000299045457461553 -0.000132592742493361 -0.000173110467583233 -9.88611729152879e-06 -1.29384795868291e-05 -0.000334952013142988 -0.000203175360595356 -0.000956999170225299 -0.00027031227650043 -0.000501305239327425 0.000945391525421512 -0.00176953448566176 -0.00125610155306919 -0.000185744363568085 0.0013181568239925
"100" -0.000459571397385769 -0.000297145672020439 -0.000131599034436775 -0.000161281302967306 -2.96665600863138e-05 -1.59251973273902e-05 -0.000342477742675039 -0.000213967576544085 -0.000961213459401682 -0.000240628533740155 -0.000649690269110697 0.000849355693046529 -0.00171005157873178 -0.00132573319859207 -7.73206770053285e-05 0.00140262425177179
"101" -0.000443390420639081 -0.000293132590984291 -0.000129966952775116 -0.000146861386252189 -4.73426797107865e-05 -1.81349854545699e-05 -0.000347997554818202 -0.000223885057193245 -0.00096659350468594 -0.000212277126198382 -0.000786064316321502 0.000767718872493439 -0.00164326725252441 -0.00139302625207123 4.40953938998466e-05 0.00148666005893377
"102" -0.000425381348731118 -0.000286962844826395 -0.000127648065099094 -0.000130037690211256 -6.26562542051948e-05 -1.94672669212126e-05 -0.000351397194970585 -0.000232837584648515 -0.000972803505814426 -0.000185677145108256 -0.000909475693755943 0.000701053390256653 -0.00156898319788106 -0.00145654484948504 0.000177677465922366 0.00156995976256725
"103" -0.000405683245533194 -0.000278605465909513 -0.000124615938182357 -0.000111021635161785 -7.54131913686244e-05 -1.98386718867462e-05 -0.000352597465198666 -0.000240760334077769 -0.00097941995330604 -0.000161154682250294 -0.00101918439888234 0.00064978803398109 -0.00148705283827726 -0.00151491549554363 0.000322486390117434 0.00165221559275336
"104" -0.000384448744630938 -0.000268038852728483 -0.000120866994963454 -9.0045920489472e-05 -8.54691712512027e-05 -1.91850870108092e-05 -0.000351535449208269 -0.000247596388982451 -0.000985962422601464 -0.000138972835252955 -0.00111465815966706 0.000614198214616929 -0.00139739406051656 -0.00156686862389903 0.000477443010743753 0.00173310299843375
"105" -0.000361840885864311 -0.000255253286136881 -0.000116401877198925 -6.73553584272367e-05 -9.27519108809351e-05 -1.74616375356846e-05 -0.000348189247716026 -0.000253307072235453 -0.000991914405858667 -0.000119327212830215 -0.00119556368432128 0.000594412107686879 -0.00129999185515967 -0.00161125884019336 0.000641349812952067 0.00181229574366521
"106" -0.000338037088496742 -0.000240244500292007 -0.000111242478096801 -4.32079421645235e-05 -9.72345705104115e-05 -1.46370184768514e-05 -0.000342551361507071 -0.000257866864875154 -0.000996729490640968 -0.000102357383236448 -0.00126176184344083 0.000590397897009596 -0.00119489847180827 -0.00164708504191015 0.000812856419693848 0.00188944674395232
"107" -0.000313217870844426 -0.000223023278520096 -0.000105417939517356 -1.78657878673199e-05 -9.89368059371431e-05 -1.06931734578241e-05 -0.000334640009317924 -0.000261262491188748 -0.000999837450598689 -8.81484323388309e-05 -0.00131328874327998 0.000601966192458828 -0.00108222631444855 -0.00167349939974518 0.000990467802063606 0.00196419324602759
"108" -0.000287565221560612 -0.000203607025093783 -9.89658088988028e-05 8.40524885264408e-06 -9.79149128874609e-05 -5.6267900281432e-06 -0.00032449476024785 -0.00026349112498068 -0.00100068221397418 -7.67366784903323e-05 -0.001350351593011 0.000628756209655077 -0.000962164440227344 -0.00168981926153558 0.00117253916185826 0.00203615461412382
"109" -0.000261263743972479 -0.000182026586613415 -9.19260049679348e-05 3.53446143168084e-05 -9.42495234777353e-05 5.63121575006482e-07 -0.000312168304485243 -0.000264554520076535 -0.000998707890374941 -6.81259006192464e-05 -0.00137330829208025 0.000670236929483885 -0.00083495858445501 -0.00169553338191321 0.00135727154542569 0.00210492156963745
"110" -0.000234489529443938 -0.000158326300320817 -8.43375076716815e-05 6.26981778333443e-05 -8.80459553403029e-05 7.87309477168641e-06 -0.000297723830806698 -0.00026445968561883 -0.00099340695088364 -6.22869382111151e-05 -0.00138264507680527 0.000725704715366781 -0.000700904097923688 -0.00169029375624045 0.00154271978122969 0.00217005492169136
"111" -0.000207411727372107 -0.000132565006096633 -7.62342976040701e-05 9.02229164238758e-05 -7.94010382335307e-05 1.629509761111e-05 -0.000281234320969877 -0.000263205432541375 -0.000984300683376702 -5.91528927330577e-05 -0.00137897327445262 0.000794279457134967 -0.000560357359118616 -0.00167391955903609 0.00172678938028125 0.00223108496080191
"112" -0.000180189561297036 -0.000104816876547638 -6.76469709585248e-05 0.000117694606259603 -6.84134542201083e-05 2.58252479405662e-05 -0.000262784590160098 -0.000260799442162831 -0.000970967807326157 -5.86417905881785e-05 -0.00136301247923934 0.000874908010720658 -0.000413723802107855 -0.00164639251684095 0.00190725858902967 0.00228750423006947
"113" -0.000152970384252844 -7.51704752287177e-05 -5.85987172463329e-05 0.000144902117220174 -5.51847969523898e-05 3.64608591408079e-05 -0.000242459569771012 -0.000257235589502677 -0.000953032326290543 -6.0622940858682e-05 -0.00133556783278492 0.000966372238084279 -0.000261471529451639 -0.00160783728843889 0.0020817943270432 0.00233877771014598
"114" -0.000125894599261029 -4.37353674086844e-05 -4.91012481879303e-05 0.000171659742298847 -3.97834746912705e-05 4.8208660792723e-05 -0.000220349917637315 -0.0002525030191262 -0.000930200490358769 -6.49631514354667e-05 -0.00129752515602193 0.00106728809095104 -0.000104093392647812 -0.00155852529362772 0.0022479804709193 0.00238433904905602
"115" -9.90775970761926e-05 -1.06410804921956e-05 -3.91606751944991e-05 0.000197801234288945 -2.22775564468624e-05 6.10674945790717e-05 -0.00019655001665744 -0.000246585122143111 -0.000902214888993203 -7.14786733933233e-05 -0.00124983641486165 0.00117613323903197 5.78484692531056e-05 -0.00149885445484621 0.00240334490088772 0.00242359944207813
"116" -7.26301496250198e-05 2.39679716748892e-05 -2.87692883940583e-05 0.000223187821216435 -2.70985409665356e-06 7.50537158626169e-05 -0.000171153916272864 -0.000239454052899996 -0.000868917470300111 -7.99833116677325e-05 -0.00119351006894756 0.00129124158776596 0.000223768715010413 -0.00142935664469042 0.00254540496600881 0.00245595050130813
"117" -4.66437946736515e-05 5.99277513732609e-05 -1.79167385028567e-05 0.000247698663757402 1.88869739195722e-05 9.01728794672267e-05 -0.000144265482413101 -0.000231079820992517 -0.000830182418072898 -9.02368318835168e-05 -0.00112960883786426 0.001410831543003 0.000393017706717298 -0.00135066887734342 0.00267169879155954 0.00248078257086529
"118" -2.11986302821637e-05 9.70587483591219e-05 -6.5863038639456e-06 0.000271242510827326 4.2493238118177e-05 0.000106439432388056 -0.000115993394439844 -0.000221424825634739 -0.000785965552948806 -0.000101988195819272 -0.00105922700648007 0.00153302162684612 0.000564919580463808 -0.00126353389397962 0.00277982974988976 0.0024974863243384
"119" 3.6422675368205e-06 0.000135157940601736 5.25129209298618e-06 0.000293747004817957 6.81018927333491e-05 0.000123861932121892 -8.64445044573947e-05 -0.000210448110294468 -0.000736279872800293 -0.00011495372302997 -0.000983495096969795 0.00165585187920819 0.000738751851363893 -0.00116879359659478 0.0028675326800071 0.00250547571457588
"120" 2.78189120037281e-05 0.000174010781291941 1.76182784620902e-05 0.000315167007132034 9.57154802314468e-05 0.000142446780952925 -5.57321263750002e-05 -0.000198099132586575 -0.000681218289081408 -0.00012883711489242 -0.000903566455387049 0.00177730434646459 0.000913753403823496 -0.0010673843160423 0.00293269211661016 0.00250418638269075
"121" 5.12988265021284e-05 0.000213390285520121 3.05470586050189e-05 0.000335476194095887 0.000125325692114613 0.000162195846220915 -2.39848004046078e-05 -0.000184339832272922 -0.000620905539178464 -0.000143301391831741 -0.000820613906311974 0.0018953308854217 0.00108912373028282 -0.000960319427018882 0.00297341589306657 0.00249310183006133
"122" 7.40408847708026e-05 0.000253054535800111 4.40626544969519e-05 0.00035467014756296 0.000156936109899751 0.000183104787439946 8.67341596575601e-06 -0.000169119648894753 -0.000555559327992203 -0.00015801346189033 -0.000735821384062266 0.00200786502667977 0.00126403256147929 -0.000848693877598933 0.00298806746169487 0.00247175036048012
"123" 9.60313136195173e-05 0.000292749521295301 5.81913258221608e-05 0.000372760323221649 0.000190531821868038 0.000205157236096329 4.21024799740695e-05 -0.000152398062096555 -0.000485436483210715 -0.000172611443489275 -0.000650375237381882 0.00211286256969254 0.00143761553683469 -0.000733673445909911 0.00297530693385218 0.00243972910552216
"124" 0.000117253116917937 0.000332219307771121 7.29546192990191e-05 0.000389774891293739 0.000226093275849827 0.000228331396862053 7.61590800315322e-05 -0.000134144268322518 -0.0004108675055779 -0.000186729287265469 -0.00056546728829351 0.00220832269988321 0.00160897071384959 -0.000616486979388365 0.00293413557263823 0.00239671285107512
"125" 0.000137695888134341 0.000371196543077519 8.83658840019884e-05 0.000405758646237446 0.000263581459803572 0.000252585134374454 0.000110690969159157 -0.000114326715005791 -0.000332217144818225 -0.000199983651347529 -0.000482270395254241 0.00229231350952381 0.00177717588678884 -0.000498417578936951 0.00286390743916045 0.00234245765494402
"126" 0.00015736465589313 0.000409416000654499 0.000104430959573487 0.000420765655263583 0.000302948112484488 0.000277873121963102 0.000145538938231501 -9.29254988542952e-05 -0.000249945286958735 -0.0002120102950376 -0.000401942754923094 0.00236299219894812 0.00194129151151922 -0.000380803409169389 0.00276436854413927 0.00227681263478876
"127" 0.000176258771918211 0.00044660758161036 0.000121147501942045 0.000434861202152952 0.000344114857665796 0.000304127859457587 0.000180537066658904 -6.99370275345879e-05 -0.000164528180019328 -0.000222423517046515 -0.000325615144890982 0.00241865034811908 0.00210035626502548 -0.000265012471772219 0.00263565111688024 0.00219973331754454
"128" 0.00019439025366265 0.000482510305881553 0.000138506274818656 0.000448120212631159 0.000386984704066114 0.000331275721861789 0.000215507846896805 -4.53639468965669e-05 -7.65352976528561e-05 -0.000230865548459964 -0.000254380257621445 0.00245772288134384 0.00225340289481901 -0.000152439659127982 0.00247827883862141 0.00211127375090255
"129" 0.000211765789388084 0.000516863556103368 0.00015648051426183 0.000460615642515547 0.000431442212041759 0.000359219885968894 0.000250277399351117 -1.92304846480595e-05 1.34448480666939e-05 -0.00023697560812492 -0.000189280550822954 0.00247882550559482 0.00239946173337529 -4.44982928024641e-05 0.00229315446321377 0.00201159629061646
"130" 0.000228397425544571 0.000549418868419015 0.000175035897146294 0.000472435093622315 0.000477341767618689 0.000387854586517655 0.000284660521826256 8.43383834864769e-06 0.000104745341113402 -0.000240420151216529 -0.000131304288004863 0.00248076991094725 0.00253756486045885 5.73970470933116e-05 0.0020815399652132 0.00190096740592616
"131" 0.000244299240334187 0.000579940645963617 0.000194127781543186 0.000483657033836135 0.000524508194482288 0.000417058257499088 0.000318468544204107 3.75751256824128e-05 0.000196682552540993 -0.000240876218821899 -8.13584691880366e-05 0.00246259026476515 0.00266675658482011 0.000151850176987973 0.00184502028765964 0.00177976193758759
"132" 0.000259479988417861 0.000608205070018336 0.0002136968606249 0.00049436277444517 0.00057275269820671 0.000446692376738093 0.000351521993309731 6.81269377360692e-05 0.000288519191429349 -0.000238048150609749 -4.02715675014382e-05 0.00242355880760416 0.00278609420195114 0.000237490330674903 0.00158547995427577 0.00164845647334983
"133" 0.000273949178417606 0.000634008420355987 0.000233671629498116 0.000504630512716429 0.000621854118954743 0.000476610488156767 0.00038362650786941 9.999613099977e-05 0.000379488369417715 -0.000231667947905093 -8.77822583973403e-06 0.00236321536488497 0.00289466681589184 0.000313001831704665 0.00130505994244875 0.00150762936918443
"134" 0.000287721827637739 0.000657167601219461 0.000253969772915833 0.000514537404767933 0.000671574180212112 0.000506649532723393 0.000414603058119572 0.000133087460418718 0.000468781416780203 -0.000221520887900144 1.2498902070855e-05 0.00228135536404498 0.0029916037256545 0.000377128213183659 0.00100610953718796 0.00135794726999859
"135" 0.000300799612301124 0.000677519255390349 0.000274501559168682 0.000524149051642118 0.000721643055064822 0.000536635082179552 0.000444263354788863 0.000167273121523393 0.000555603742640764 -0.000207396022101166 2.30575564694757e-05 0.00217806253286541 0.00307607304501384 0.00042871113526288 0.000691137103786601 0.00120016437648849
"136" 0.000313192347270698 0.00069492594664597 0.000295160288825525 0.000533526111237845 0.000771779325646477 0.000566388573855881 0.000472438004346157 0.000202413938514073 0.000639137817596072 -0.000189141730345093 2.25190116757724e-05 0.00205370809107764 0.00314729209807829 0.000466697012404406 0.000362782276904823 0.00103511198607224
"137" 0.000324899024006633 0.000709279059976547 0.000315839135296771 0.000542722855102149 0.000821691931080453 0.000595718386993668 0.000498952054506463 0.000238352673793107 0.000718562094465312 -0.000166657378770014 1.06490073549006e-05 0.00190894966107078 0.00320455561353916 0.000490157264539836 2.37478183152662e-05 0.000863681263246663
"138" 0.000335919211432962 0.000720498440438737 0.000336410370789753 0.000551777605603755 0.000871056000656956 0.000624427915936018 0.000523653268369359 0.000274919458459311 0.000793094890820826 -0.000139868908495496 -1.26449362510095e-05 0.00174472652180933 0.00324721241051672 0.000498327756148363 -0.000323219971194786 0.000686820202532085
"139" 0.000346248489194786 0.00072853130570148 0.000356755284858156 0.000560722504972129 0.000919557219804967 0.000652319014766741 0.000546389520776656 0.000311919412587936 0.000861958643848817 -0.000108779669617327 -4.72957192359777e-05 0.00156223990542901 0.00327472059570623 0.000490606389919098 -0.000675386423440009 0.000505510999056791
"140" 0.000355882438920132 0.000733352824605755 0.000376739341380404 0.000569579468486615 0.000966861399841599 0.000679191402239854 0.000567025460438148 0.000349154781613108 0.000924436934603268 -7.34267407778827e-05 -9.30930421493051e-05 0.00136297231702714 0.00328660133339429 0.000466593752816262 -0.00103002770960191 0.000320780048286165
"141" 0.000364814539107599 0.000734976574082681 0.000396226756608932 0.000578356968385929 0.00101264106338084 0.000704845319549589 0.00058544816347139 0.000386412738864346 0.000979842579183661 -3.39287673993491e-05 -0.000149663722386972 0.00114863266479611 0.0032824919796641 0.000426093372373328 -0.0013844985464533 0.000133655043089511
"142" 0.000373029400545819 0.000733439169933283 0.000415082746977573 0.000587052988338748 0.00105656377676753 0.000729084169808506 0.000601547187814966 0.000423461596242576 0.0010275737780233 9.55031382909225e-06 -0.000216483265313645 0.000921165211853758 0.00326212846393875 0.000369132069746532 -0.00173622493787816 -5.48161410912715e-05
"143" 0.000380513837146762 0.000728813369915445 0.000433174682022962 0.000595651853783087 0.00109830518447898 0.000751718182796947 0.000615247147894832 0.000460075819107663 0.00106708558561364 5.67709448729844e-05 -0.000292889374906444 0.000682703502990692 0.00322536216085996 0.000295969996873129 -0.00208273103653529 -0.000243596374002719
"144" 0.000387260882150864 0.000721195552474914 0.000450369343361321 0.000604130697893726 0.00113755288257956 0.000772567693531246 0.000626473472837871 0.000496010688282928 0.00109793309016973 0.000107430481437793 -0.000378076590366134 0.000435555851326363 0.00317216039156963 0.000207106918191654 -0.0024216478550573 -0.000431651329254728
"145" 0.000393253916569939 0.000710716539153565 0.000466538733882551 0.000612450925899913 0.00117401709272995 0.000791462987510988 0.000635190429286858 0.000531024768682188 0.00111974103743432 0.000161150149252966 -0.000471127673456922 0.000182165900403234 0.00310261386133649 0.000103272256278625 -0.00275073332837253 -0.000617974918086496
"146" 0.000398480151494262 0.000697532032126264 0.000481566555913232 0.000620572451039505 0.00120741248601374 0.000808247893763072 0.000641373484517492 0.000564879447538672 0.00113224439072917 0.000217487490018781 -0.000571020909245847 -7.49010949115829e-05 0.00301693227776786 -1.45616571302234e-05 -0.00306785070906808 -0.000801584962429779
"147" 0.000402929811578469 0.000681818291657556 0.000495336436830744 0.000628438961912813 0.00123749261627496 0.000822783257057588 0.000645021997395848 0.000597330986384187 0.00113526469834656 0.000275926927339262 -0.000676640445001264 -0.000333023533599109 0.00291546870923319 -0.000145207035686199 -0.00337101909423224 -0.000981533916655895
"148" 0.000406594950981606 0.000663781241959601 0.00050775235527307 0.000635993472025278 0.00126403581218344 0.000834948771773277 0.000646154882229686 0.000628147117150975 0.00112873487278067 0.00033588677988643 -0.000786811868255833 -0.000589526924310977 0.00279869287452919 -0.000287255950920206 -0.00365836119422651 -0.00115691893987493
"149" 0.000409470481514521 0.000643640159455295 0.000518725116724952 0.000643167615042765 0.00128683644683227 0.000844641769972526 0.000644819159096062 0.000657092089697304 0.00111269180376607 0.000396736739391972 -0.000900311112973568 -0.000841732238457401 0.00266719957025181 -0.000439114868955319 -0.00392813293360124 -0.00132686736850126
"150" 0.000411550536594402 0.000621638766773438 0.000528180185456245 0.000649893175323108 0.00130574124954267 0.0008517823368439 0.000641078161003389 0.000683953156680295 0.00108726688420334 0.000457781328696177 -0.00101589788262444 -0.0010869978758182 0.00252171601810606 -0.000599022253544696 -0.0041787196232138 -0.00149057317044605
"151" 0.000412840853495994 0.000598030148331277 0.000536059741450129 0.000656097593610752 0.00132062557622313 0.000856312564601778 0.000635020234303247 0.000708520800088684 0.00105268705174055 0.000518283709586455 -0.00113234105771123 -0.00132275304550363 0.0023630890561621 -0.000765084408501303 -0.00440863601980389 -0.00164726886881208
"152" 0.000413349529493298 0.000573079563466868 0.000542321671715411 0.000661707219434965 0.00133140169933926 0.000858199850761042 0.000626752880415476 0.000730605152489006 0.00100925726942649 0.000577466126116898 -0.00124844022308231 -0.00154652017770941 0.00219228207488704 -0.000935293889537113 -0.00461650269852898 -0.0017962464735392
"153" 0.000413090038750522 0.000547064480485725 0.000546942018587085 0.000666649616683849 0.00133801477498798 0.000857431769639951 0.000616397118211497 0.000750029840278376 0.000957387641482775 0.000634537942493027 -0.00136304439397808 -0.00175596403049302 0.00201036813408227 -0.00110756764409113 -0.00480107527412255 -0.00193684926204533
"154" 0.00041207475974584 0.000520262704311914 0.000549909936002843 0.00067085371831175 0.00134046001477151 0.000854023533239834 0.000604094086568674 0.000766643411417084 0.000897546519476859 0.000688691446589357 -0.00147507809423518 -0.00194891524687129 0.00181852120481366 -0.00127978736017955 -0.0049612134663717 -0.0020684819377033
"155" 0.000410332171152186 0.000492958048874596 0.000551240783336624 0.000674254480949659 0.00133875419067414 0.000848007390415916 0.000590000931548967 0.000780307758010401 0.00083027649527098 0.000739133584699269 -0.00158356784328357 -0.00212340424119553 0.00161802061679836 -0.00144982174995427 -0.00509589002006973 -0.00219059990365288
"156" 0.000407887661953616 0.000465432270344525 0.000550957582427304 0.000676788371127059 0.00133296856707868 0.000839446222085817 0.000574285989602196 0.000790909396507216 0.000756166317315038 0.000785080730696444 -0.00168764754690032 -0.00227769074934534 0.00141022873283074 -0.00161557409649815 -0.00520420053078223 -0.00230272356256203
"157" 0.00040477221197043 0.000437962588595207 0.000549107934338038 0.000678401864936842 0.00132318812085783 0.000828417180775916 0.000557129505150535 0.000798361852186539 0.000675873702683585 0.000825802637155808 -0.00178657471718649 -0.00241026931400736 0.00119657766999015 -0.00177499586681236 -0.00528534984582643 -0.00240442774489637
"158" 0.000401024357310907 0.0004108202544264 0.000545748527935675 0.000679045866399611 0.00130954244348457 0.00081501920319375 0.00053871109284667 0.000802596505176922 0.000590089817098681 0.000860620960744318 -0.00187974644646272 -0.00251990831852473 0.000978560171267306 -0.00192612817263794 -0.00533865796750614 -0.00249534364961988
"159" 0.000396683365488326 0.000384267340057029 0.000540957662885557 0.000678680132247294 0.00129218335381215 0.000799370242256102 0.000519221794885581 0.000803570542262758 0.000499547522849639 0.000888926869249989 -0.00196668755519439 -0.00260565584596655 0.00075771970494469 -0.00206711424848872 -0.00536357341076418 -0.00257516389644305
"160" 0.000391789639674093 0.000358552128053168 0.000534823630117914 0.000677279588760093 0.00127129578646185 0.000781602820619983 0.000498856153629785 0.000801268800042773 0.000404994980581081 0.00091020090586231 -0.0020470726955522 -0.00266683899524696 0.000535624176425324 -0.00219624141901206 -0.00535965549908294 -0.00264363732108838
"161" 0.000386387535853613 0.000333910017764762 0.000527449057487328 0.000674822091001855 0.00124707871910975 0.000761866245389628 0.00047780652780388 0.000795700868758879 0.000307216723907781 0.000924021731335322 -0.00212070985639017 -0.00270309021050662 0.000313877740543337 -0.0023119322357529 -0.00532660758995115 -0.00270057053159266
"162" 0.000380525156892617 0.000310559308478922 0.000518945513481178 0.000671296632024681 0.00121974346108616 0.000740316328390199 0.000456255882810155 0.000786895509356853 0.00020702583093446 0.00093008861021428 -0.00218754164472893 -0.00271432469868915 9.40668147694317e-05 -0.00241277173658091 -0.00526425687936515 -0.00274582886001554
"163" 0.000374243414337093 0.000288698468447852 0.00050943588638731 0.00066670582365159 0.00118953265484114 0.00071712258050368 0.000434390296975927 0.000774913129150727 0.000105227251293208 0.000928203568975199 -0.00224762632688933 -0.0027007638456379 -0.000122215943812838 -0.00249753083938853 -0.00517257629702897 -0.00277933318847606
"164" 0.000367590602006189 0.000268506186428193 0.000499049498281932 0.000661059761745861 0.00115668439642056 0.00069246136486865 0.000412386824398605 0.000759826861879826 2.65325214991032e-06 0.000918307833551384 -0.00230113921772776 -0.00266289924345541 -0.000333420071465849 -0.00256514792175396 -0.00505168345887426 -0.00280106059159812
"165" 0.000360602634952772 0.000250139361617562 0.000487918580765772 0.000654385459407879 0.00112145866235118 0.000666515802824966 0.000390412055465227 0.000741743323698647 -9.98783581846944e-05 0.000900453338700768 -0.00234835124487566 -0.0026015081377912 -0.000538036978250156 -0.00261474286906249 -0.00490185856764272 -0.00281104731081059
"166" 0.000353330071815353 0.000233732424258088 0.000476186636208949 0.00064671261602038 0.00108411245336046 0.00063947136043385 0.000368621777550015 0.000720785774424359 -0.000201524735264044 0.000874822436054387 -0.00238961728308896 -0.00251762109961449 -0.000734617252980847 -0.0026456193963309 -0.00472355691445815 -0.00280939449160012
"167" 0.000345805391005229 0.000219391969276537 0.000463995967115168 0.000638086072710865 0.00104490283976884 0.000611514041736819 0.000347162486208768 0.000697095232655526 -0.000301466277147897 0.000841715067164436 -0.00242535676799057 -0.00241251272838251 -0.000921791702729846 -0.00265726777408839 -0.00451740695134542 -0.00279624917410408
"168" 0.000338069565853216 0.000207204920124322 0.000451486708531651 0.000628560164906229 0.00100409986321665 0.000582834582536285 0.000326165486122812 0.000670836776631468 -0.000398888116776006 0.000801543383443221 -0.00245603951293887 -0.00228767505820946 -0.0010982789008313 -0.0026493439366774 -0.0042842262849647 -0.0027718246164343
"169" 0.000330153666869254 0.00019722671560377 0.000438809196179608 0.000618195705805531 0.000961957682022764 0.000553619667903417 0.000305755149129418 0.000642191220354115 -0.000492982413603248 0.000754816093570098 -0.00248216949200381 -0.00214481192961329 -0.00126290214088939 -0.00262168606892412 -0.00402505266378168 -0.00273638526679488
"170" 0.00032209345725522 0.00018949116045533 0.00042609902711504 0.000607067465731487 0.000918737160116785 0.000524053940953638 0.00028603135799375 0.000611352553594495 -0.000582971350791313 0.000702138773205419 -0.0025042675631876 -0.00198579818372387 -0.00141459510519074 -0.00257429288874997 -0.00374111833659612 -0.00269024854353209
"171" 0.000313915308435403 0.000184005513407999 0.000413497048794487 0.000595251546333593 0.000874691158796762 0.000494318891165187 0.000267088169890839 0.000578537445321695 -0.000668090272035678 0.000644186687127935 -0.00252286035903104 -0.00181266829466813 -0.00155242029910294 -0.0025073225774551 -0.00343388750982686 -0.00263378987179702
"172" 0.000305642460776142 0.000180749046625926 0.000401142632264541 0.000582833787522973 0.000830072059425045 0.000464597007574371 0.000249007519975217 0.000543967495527069 -0.00074762348155846 0.000581694464982063 -0.00253846433342565 -0.0016275903888572 -0.00167557061196984 -0.00242109853406007 -0.00310504448224349 -0.00256743186420907
"173" 0.000297308292887862 0.000179679599097747 0.000389157842822091 0.00056990746593603 0.000785116768740294 0.000435056901341446 0.000231851870500783 0.000507879056548711 -0.000820871573452414 0.000515456384257665 -0.0025515666231855 -0.00143284169914818 -0.00178338098862374 -0.00231607742948859 -0.00275651426275034 -0.00249164849709867
"174" 0.000288926332311879 0.000180727940487497 0.000377675342602005 0.000556567751733973 0.000740059407194115 0.000405868204684148 0.000215674172445247 0.000470522668060431 -0.000887202723671688 0.000446275251946056 -0.00256262654680142 -0.00123078245434599 -0.00187531996939296 -0.00219286775656106 -0.00239045979547615 -0.00240696089804375
"175" 0.000280529342667946 0.000183800004014364 0.000366803730005082 0.00054291569343263 0.000695132756806568 0.000377192689755671 0.000200519642175124 0.000432153695960374 -0.000946021803918087 0.000374991649203441 -0.0025720557931013 -0.00102383259282944 -0.00195100379818911 -0.00205220951131641 -0.00200927248987632 -0.00231392823505561
"176" 0.00027212979967867 0.000188786364316198 0.000356656641759601 0.000529049937665682 0.00065055175343572 0.000349183706597524 0.000186414677388444 0.000393028929176864 -0.00099678878043895 0.000302439860473882 -0.00258021568410937 -0.000814450229021605 -0.00201018481475646 -0.00189497608475434 -0.00161560199812979 -0.00221315090955183
"177" 0.000263750218815207 0.000195545832545699 0.000347328015541964 0.000515078056223829 0.000606526279698847 0.000321989029952247 0.000173371932813764 0.000353418402399512 -0.00103903263936291 0.000229448871850659 -0.00258740588960926 -0.000605091644911538 -0.00205275806755419 -0.00172216673137825 -0.00121230158284624 -0.00210526859914471
"178" 0.000255409246789058 0.00020392520411945 0.000338911789128549 0.000501099919965076 0.000563260366646543 0.000295746537966813 0.000161410800493771 0.000313592184203674 -0.00107235064339256 0.000156813389718823 -0.00259385955163335 -0.0003982049367161 -0.00207874333789065 -0.00153490459287786 -0.0008024568520817 -0.00199095207470913
"179" 0.000247129426989469 0.000213752233613285 0.000331482549686261 0.000487220373885308 0.000520939671156097 0.000270587838111102 0.00015052247864448 0.000273819327201251 -0.00109641390052731 8.53050449050097e-05 -0.00259974188117118 -0.000196188789807083 -0.0020882943903088 -0.00133442515642322 -0.000389340059851191 -0.00187090546986275
"180" 0.000238929692421309 0.00022483651628546 0.000325108353365178 0.000473538281121241 0.000479751294126622 0.000246635364103633 0.000140701660512594 0.00023437088470228 -0.00111096884820361 1.56457601533278e-05 -0.00260514209611935 -1.36670598268853e-06 -0.00208167970170512 -0.00112207456421365 2.36028455953927e-05 -0.00174585062516864
"181" 0.000230830315329501 0.000236973601689881 0.000319842342471338 0.0004601469393919 0.000439862476401698 0.00022399823947365 0.000131926373532102 0.000195511408207583 -0.00111583382167326 -5.1476538292596e-05 -0.0026100809481981 0.000184036258017659 -0.00205929433998073 -0.000899295840644699 0.000432797454166977 -0.00161653498477316
"182" 0.000222853443903556 0.000249950307028598 0.00031572586443826 0.000447140286093795 0.000401430648686049 0.000202780033063948 0.00012417973393552 0.000157501275780886 -0.0011109351275553 -0.000115449050981955 -0.00261450258601872 0.000357917248448198 -0.00202162064895083 -0.000667641087257976 0.000834561484094617 -0.00148371840480955
"183" 0.000215018168314982 0.000263536509276224 0.000312791509926901 0.000434607447798678 0.000364606928636332 0.00018306941729833 0.000117424036638427 0.000120599087128224 -0.00109626658367405 -0.000175707605922061 -0.00261828292855759 0.000518328542089851 -0.00196925384454418 -0.000428744053585409 0.0012251734069829 -0.00134817517231899
"184" 0.000207352337634883 0.000277502914082905 0.000311048740221537 0.000422624566092178 0.000329526184516132 0.000164948468529566 0.000111630784343387 8.50488520042223e-05 -0.00107191838584984 -0.000231751884364042 -0.00262122946671726 0.00066349316080965 -0.00190287608389627 -0.000184327855531427 0.00160090420015023 -0.00121068944225272
"185" 0.000199878273437892 0.000291608659483416 0.000310499257541957 0.000411270236148784 0.000296309280341488 0.000148479639932989 0.00010675697891593 5.10897368397834e-05 -0.00103807548400299 -0.000283146398751749 -0.00262309481889455 0.00079183402972655 -0.00182324979565995 6.38228977101822e-05 0.00195808266723066 -0.00107204061676624
"186" 0.000192626074364527 0.000305614792389727 0.000311133395882615 0.0004006087747232 0.000265057870577861 0.000133719179500824 0.000102753698396028 1.89426367298808e-05 -0.000994989457511824 -0.000329516396666955 -0.00262357036391386 0.000901993925154274 -0.00173121958782003 0.000313850250730948 0.0022931537971468 -0.000933012405866214
"187" 0.000185625865361397 0.000319276567551403 0.000312919558900457 0.000390704500290157 0.000235873144211338 0.000120703411302603 9.95754812713734e-05 -1.11861576472827e-05 -0.00094302811637018 -0.000370547876711549 -0.00262231328725522 0.000992860070385392 -0.00162770653250029 0.000563847831941081 0.0026027499513865 -0.000794380351078565
"188" 0.000178900037392341 0.000332356637413055 0.000315815440097572 0.000381610519007916 0.000208829422887462 0.000109457213455333 9.71698094114852e-05 -3.90997959851783e-05 -0.000882636894479643 -0.000405996789197528 -0.00261893695910977 0.00106356358621876 -0.00151369209023245 0.000811865226171313 0.00288373213063678 -0.000656907269197385
"189" 0.000172491538133893 0.000344618500912715 0.000319770189099754 0.000373374046341933 0.000183984335932851 9.99901747739642e-05 9.54769960997058e-05 -6.46260721897339e-05 -0.000814335924058645 -0.000435664251796136 -0.00261303219185846 0.00111350850376282 -0.00139022404267332 0.00105593178995436 0.00313327241944783 -0.000521341397589358
"190" 0.000166429815832948 0.00035583256943924 0.000324716036431952 0.000366038715620186 0.000161389287500733 9.22947449818505e-05 9.44405571007873e-05 -8.76070455441178e-05 -0.00073874833492786 -0.000459418233894512 -0.00260418081946082 0.00114236409534679 -0.0012584104146044 0.00129406078169471 0.00334889033380959 -0.000388412921119217
"191" 0.000160753890977567 0.000365780891923072 0.000330566809119881 0.000359637670448574 0.000141073777222593 8.63481395617391e-05 9.39994514809099e-05 -0.000107910512104153 -0.000656560040306282 -0.000477163580654597 -0.00259196425025368 0.00115007871376525 -0.00111941994573595 0.00152427999995669 0.00352850648539335 -0.000258825293155524
"192" 0.00015550512423529 0.000374258773894531 0.000337232125791982 0.000354200512580536 0.000123042057741255 8.21088313654989e-05 9.40899516154343e-05 -0.000125426845076935 -0.000568523683856093 -0.00048885844170921 -0.0025759781515094 0.00113686867136608 -0.000974468536329446 0.00174463858869365 0.00367048650057181 -0.000133251243789264
"193" 0.000150722805426408 0.000381070604822666 0.00034460379977837 0.000349750410606332 0.000107292818073658 7.95213592019279e-05 9.4643471316169e-05 -0.000140064011797016 -0.000475467394146816 -0.000494495833996834 -0.00255583889258393 0.00110322890767593 -0.000824822957852594 0.00195323614099962 0.00377367022540584 -1.23355174647651e-05
"194" 0.000146450277427195 0.000386040933060643 0.000352568371274507 0.000346304711541424 9.37994301751607e-05 7.85111853800837e-05 9.56012891628401e-05 -0.000151761118834051 -0.000378268076025782 -0.000494105233105868 -0.00253119850463824 0.00104990769899105 -0.000671789009294273 0.00214822991313247 0.00383737639934521 0.000103317778438414
"195" 0.000142739264019797 0.000389012914582576 0.000361002068805772 0.000343879094151344 8.25258895552125e-05 7.8992139006273e-05 9.68940472476617e-05 -0.000160473591021151 -0.000277868570424639 -0.000487756830237464 -0.00250176052022137 0.000977899227051929 -0.000516710178446169 0.00232787332974947 0.00386142843361478 0.000213140117618011
"196" 0.000139630800641906 0.000389849403063097 0.000369769478132542 0.000342478983474328 7.34137816536832e-05 8.08605342650758e-05 9.84548276305676e-05 -0.000166186363887933 -0.000175236824502381 -0.000475540299352124 -0.00246727837049477 0.00088842639417792 -0.000360955501090537 0.00249051003299001 0.00384612641800242 0.000316610570284422
"197" 0.000137176914521623 0.000388435410878281 0.000378729198940331 0.000342109089051083 6.63996861517068e-05 8.3999138515478e-05 0.000100221650858725 -0.000168909163009558 -7.13774822534937e-05 -0.000457571419116972 -0.00242757714896356 0.000782905914155982 -0.000205909493257507 0.00263461300689789 0.00379224028811406 0.00041325134581849
"198" 0.00013542479502516 0.00038468131866671 0.000387739611015761 0.000342769350800873 6.13960748192552e-05 8.8284640132854e-05 0.000102136981925567 -0.00016866920870863 3.26813657249025e-05 -0.000433989883844599 -0.00238254826423156 0.000662943215128548 -5.29601604112991e-05 0.00275879980988578 0.00370098294160344 0.000502633968027462
"199" 0.00013442600471448 0.000378524650774751 0.000396653229646816 0.000344453482511212 5.83147214308643e-05 9.35794644755318e-05 0.00010413819537179 -0.000165518706534319 0.000135897478393933 -0.000404961009503887 -0.00233216192309436 0.000530289056760569 9.65261819563725e-05 0.0028618346546973 0.00357395597072885 0.000584375886147295
"200" 0.000134231432075034 0.000369926869913883 0.000405319896846394 0.000347147437906225 5.70560197248705e-05 9.97428354782562e-05 0.000106179003070624 -0.000159535717478837 0.000237240911608669 -0.000370659883370047 -0.00227646392206877 0.000386821446290717 0.000241194249640969 0.00294267738238974 0.00341312607675251 0.000658150244838863
"201" 0.000134887531441031 0.000358883844502237 0.000413592475658501 0.000350839148933546 5.75088512461463e-05 0.000106627203499226 0.000108208433370281 -0.000150803755829175 0.000335678407472153 -0.000331284681670774 -0.0022155846942744 0.000234508415080845 0.00037974048362867 0.00300046587713315 0.00322075960109921 0.000723681982275508
"202" 0.000136442439207925 0.000345417059875862 0.000421317446628997 0.000355504182242936 5.95624686349135e-05 0.000114086265053956 0.000110190402739544 -0.000139440350497901 0.000430211654345212 -0.000287048806724503 -0.00214972631936839 7.53837518636354e-05 0.000510917734746181 0.00303454788351971 0.00299937927736167 0.00078075332711585
"203" 0.000138942840755348 0.00032957430061801 0.00042836285206672 0.000361117640823115 6.31112647231146e-05 0.000121973377313833 0.000112096390607042 -0.000125562812739843 0.000519857698414951 -0.000238190549735546 -0.00207917069877121 -8.84895474433309e-05 0.000633548349842582 0.00304448943904903 0.00275171284630385 0.000829193905207444
"204" 0.000142426337267386 0.000311439821822707 0.000434581162485672 0.000367641562095928 6.80317281460328e-05 0.0001301470221798 0.00011390133919095 -0.000109310861846419 0.00060370305997138 -0.00018494836080022 -0.00200426519294626 -0.000255028333280942 0.000746542474414638 0.00303008029730665 0.00248062866811491 0.000868895345940619
"205" 0.000146933940164559 0.000291124229159227 0.000439850584051722 0.0003750397014204 7.42264526689788e-05 0.000138472755309884 0.00011559348915533 -9.08337922683645e-05 0.000680867070777865 -0.000127595737655248 -0.00192542005337321 -0.000422185768015981 0.000848915187384371 0.00299133739489859 0.00218909010197301 0.00089979245483164
"206" 0.000152499919135902 0.000268761504278535 0.000444048872867232 0.000383262988445898 8.15819035264615e-05 0.000146821865083833 0.000117176078766573 -7.02893034504416e-05 0.000750550567126541 -6.64071024224156e-05 -0.00184310497809032 -0.00058795103161965 0.000939787314823974 0.00292851604639477 0.00188011583322547 0.000921880945998335
"207" 0.000159147877066634 0.000244520081961271 0.000447070397989432 0.000392261851858751 9.00034582868464e-05 0.000155081107744319 0.000118654433472428 -4.78404205107921e-05 0.000812016025645352 -1.68262029022646e-06 -0.00175784121179814 -0.000750387212688134 0.00101841282959395 0.0028421068435871 0.0015567259909045 0.000935204830832287
"208" 0.000166901240382266 0.000218591619844561 0.000448816551417191 0.000401973034958401 9.94011378454601e-05 0.000163144299789828 0.000120044096657295 -2.36553098128245e-05 0.000864618957079718 6.62618303916327e-05 -0.00167018448769846 -0.000907644796942448 0.00108416471514184 0.00273282864563707 0.00122190125638851 0.00093986325776317
"209" 0.000175776755679897 0.000191187813825864 0.000449206902692273 0.000412332184266747 0.000109684496529387 0.00017092380562199 0.000121380416542292 2.09015164295554e-06 0.000907811612213142 0.000137102876747707 -0.00158073194803935 -0.00105798380907153 0.00113656960840533 0.00260162751254604 0.000878556108572664 0.000936000958739291
"210" 0.000185779258206311 0.00016254365324044 0.000448174475481306 0.000423267908032913 0.000120786340814969 0.000178344418961721 0.000122698885856239 2.92211723899596e-05 0.0009411322612255 0.000210494324597127 -0.0014900957383679 -0.00119978247222 0.00117528695436339 0.00244966890798389 0.000529517410713815 0.000923812756352191
"211" 0.000196908888955759 0.000132912337166374 0.000445672498336194 0.000434704634189328 0.000132641671405198 0.000185348941078981 0.000124043356068249 5.75631665763939e-05 0.000964224619474872 0.000286076137689639 -0.00139890601159147 -0.00133156648547736 0.00120013197579508 0.00227831154033042 0.00017748132886102 0.000903535954291507
"212" 0.000209157715270916 0.000102565554183096 0.000441663634140181 0.000446557225354376 0.000145190832794546 0.00019189105416175 0.000125468606200282 8.69411832397154e-05 0.000976858215119993 0.000363482326108971 -0.00130779114427063 -0.00145199789958103 0.00121105776291765 0.00208911244824757 -0.000174988463283772 0.000875454092523871
"213" 0.000222504886758052 7.17805962384184e-05 0.000436129648706349 0.000458738563796131 0.000158386307154943 0.000197943727447707 0.00012703567161351 0.000117179175127574 0.000978904973590306 0.0004423309126344 -0.00121737649807695 -0.00155990293337716 0.00120816681479363 0.001883800377812 -0.000525481752011411 0.000839889230486
"214" 0.000236917567303354 4.08505679274943e-05 0.000429070758821274 0.00047115848078039 0.000172186762454478 0.000203490996940448 0.000128805021372094 0.000148103694183223 0.000970359606511037 0.000522232256215778 -0.00112827286176304 -0.00165427464409125 0.00119170430241158 0.0016642466192098 -0.000871750758920237 0.00079719983076897
"215" 0.000252357904268437 1.00704113478651e-05 0.000420507122744946 0.000483721349640728 0.000186558704371164 0.000208534792984293 0.000130843334165927 0.000179553304155602 0.000951328708159853 0.00060278235921648 -0.00104106499293198 -0.00173426506584025 0.00116204875128376 0.00143246182370857 -0.00121171396967595 0.000747782035433556
"216" 0.000268779643330925 -2.02597250777345e-05 0.000410473519231774 0.00049633027791005 0.000201465568399037 0.00021308547952972 0.000133215519944835 0.000211355508459136 0.000922047364940018 0.00068357758528797 -0.000956306707073187 -0.00179919965954703 0.00111971234960466 0.00119054987910822 -0.00154346101450917 0.000692061662001396
"217" 0.000286120423827203 -4.98428058713761e-05 0.000399016346245712 0.000508887811037168 0.000216883115754503 0.000217167105213053 0.000135989363889429 0.000243353762234586 0.000882864123947942 0.000764203685098996 -0.000874515983597729 -0.00184857717144372 0.00106532212240643 0.000940704653255959 -0.00186525082167982 0.000630493876967201
"218" 0.000304303869421106 -7.83833369386707e-05 0.000386207382242903 0.000521294765045504 0.000232778132591823 0.000220811486020359 0.000139225850516092 0.000275388930465601 0.000834249935705852 0.000844247638835392 -0.000796164118845318 -0.00188205668557632 0.000999619233316005 0.000685166738233781 -0.00217551535151098 0.000563556233787823
"219" 0.000323246953596128 -0.000105594701059665 0.000372124522081186 0.000533450742036363 0.000249122494411438 0.000224058356603653 0.000142980091943412 0.000307311192404351 0.000776774190550962 0.000923277148846374 -0.000721671422987893 -0.00189948175419814 0.000923446456767857 0.000426208608581932 -0.00247283871604184 0.000491743813920827
"220" 0.000342864189390171 -0.000131200607586523 0.000356865000532205 0.000545261170424817 0.000265883796221178 0.00022695377848187 0.000147303177029025 0.000338974514277674 0.000711130988604913 0.00100087484265026 -0.000651400314906122 -0.00190084527411867 0.000837734480987909 0.000166096609571795 -0.00275597060040962 0.000415576688964164
"221" 0.000363039982719504 -0.000154940912799537 0.00034053891270754 0.000556628864939072 0.000283025938582808 0.000229548904865875 0.000152241737533251 0.000370235686302946 0.000638097241832926 0.0010766079141616 -0.000585654632516117 -0.00188630835610601 0.000743496388794112 -9.292333226537e-05 -0.0030238043435924 0.00033557998217616
"222" 0.000383664794665867 -0.000176568527688083 0.000323263261106964 0.000567461412133174 0.00030050075221465 0.000231890626972595 0.00015782122067197 0.000400955675159509 0.000558563269481501 0.00115005703301324 -0.000524670371165859 -0.00185618055203585 0.000641814885396285 -0.000348650658720171 -0.00327536518715652 0.000252294560177475
"223" 0.000404614970680813 -0.000195857675429533 0.000305166850233632 0.000577670170642552 0.00031826114865986 0.000234035408194428 0.000164063124257025 0.000431006420795436 0.000473489837067413 0.00122078950466624 -0.000468624267077175 -0.00181092650917632 0.00053383174744664 -0.000598956048582707 -0.00350982166106099 0.000166257924292365
"224" 0.000425755080295323 -0.000212606904952684 0.000286389798520633 0.000587175178951703 0.000336245295382558 0.000236031725031634 0.000170982017243249 0.000460265063657202 0.000383897455260216 0.00128838069234437 -0.000417620219261264 -0.00175115062103909 0.000420727240738612 -0.000841812060026946 -0.00372642485723376 7.80234237693174e-05
"225" 0.000446943606742826 -0.000226634468149123 0.000267081368122564 0.00059589724356059 0.000354391300023592 0.000237927991828464 0.000178568719802293 0.000488612428802386 0.000290883685238175 0.00135240305711976 -0.000371687939435155 -0.00167759703395312 0.000303724400419299 -0.00107529572216186 -0.00392455419581548 -1.1863081849549e-05
"226" 0.000468037195260926 -0.000237793702549476 0.000247387331607189 0.000603768417927017 0.000372621816526071 0.000239770048107473 0.00018680815055049 0.000515935257859057 0.000195563603321398 0.00141242977060599 -0.00033079455757814 -0.00159113232828908 0.000184060172300406 -0.00129762160145014 -0.00410366147870077 -0.000102851422284822
"227" 0.000488885888899806 -0.0002459611575508 0.00022746954599873 0.000610726112617875 0.000390850573565262 0.000241595915879966 0.000195668982538813 0.000542128775062711 9.91044111410572e-05 0.00146804598765596 -0.000294831665802756 -0.00149274488303334 6.29920172643303e-05 -0.001507141435724 -0.00426328033758025 -0.000194389665871539
"228" 0.000509331695131253 -0.000251049613212903 0.00020749109072478 0.000616721158558356 0.000408996581530877 0.000243441363328169 0.000205107129059289 0.000567100497017243 2.64192153819098e-06 0.00151881985039047 -0.000263632213500219 -0.00138353037527695 -5.82182961110837e-05 -0.00170237676832974 -0.00440300736583867 -0.000285938747252116
"229" 0.000529214862812232 -0.000253000126365041 0.000187608036705039 0.000621706303501993 0.000426966662547233 0.000245333612100382 0.000215072851664871 0.000590758421267452 -9.26676976646564e-05 0.00156433976634246 -0.000236958670688661 -0.00126468987878021 -0.000178318298883883 -0.00188201214991021 -0.0045225006093614 -0.00037695937953164
"230" 0.000548388036523683 -0.00025179336448755 0.000167983672700174 0.00062564927032984 0.000444659739839836 0.000247298509892645 0.000225487171502432 0.000613024275154767 -0.000185710198197297 0.00160420348232973 -0.000214511990508354 -0.00113750336392638 -0.000296080454985595 -0.0020449093215732 -0.00462146471774074 -0.000466918968199804
"231" 0.000566690201409905 -0.00024744380853647 0.000148785487318878 0.000628526946306672 0.000461984085925022 0.000249351229201058 0.000236281544721568 0.000633826797355428 -0.000275424663706468 0.00163801561572158 -0.000195945394645765 -0.00100333905275056 -0.000410291226723927 -0.0021901119892411 -0.00469964777541048 -0.000555292352027734
"232" 0.000583969768469425 -0.000240002019426788 0.000130169435730156 0.000630324674990803 0.000478840206133561 0.000251502540506418 0.000247364827517449 0.000653106096395937 -0.000360810030929351 0.00166539522098808 -0.000180849001977878 -0.000863628818873978 -0.000519774998959561 -0.00231684866843546 -0.00475684423844965 -0.000641563818050133
"233" 0.000600089264093951 -0.000229558288440748 0.000112295025347475 0.000631045456898133 0.000495141257749211 0.000253759396235264 0.000258640346591515 0.000670810399523811 -0.000440982009646362 0.00168597091547983 -0.000168775919442395 -0.000719857394656541 -0.000623405926373238 -0.00242454321465615 -0.00479287169319139 -0.000725225677263961
"234" 0.000614908021403846 -0.000216235057951314 9.53159500549643e-05 0.000630692073176691 0.00051079737029243 0.000256122388863566 0.000270011510807198 0.000686894408943911 -0.000515120924756528 0.00169941510789158 -0.000159232355401714 -0.000573542354352526 -0.00072010218996894 -0.00251279341790851 -0.00480761725959927 -0.000805785250022606
"235" 0.000628295365419164 -0.000200197135336983 7.93754003157013e-05 0.000629282371033231 0.000525737880163658 0.000258583808561037 0.000281368727890081 0.000701328095338682 -0.000582537647428901 0.0017054266031877 -0.00015169111208856 -0.000426227641464807 -0.00080884695508458 -0.00258138131307761 -0.00480100884307218 -0.000882757820128625
"236" 0.000640133769923748 -0.000181638347149234 6.46131808679155e-05 0.000626841856925481 0.000539881922908435 0.000261136894219061 0.000292601606818539 0.000714086663632462 -0.000642666678150593 0.00170374294097143 -0.00014559602791519 -0.000279460446069239 -0.000888690196829987 -0.00263026257866023 -0.00477302526676593 -0.000955682645996503
"237" 0.000650317071748434 -0.000160790999076643 5.11610954912151e-05 0.000623404797416528 0.000553180148727664 0.00026376618517032 0.000303607444072595 0.000725153750228188 -0.000695084432948228 0.00169414657162821 -0.000140363687245025 -0.000134779758292147 -0.000958753792446494 -0.00265956767907402 -0.0047237320633169 -0.00102410850038179
"238" 0.000658754865527255 -0.000137917081135891 3.91362533335944e-05 0.000619009300275851 0.00056557797587667 0.000266450624847011 0.000314269171008686 0.000734521310090985 -0.000739496342474049 0.00167647727581464 -0.000135399487522968 6.3048383310431e-06 -0.0010182413437056 -0.00266958127695847 -0.00465327586667969 -0.00108760546589241
"239" 0.000665359141543001 -0.000113307776416395 2.86418096582359e-05 0.000613699668888421 0.000577040186525554 0.0002691675233862 0.000324489073362117 0.000742184773907138 -0.000775739550252441 0.00165064345413793 -0.000130100313521692 0.000142333896665436 -0.00106645281804997 -0.0026607455307656 -0.00456191297560577 -0.00114575969092845
"240" 0.000670067217946747 -8.72830672090932e-05 1.97732083147724e-05 0.000607525971118589 0.000587530711924518 0.000271887667943254 0.000334159144544194 0.000748150939179868 -0.000803801596848558 0.00161661441972375 -0.000123856042580839 0.00027191575208925 -0.00110277677144485 -0.00263363882492284 -0.00445002043984114 -0.00119818403986237
"241" 0.000672820732964245 -6.01780657384061e-05 1.26081585853895e-05 0.000600538921121011 0.000597023315712539 0.000274572895872944 0.000343178302172711 0.00075242208571745 -0.000823782290622927 0.00157444157162062 -0.000116067991789258 0.000393749793826457 -0.00112670936749229 -0.002588972498028 -0.00431810549697194 -0.001244503196901
"242" 0.00067358132838402 -3.23540529192425e-05 7.19382476121037e-06 0.000592788263196998 0.00060550436002241 0.000277181060069406 0.000351453894727356 0.000755006058249529 -0.000835898994871329 0.00152426493750807 -0.000106152842657165 0.000506636780508654 -0.00113784660407053 -0.00252757144360393 -0.00416684423013115 -0.00128437726577497
"243" 0.000672317545395929 -4.18376961819629e-06 3.57809524566867e-06 0.000584323849484944 0.000612953592161481 0.000279661336497503 0.000358900696112593 0.00075591602956899 -0.000840476633837808 0.00146630024054187 -9.35366408080826e-05 0.000609497189644774 -0.00113589667735314 -0.00245036921097718 -0.00399708244455553 -0.00131748164882252
"244" 0.000669018570711436 2.39527010321653e-05 1.77233361567717e-06 0.000575197017884195 0.000619351083344732 0.000281957698173344 0.000365430716875942 0.000755156772770841 -0.000837922332596704 0.00140085589631173 -7.7686356617148e-05 0.000701399681000633 -0.00112067956225597 -0.00235839643393668 -0.00380984469991878 -0.00134352604991955
"245" 0.000663678828373539 5.1668544674477e-05 1.77843956916223e-06 0.000565452335866105 0.000624682382799636 0.000284002404183566 0.000370976193970236 0.000752736090358902 -0.000828728870972256 0.00132830876671875 -5.80893917066147e-05 0.000781566342549414 -0.00109212879772711 -0.00225275799206247 -0.00360634668507858 -0.00136225188580752
"246" 0.00065631433383151 7.85774283070141e-05 3.56371618670612e-06 0.000555133331104826 0.000628915785478669 0.00028572076737515 0.000375460722915477 0.000748661878832159 -0.000813431793700444 0.00124913886810783 -3.42809195578538e-05 0.000849378838295666 -0.00105029047561092 -0.00213462781536603 -0.00338798394503582 -0.00137342786497134
"247" 0.000646941651833497 0.000104300677227863 7.08298905874686e-06 0.000544278157687193 0.000632021038535214 0.00028703242025894 0.000378828859269225 0.000742935782988864 -0.000792610790913728 0.0011638879962326 -5.84342154811868e-06 0.000904400579488146 -0.000995325105061795 -0.00200523080562791 -0.00315633284743741 -0.00137686950719832
"248" 0.000635600335208145 0.000128469339841202 1.22659683401228e-05 0.000532924771807357 0.000633954287970154 0.000287840855449559 0.000381019870399191 0.000735560590893474 -0.000766860516411093 0.00107318641385679 2.75897843692255e-05 0.000946375909614708 -0.000927506662805952 -0.0018658422780285 -0.00291313315694504 -0.00137242184004115
"249" 0.000622335993884198 0.000150728631378201 1.90204019466415e-05 0.000521104668735849 0.000634671021119681 0.000288050443136104 0.000381994539496221 0.000726536550192858 -0.000736802926200913 0.000977701481058734 6.6324309071364e-05 0.000975214629074729 -0.000847201736552311 -0.0017177692489277 -0.00266029497898404 -0.00135998318937192
"250" 0.000607205945885577 0.000170746675001633 2.72341303624313e-05 0.000508843964203342 0.000634101379156068 0.000287554953145546 0.000381707211032605 0.000715860747022847 -0.00070303096764595 0.000878174725169786 0.000110594344124995 0.000991015268022907 -0.000754893216078015 -0.0015623323659958 -0.00239984417916965 -0.00133948724878454
"251" 0.000590280381347054 0.000188214052959625 3.67771685518561e-05 0.000496174123247902 0.000632181390705876 0.00028624034380528 0.00038013377800759 0.000703534370769934 -0.000666142004294065 0.000775374497886966 0.000160568098027817 0.00099404386537484 -0.000651150852198553 -0.00140087986096546 -0.00213391040832545 -0.0013109281487684
"252" 0.000571640375400326 0.00020285173802466 4.74983376357496e-05 0.000483115503891418 0.00062882506247968 0.000283993574495074 0.00037724220067302 0.000689559278178959 -0.000626689238224083 0.000670117437534205 0.000216330624094597 0.000984728295348516 -0.000536641341986211 -0.00123474389137403 -0.00186470587817712 -0.00127434671510554
"253" 0.000551383816338309 0.000214412978719372 5.92420781097326e-05 0.000469695508137298 0.000623956417350043 0.000280699990795505 0.000373028692101361 0.0006739379335156 -0.000585216144921681 0.000563219062582403 0.000277878419243603 0.000963644972400291 -0.000412105667180616 -0.00106526262423976 -0.00159446964174073 -0.00122983933550415
"254" 0.000529613294972963 0.000222686114345552 7.18294068192865e-05 0.000455940970339992 0.000617481179220888 0.000276243122647897 0.000367478941889998 0.000656683701970977 -0.000542214370030572 0.00045551776434039 0.00034512699532895 0.000931507356099194 -0.000278353378394246 -0.000893764261713173 -0.00132544913956044 -0.00117756812142667
"255" 0.000506449256647235 0.000227501324646658 8.50773518610275e-05 0.000441876213079505 0.000609316870903344 0.000270512031729084 0.000360606538024167 0.00063781709189206 -0.000498149430912456 0.00034783820269389 0.000417890378656673 0.000889146248595081 -0.000136266525561941 -0.000721545406260775 -0.00105986717798106 -0.00111774784787365
"256" 0.000482019718651225 0.000228726120454686 9.87926210596118e-05 0.000427532301809036 0.00059936889194003 0.00026339999400656 0.000352419498868825 0.000617362258909245 -0.000453423199890753 0.000241012032212661 0.000495890027087522 0.000837494222585194 1.32263386053737e-05 -0.000549876826809115 -0.00079987817780727 -0.00105065982196569
"257" 0.000456464838974631 0.000226271974151591 0.000112786032346782 0.000412939612944664 0.000587561996617455 0.000254814852260429 0.000342948064365429 0.000595357619422687 -0.000408427993739438 0.000135830650739066 0.00057875020205743 0.000777559542714965 0.000169157422168122 -0.0003800019122427 -0.000547541393080363 -0.000976646483602885
"258" 0.000429932753472248 0.000220092261145726 0.000126861303017 0.0003981395322741 0.000573829435632985 0.000244670010393371 0.000332229276744536 0.000571859278200593 -0.000363501790043919 3.30589031268015e-05 0.000666002342623321 0.000710418384821073 0.000330520687051213 -0.000213114223709928 -0.000304806832073598 -0.000896120097336542
"259" 0.000402586940514677 0.000210187189260091 0.000140827175722037 0.000383170737349518 0.00055811739866518 0.000232897570440385 0.000320311456646416 0.000546928831470879 -0.000318953313329001 -6.65661681445112e-05 0.000757073647652399 0.000637176784621627 0.000496297122197995 -5.03707462375769e-05 -7.34796375064024e-05 -0.000809553667415206
"260" 0.000374602222042222 0.00019659764248483 0.000154493622107625 0.000368082172563546 0.000540382774164485 0.000219443860764263 0.000307252248210941 0.000520647239607769 -0.000275063366244552 -0.000162356533390775 0.000851301159321221 0.000558969614490305 0.000665441564613272 0.000107138979721042 0.000144809988200475 -0.000717486322138801
"261" 0.000346152435955279 0.000179411049896568 0.000167683285989747 0.000352923969078976 0.000520614883285693 0.000204280829089171 0.000293127544232025 0.000493110752182218 -0.000232080412816509 -0.000253673403249452 0.000947933316610951 0.000476926722381728 0.000836917729042545 0.000258373745384477 0.000348595279243588 -0.000620515734727716
"262" 0.000317431246265153 0.000158750674695674 0.000180223439927269 0.000337755206390797 0.000498823036084611 0.000187394052334236 0.0002780219615147 0.000464432729172918 -0.000190243863143484 -0.000339929305326027 0.00104613784004702 0.000392164560591737 0.00100967521174462 0.000402361791937217 0.000536604702075183 -0.000519295764343751
"263" 0.000288623874477262 0.000134782715006924 0.000191962088242285 0.000322634299610795 0.000475038917624051 0.000168797660467986 0.000262034887682564 0.000434738218722004 -0.000149762830508059 -0.000420583132440944 0.0011450066108458 0.000305776931849629 0.00118268036704387 0.000538211041776067 0.000707757567663246 -0.000414531139114574
"264" 0.000259930467210138 0.000107712457731677 0.000202755038634275 0.000307627728259744 0.00044932827305776 0.000148526324913331 0.000245270392340396 0.000404173343917113 -0.000110841635429535 -0.000495158570944745 0.0012435786787927 0.000218799844803549 0.00135491068958878 0.000665092807330957 0.000861180164636759 -0.000306972200841161
"265" 0.000231551528696075 7.77797387709132e-05 0.000212470609740557 0.000292806562824056 0.000421784794121429 0.000126643537614635 0.000227849777783847 0.000372894911760777 -7.36710594995679e-05 -0.000563234173174668 0.00134083615848147 0.000132218615877897 0.00152536669712886 0.000782278147240216 0.000996189970670818 -0.000197415578107506
"266" 0.000203690573826912 4.52511624069168e-05 0.000221007741321535 0.000278243928711386 0.00039253567446692 0.000103235911875289 0.000209906828620201 0.000341072757680182 -3.84563470061213e-05 -0.000624454574386355 0.00143573347874007 4.69447664761814e-05 0.00169308074794281 0.000889104230545334 0.00111229112146683 -8.66856833160795e-05
"267" 0.000176545031356478 1.042578447065e-05 0.000228269831764358 0.000264010846768344 0.000361732948863438 7.84129110452769e-05 0.000191579909978062 0.000308894686667481 -5.36684939437222e-06 -0.000678500994919252 0.00152720719550338 -3.61764862941679e-05 0.00185709485362959 0.000985031966293732 0.00120918432600342 2.43695226169042e-05
"268" 0.000150316275825936 -2.63745011765997e-05 0.000234191682466889 0.000250184183102146 0.000329559051657814 5.23125515791293e-05 0.000173016905420534 0.000276548122527287 2.54013635007115e-05 -0.000725128497680814 0.00161418789282057 -0.000116392551223032 0.00201651439865376 0.00106959949500605 0.00128673990994873 0.000134878801371975
"269" 0.000125195473105559 -6.48075797681412e-05 0.0002387137702695 0.000236840609137591 0.000296232186333035 2.50931776023243e-05 0.000154373050388837 0.000244233447793899 5.36598416428163e-05 -0.000764135920537511 0.00169562841332453 -0.000193031587906882 0.00217047012932909 0.00114246113652386 0.00134499098368872 0.000243969794916258
"270" 0.000101375510788824 -0.000104514601886036 0.000241814499917225 0.00022405336555674 0.000261991849042732 -3.06698570036534e-06 0.000135811936305289 0.000212159472298112 7.92171469354466e-05 -0.000795382133706558 0.00177051252092601 -0.000265512011401191 0.00231813804493054 0.00120337570934132 0.00138411870012316 0.00035077425739536
"271" 7.903216737722e-05 -0.000145124874976625 0.00024347582987036 0.000211894540669559 0.000227097088089477 -3.19697244149515e-05 0.000117498059084675 0.000180536133767083 0.000101876998445537 -0.000818767561514623 0.00183786725575153 -0.000333344229202985 0.00245873476643933 0.00125221358497659 0.00140443863985819 0.000454436595813422
"272" 5.83374729334826e-05 -0.000186257055978606 0.000243713217031764 0.000200434852821796 0.000191832471729786 -6.13976474302013e-05 9.95961598918058e-05 0.000149570605699786 0.00012144168759954 -0.000834243065640993 0.00189678885795391 -0.000396131192936727 0.00259152405342102 0.00128896081567833 0.00140638811960791 0.000554130225177897
"273" 3.94523955401615e-05 -0.000227530642886235 0.000242549342748831 0.000189740453622885 0.000156503485832971 -9.11185825764248e-05 8.22749216858413e-05 0.000119469578508121 0.000137712438849781 -0.000841806050553139 0.00194645371030851 -0.00045356327644232 0.00271582283291297 0.00131371171173201 0.00139050108931984 0.000649057447235132
"274" 2.25142447833922e-05 -0.000268560063072166 0.000240032383294117 0.000179867779509007 0.000121418040486662 -0.000120897033393034 6.57014858432825e-05 9.04359256618978e-05 0.00015050837225003 -0.000841485937431786 0.001986133611495 -0.000505416598712186 0.00283098767507091 0.00132668627841391 0.00135740907974601 0.000738471477231362
"275" 7.66175780415508e-06 -0.000308965219602877 0.000236226177376959 0.000170871616211969 8.69006562774654e-05 -0.000150482277729152 5.00349283377883e-05 6.26633369018849e-05 0.000159624647037275 -0.000833361321784732 0.00201520397475705 -0.000551554213136983 0.00293643949043166 0.00132820952470052 0.00130781338348214 0.00082167477245808
"276" -4.99886013263953e-06 -0.000348370952515949 0.000231212503947175 0.000162800795213297 5.32785448161417e-05 -0.000179622531743597 3.54295549038649e-05 3.63397462502404e-05 0.000164892577410204 -0.000817537885872869 0.00203316013096308 -0.000591913951379544 0.00303164784541934 0.00131871863345056 0.00124248416004378 0.000898037856462188
"277" -1.53714835640147e-05 -0.000386414553869424 0.000225080063848917 0.000155691214606719 2.08655927992711e-05 -0.00020806466529231 2.20334866876941e-05 1.16337364116602e-05 0.00016614744005556 -0.000794153264257054 0.00203961895959494 -0.00062650976534313 0.00311614464464711 0.00129876595402671 0.00116223650408107 0.000967004984893358
"278" -2.33814595659877e-05 -0.000422748008348326 0.000217937621535794 0.00014957408752955 -1.00143183787164e-05 -0.000235558398709492 9.98319211821847e-06 -1.12965309651552e-05 0.000163248538931481 -0.000763372745099016 0.00203433587679469 -0.000655420042452931 0.00318951808377829 0.00126899595004703 0.00106793772204174 0.00102809573286039
"279" -2.89720606918902e-05 -0.000457034352887144 0.000209904873595503 0.000144469605509164 -3.90596686608114e-05 -0.000261860639615339 -5.98087741982686e-07 -3.23075892613965e-05 0.000156071219528652 -0.00072539613115374 0.00201719843708966 -0.000678788517546338 0.0032514236439223 0.00123015674634092 0.000960484022979783 0.00108091874805995
"280" -3.21144564416179e-05 -0.00048895936919811 0.000201103361614044 0.000140385235289963 -6.59825045739894e-05 -0.000286738194747307 -9.602699410541e-06 -5.12832430476923e-05 0.000144544719158731 -0.000680438633234179 0.00198823534171717 -0.000696816051815709 0.00330158579772489 0.00118307857897427 0.00084078861460121 0.00112517005199558
"281" -3.27976379634628e-05 -0.000518229440215321 0.000191668184249262 0.000137321513300244 -9.05192904726283e-05 -0.000309966053101123 -1.69359713848053e-05 -6.81187766444231e-05 0.000128601092540099 -0.000628758303349713 0.00194762219937863 -0.000709753445074999 0.00333979215767095 0.0011286620514015 0.00070979765639168 0.00116064011354621
"282" -3.10356790959362e-05 -0.000544571743550656 0.000181736426388674 0.000135265934919184 -0.000112432343282805 -0.000331345135300071 -2.25230426738388e-05 -8.2732357721434e-05 0.000108258272811907 -0.00057061320174064 0.00189567057449561 -0.000717889615607846 0.00336590794600729 0.00106787701397078 0.000568466582787722 0.00118721418262012
"283" -2.68655220138519e-05 -0.000567742100528858 0.000171451140092628 0.000134197134022934 -0.000131513730378074 -0.000350685802584701 -2.63126235989553e-05 -9.50661709788354e-05 8.35503801711999e-05 -0.000506308802542543 0.00183282476535159 -0.000721560273223874 0.00337985375911904 0.00100174311921968 0.000417774231713654 0.00120486744144918
"284" -2.03445680716907e-05 -0.000587518889136452 0.000160956260642878 0.000134079553808765 -0.000147586573941402 -0.000367823873125089 -2.82648592491426e-05 -0.000105084243754351 5.45758850575657e-05 -0.000436174708517192 0.00175966105687217 -0.00072112814560136 0.00338164195189609 0.000931313438697317 0.00025870750699901 0.00121367700901631
"285" -1.1554895934564e-05 -0.000603710092572981 0.000150393395597858 0.000134868758287489 -0.000160514195153014 -0.000382618643127018 -2.8368501401945e-05 -0.000112774202960987 2.14957863037333e-05 -0.000360572152782872 0.00167688841546606 -0.000716990049117209 0.00337135058466567 0.00085766838110243 9.22667506278315e-05 0.00121380489343757
"286" -6.07146160196287e-07 -0.000616155625103355 0.000139905248155809 0.00013651009817087 -0.000170196229227012 -0.000394953855654066 -2.66292637321705e-05 -0.000118142919767404 -1.5478900086583e-05 -0.000279897571378872 0.0015853171989908 -0.000709547957296235 0.00334913052511456 0.00078189069567264 -8.05196004113617e-05 0.00120550753366405
"287" 1.23805067671638e-05 -0.000624720283210949 0.00012962750053639 0.000138939340165107 -0.000176576013523966 -0.000404737209124415 -2.30824782112071e-05 -0.000121223317654937 -5.60856059885726e-05 -0.000194602933037343 0.00148587376577089 -0.000699226633876814 0.00331522586948895 0.000705054212753595 -0.000258605937930285 0.00118911771192039
"288" 2.72619291715353e-05 -0.000629308296792254 0.000119705145033977 0.000142087232315222 -0.000179626384049038 -0.000411902670556677 -1.77754910613757e-05 -0.000122058657921056 -0.000100017591467452 -0.000105199547760397 0.00137957247582685 -0.000686457884219556 0.00326995184909191 0.000628200302596306 -0.000440918860154815 0.001165043794612
"289" 4.38688867648268e-05 -0.000629848638149092 0.000110258524331557 0.000145867928545673 -0.000179368252841271 -0.000416416408159507 -1.0785696897819e-05 -0.000120725204305784 -0.00014687772012362 -1.22364358984876e-05 0.00126751299365507 -0.000671663733279236 0.0032136972378736 0.000552350300635897 -0.000626369031534159 0.00113375983725903
"290" 6.20281000454754e-05 -0.000626310665313303 0.000101419752198871 0.000150200730696904 -0.000175851401277118 -0.000418262901867358 -2.19971134511126e-06 -0.000117304036078056 -0.000196273178457003 8.36398946921219e-05 0.00115085571365221 -0.000655262838589639 0.00314693562121978 0.000478450453659722 -0.000813817804568114 0.00109579491432862
"291" 8.15455115355728e-05 -0.000618692998062039 9.33089384811559e-05 0.000154993937705714 -0.000169163010365671 -0.00041745641921022 7.86291710052927e-06 -0.000111896631987111 -0.000247763864662889 0.000181704840050813 0.00103082063440743 -0.000637665394813184 0.00307019959528634 0.000407387211941809 -0.00100210417613614 0.00105172666307001
"292" 0.000102222362878905 -0.000607033093280157 8.60394111776973e-05 0.000160153723272335 -0.000159423751148997 -0.000414034679718189 1.92756011183491e-05 -0.000104613402323579 -0.000300871913489427 0.000281157627215989 0.000908666090533045 -0.000619258609784785 0.00298409582966383 0.000339970259686 -0.00119001400870749 0.00100217323511092
"293" 0.000123844920464805 -0.000591403340104978 7.97245477611761e-05 0.000165586049994057 -0.000146763165319256 -0.000408055539326072 3.19005353350825e-05 -9.55769665850928e-05 -0.00035513544828752 0.000381084653320126 0.000785678511911938 -0.000600406105132142 0.00288928675136335 0.000276912417065687 -0.00137630469811268 0.000947776902275024
"294" 0.000146200271869439 -0.000571909644789829 7.44678001859008e-05 0.000171194822994577 -0.000131345292968279 -0.000399596191754503 4.55826014705265e-05 -8.49153355039451e-05 -0.000410098026516425 0.000480453945611812 0.000663148768920854 -0.000581458065725445 0.00278650182540398 0.000218826062518369 -0.00155969396959719 0.000889190453237415
"295" 0.000169071917783561 -0.000548697802053699 7.0363704559866e-05 0.000176888843221944 -0.000113341696002655 -0.000388751962747044 6.01552303482149e-05 -7.27581880159737e-05 -0.000465312615736058 0.000578146521834462 0.000542372904894018 -0.000562718232172377 0.00267649839945443 0.000166224576914316 -0.00173886027458606 0.000827078314008861
"296" 0.000192244724208011 -0.000521944506947742 6.75120607451834e-05 0.000182573988999232 -9.29278849793679e-05 -0.00037563315182146 7.5450932106204e-05 -5.92416882079291e-05 -0.000520385416984981 0.000672920171103474 0.00042462251043303 -0.000544470989556771 0.00256008037834571 0.000119495453208559 -0.00191245576152392 0.000762089780652237
"297" 0.000215506961078779 -0.000491866436674699 6.59979385755817e-05 0.000188159086846765 -7.02926543841295e-05 -0.000360362143361599 9.13040007455562e-05 -4.44977427372079e-05 -0.000574962900012528 0.000763432855018304 0.000311133892577132 -0.000526964755726922 0.00243806581911118 7.89111296581139e-05 -0.0020791156277185 0.000694867763022345
"298" 0.000238646540219595 -0.000458710561299913 6.58965390209023e-05 0.000193558541825238 -4.56089203790855e-05 -0.000343072015702894 0.000107543912295228 -2.86602955512004e-05 -0.000628773527868894 0.000848244887406914 0.000203102626783247 -0.000510417046870357 0.00231129711011678 4.46176863430011e-05 -0.00223745914299698 0.000626016967654282
"299" 0.000261469219723548 -0.000422755696386402 6.72867929971338e-05 0.00019868766678734 -1.90604807265368e-05 -0.000323901684895981 0.000123999273050462 -1.18594451096049e-05 -0.000681608724243605 0.000925855770206148 0.000101656176380034 -0.000495010809193641 0.00218060219229192 1.66419258115385e-05 -0.00238610705382671 0.000556112638590944
"300" 0.000283778714986787 -0.000384316255936583 7.0225186487821e-05 0.000203459177075011 9.19336801922163e-06 -0.000303001236539928 0.00014051454819249 5.77559247840815e-06 -0.000733353544210699 0.000994697717693525 7.85380563842918e-06 -0.000480896214512665 0.00204680677543493 -5.10266106849633e-06 -0.00252370168046798 0.000485686921427813
"301" 0.000305390868637011 -0.000343724808356893 7.47672649469664e-05 0.000207790660551318 3.89937533594868e-05 -0.000280522708672281 0.000156937588458108 2.41217257113044e-05 -0.000783972155647861 0.00105319374582092 -7.73358632056784e-05 -0.000468196731421956 0.00191070876802568 -2.08279864581092e-05 -0.00264893162852058 0.000415225926182915
"302" 0.000326131335124445 -0.000301345670599637 8.0947929030895e-05 0.00021159681670871 7.01817329161629e-05 -0.000256626514708358 0.000173125500145993 4.30470473379297e-05 -0.000833494689330792 0.00109979728431645 -0.000153037287875428 -0.000456995533155678 0.00177305910144929 -3.08433039483312e-05 -0.00276053255545289 0.000345161638372583
"303" 0.000345832118243061 -0.000257558092121797 8.87872617759923e-05 0.00021478860945055 0.000102621407466542 -0.000231475901133117 0.000188955155147013 6.24342485730672e-05 -0.000882059541040542 0.00113299536640697 -0.000218484102364476 -0.000447355290568048 0.00163456306596166 -3.55702326451391e-05 -0.00285732234583615 0.000275874642867019
"304" 0.000364340309285773 -0.000212760020665286 9.82884483093225e-05 0.00021727135604741 0.000136167357425036 -0.000205241966276372 0.000204302623220553 8.214642873931e-05 -0.000929847085136919 0.0011514007355482 -0.000273022375260906 -0.000439304180378883 0.00149585453893354 -3.55088952644715e-05 -0.00293820817523537 0.000207680742232418
"305" 0.000381498283778468 -0.000167356984269439 0.000109432306824133 0.000218947861709225 0.00017068124559094 -0.000178102244962902 0.000219071179763073 0.000102054585851789 -0.000977100426495947 0.0011537536592937 -0.000316123973206313 -0.000432851253897223 0.00135750601493709 -3.12543183045683e-05 -0.00300223326781395 0.000140850978388477
"306" 0.000397165941042274 -0.000121761655566011 0.000122175921519047 0.000219712721165579 0.000206015484069721 -0.000150239661190364 0.00023316967390894 0.000122022496224259 -0.00102410842631903 0.00113898674806075 -0.00034739146325378 -0.000427982731732202 0.00121999962576661 -2.34692535761902e-05 -0.00304856328404985 7.55886718314584e-05
"307" 0.000411208055296385 -7.63828218099054e-05 0.00013645022028227 0.000219451674592261 0.000242012397101701 -0.000121850492407955 0.000246522210987433 0.00014189430328188 -0.00107116398913781 0.00110626322512581 -0.000366564707783078 -0.000424661080914951 0.0010837250940941 -1.28578585996846e-05 -0.00307653113058925 1.20503606406274e-05
"308" 0.000423489508066333 -3.16306642774393e-05 0.000152159511676153 0.000218047917181433 0.000278503364667333 -9.31353549547087e-05 0.000259064198947304 0.000161521790586707 -0.00111859101107698 0.00105498868392915 -0.00037351608197119 -0.000422832595848318 0.000948984972773314 -1.96047516654755e-07 -0.00308563630414348 -4.96595435382239e-05
"309" 0.000433889661373097 1.21013282267121e-05 0.000169180879232951 0.000215372404135212 0.000315302618849028 -6.43031870058647e-05 0.000270748392909259 0.000180740929361831 -0.00116669246969515 0.000984842678862084 -0.000368264691181336 -0.000422427298407494 0.000815985090915823 1.37245173111302e-05 -0.00307557406185255 -0.000109482938070168
"310" 0.00044228698810842 5.44355740764008e-05 0.00018736491979043 0.000211297189463626 0.000352195663444518 -3.55777357125491e-05 0.000281530834290672 0.00019937270328916 -0.00121574777310251 0.000895795144957651 -0.000350963890846767 -0.000423369897593822 0.000684842619530602 2.80839137239796e-05 -0.00304623120687669 -0.000167405323073069
"311" 0.000448575165179655 9.50129746996465e-05 0.000206533200577423 0.000205688949464652 0.000388952647313632 -7.1841989824347e-06 0.000291382709476018 0.000217239514444018 -0.00126600651350534 0.00078809774605514 -0.000321907969973069 -0.000425573074840364 0.000555579697271809 4.20564042109234e-05 -0.00299768968248826 -0.000223449758869233
"312" 0.000452650910739686 0.000133503851830899 0.000226481816513908 0.000198418962928536 0.000425325041299841 2.06386177096922e-05 0.00030028672827929 0.000234158891371938 -0.00131767818618615 0.00066227921364388 -0.000281524103935497 -0.000428948943912577 0.00042813332994464 5.4817093685079e-05 -0.00293023499791079 -0.000277669211545041
"313" 0.000454425371078341 0.000169604740560056 0.000246991133677941 0.000189357416714479 0.000461036657705717 4.76535722124942e-05 0.000308229840165422 0.000249940822893689 -0.00137092078155067 0.000519132258319893 -0.000230367956973351 -0.00043340882865085 0.000302374140146732 6.55441087264176e-05 -0.00284435494742456 -0.000330152532064991
"314" 0.000453817776583536 0.000203050103523352 0.000267812487044366 0.000178382792518672 0.000495791261686495 7.36154646322885e-05 0.000315208285146296 0.000264400020928609 -0.0014258220649128 0.000359690596115335 -0.000169121246927431 -0.000438866502392997 0.000178096210855935 7.34544269048032e-05 -0.00274072307831521 -0.000381008352797013
"315" 0.00045077543850834 0.00023360312685313 0.000288696569777256 0.000165392139432783 0.000529287219851787 9.82851987851727e-05 0.000321232053394595 0.000277359138171896 -0.00148245342305733 0.000185172422358519 -9.85806411528043e-05 -0.000445251790394524 5.50474522285608e-05 7.77703416467276e-05 -0.00262019747186517 -0.000430363062560009
"316" 0.000445240446791598 0.000261072594138098 0.000309371365505686 0.000150290933701672 0.000561208729816174 0.000121425438926839 0.000326315799464618 0.000288646527261833 -0.0015408031739086 -3.01922135232008e-06 -1.96480113676846e-05 -0.000452504716306734 -6.7079492739497e-05 7.77652357469834e-05 -0.00248380966067328 -0.0004783639269165
"317" 0.000437192303502898 0.000285300321218192 0.000329562420922227 0.00013300411336544 0.000591237158061545 0.000142807011652016 0.000330477993438775 0.000298105418319355 -0.00160081634277375 -0.000203353005771822 6.66674313950792e-05 -0.000460595950028664 -0.000188610250412439 7.27642356580556e-05 -0.00233275857594175 -0.000525162147502225
"318" 0.000426620538562189 0.000306172326281224 0.000348996542338879 0.000113483347379479 0.000619067189730715 0.000162218622650693 0.00033374992724973 0.000305602905619935 -0.00166241576707611 -0.000414216399505995 0.000159276006005752 -0.000469509458148106 -0.000309902743310404 6.21327757228245e-05 -0.00216837138967538 -0.000570923473103082
"319" 0.000413544322406746 0.000323613501762674 0.000367404335663412 9.16981076770289e-05 0.000644390346625347 0.000179457623815478 0.000336168424421137 0.000311023360372429 -0.00172546013452917 -0.000633925363471768 0.000257001145843576 -0.000479267942234427 -0.000431310287991899 4.53052667664135e-05 -0.00199212355359787 -0.000615808866561928
"320" 0.000397998298914595 0.00033758940521963 0.00038451545794547 6.76451349670068e-05 0.000666926265035668 0.000194344849518369 0.000337779848766701 0.00031427519491297 -0.00178978132372327 -0.000860772491446573 0.00035860526916691 -0.000489918181094024 -0.000553187420884779 2.17845332555975e-05 -0.00180558118771845 -0.000659973044859141
"321" 0.000380046183917562 0.000348104501297722 0.000400084241189859 4.1355546492124e-05 0.000686415176322513 0.000206729292873304 0.00033863883589752 0.000315302620635977 -0.00185520192006165 -0.00109307671678547 0.000462787938195405 -0.00050154680130955 -0.000675863745056458 -8.8708435656181e-06 -0.00161041118499509 -0.000703572463037006
"322" 0.000359771999824845 0.000355197482960236 0.000413874550716224 1.28809438588916e-05 0.000702635347423414 0.00021647938917358 0.000338801323676342 0.000314076103965775 -0.00192151386452121 -0.00132916992464316 0.000568215974688228 -0.000514277189439023 -0.00079964462561568 -4.70036925822419e-05 -0.00140835017651879 -0.000746752004507562
"323" 0.000337283677402047 0.000358950488593136 0.000425670764958437 -1.76995625405594e-05 0.000715387857572725 0.000223496536444655 0.000338338666444893 0.000310596259854583 -0.00198847691571573 -0.00156744052313063 0.000673525638468716 -0.000528272565605292 -0.000924808165511118 -9.28925711395334e-05 -0.00120119385968446 -0.000789629956455994
"324" 0.000312709768750223 0.000359468490981203 0.000435276945518892 -5.0272382941826e-05 0.000724526757954001 0.000227714181326007 0.000337320903445702 0.000304898339061629 -0.00205586127814795 -0.00180635760941867 0.000777332544115449 -0.000543734309455336 -0.00105157677058019 -0.000146727326572685 -0.000990762059696981 -0.00083231723255767
"325" 0.000286198232416721 0.000356895684770911 0.00044252530671091 -8.47073365418847e-05 0.000729938496396061 0.000229093953650274 0.000335831864720555 0.00029704295783275 -0.00212339920321284 -0.00204445292942302 0.000878262152609117 -0.000560896297386154 -0.00118012924400299 -0.000208597573062417 -0.000778890290405275 -0.000874889050563397
"326" 0.000257922345404908 0.000351400470181979 0.000447279865143799 -0.000120843498769231 0.000731563468283494 0.000227638833880295 0.000333954625099907 0.000287128704160855 -0.00219084820037938 -0.00228037572177639 0.00097495680329793 -0.000580033595432643 -0.00131058068666318 -0.000278516873403433 -0.000567412747241092 -0.000917408352058184
"327" 0.000228070986197317 0.000343177195175829 0.000449417860369912 -0.000158497405692417 0.000729389041990671 0.000223373549071958 0.00033178076277419 0.000275281182572917 -0.00225793481147336 -0.00251285384083085 0.00106608549480841 -0.000601445376174365 -0.00144298619530643 -0.000356395166497497 -0.000358139496837786 -0.000959899234512242
"328" 0.000196842764957523 0.000332437689372111 0.0004488648208441 -0.000197471497542445 0.000723444014301588 0.000216365434884945 0.000329400492295821 0.000261651543922588 -0.002324389987945 -0.00274071749679089 0.00115037100213516 -0.000625448583866703 -0.00157734109665676 -0.000442046952324151 -0.000152830723844993 -0.00100236068695328
"329" 0.000164450922674675 0.000319416283636689 0.000445563352997473 -0.00023754322875262 0.000713808197149192 0.000206706676359555 0.000326912285663165 0.000246412136671316 -0.00238993116888035 -0.00296289171049707 0.00122660003624004 -0.000652384869462982 -0.00171356398595716 -0.000535190575356617 4.68191166782543e-05 -0.00104475065536572
"330" 0.000131125817064712 0.00030435593740493 0.000439492897551194 -0.00027848045494802 0.000700608966984487 0.000194523876111464 0.000324405564620397 0.000229758987823767 -0.00245428047829507 -0.00317840014723097 0.00129363879410569 -0.000682597304042565 -0.00185152224682961 -0.000635449343285655 0.000239196386528187 -0.00108699166328648
"331" 9.70983967693181e-05 0.000287516782491263 0.000430656692731667 -0.000320034168791003 0.000684013666470911 0.000179965291379288 0.000321982284430962 0.000211906146564988 -0.00251714747496495 -0.00338635368901986 0.0013504455395909 -0.000716432889820086 -0.00199100511278477 -0.000742349520566012 0.000422789803839337 -0.00112897575121722
"332" 6.26034443349081e-05 0.000269160178016656 0.000419091420763021 -0.000361949855296387 0.000664233047171272 0.000163209886234645 0.000319732585892013 0.000193077304618539 -0.00257822699611185 -0.00358593675790865 0.00139608821984209 -0.000754225710388208 -0.00213173728231707 -0.000855327909766129 0.000596203994349463 -0.00117054799476929
"333" 2.78870176330973e-05 0.00024955370010144 0.000404865672912335 -0.000403961638455338 0.000641507401479954 0.000144450257130003 0.000317743107597766 0.000173511969188154 -0.00263722002344609 -0.00377642595278994 0.00142976708075173 -0.000796296419033841 -0.00227337768317778 -0.000973732552682241 0.000758184574639955 -0.00121151286641257
"334" -6.8110615724028e-06 0.00022896601574584 0.000388070524647286 -0.000445803717055015 0.000616110562233365 0.000123906467518223 0.000316096917659219 0.00015344354589044 -0.00269379803809237 -0.0039571474204172 0.00145081273712346 -0.000842934100446967 -0.00241552511799174 -0.0010968272831087 0.000907611056905618 -0.0012516424822486
"335" -4.12526206624719e-05 0.000207660066606757 0.000368821409592638 -0.000487201155712135 0.000588348780338716 0.000101808265987342 0.000314870263341028 0.00013312365322408 -0.00274763343468061 -0.0041275040606676 0.00145870339792292 -0.000894395161024683 -0.00255771020786571 -0.00122379466862766 0.00104352924136515 -0.0012906613578392
"336" -7.51999111643091e-05 0.000185892176494469 0.000347264245473134 -0.000527885521361652 0.000558548472331223 7.83937017259721e-05 0.000314131886250984 0.000112792442431903 -0.00279838195415812 -0.00428694094334989 0.00145307622904266 -0.000950875200362278 -0.00269941364101622 -0.00135374517180931 0.00116516379864055 -0.00132825799365699
"337" -0.000108427963530108 0.00016391304312022 0.000323561419976964 -0.000567584311881297 0.000527050105990477 5.39137457011935e-05 0.000313937488109129 9.26856338083255e-05 -0.00284567966787417 -0.00443494655699443 0.00143372967183661 -0.00101252931760857 -0.00284004738342934 -0.00148572881988798 0.00127190833509776 -0.00136409608751019
"338" -0.000140717831608465 0.000141961229046716 0.000297892647134173 -0.000606037822968537 0.000494199485167964 2.86182546508538e-05 0.000314327545627803 7.30373383091659e-05 -0.00288914348706949 -0.00457104175022672 0.00140063898287498 -0.00107943490654018 -0.00297897435571648 -0.00161873843958578 0.00136333773886407 -0.00139779561365351
"339" -0.000171855974890118 0.000120261264504684 0.000270469464985508 -0.000642982682295724 0.000460363780157275 2.76467905551425e-06 0.00031534105079577 5.40659040541403e-05 -0.00292838008931712 -0.00469478796033019 0.00135394036703185 -0.00115160314806033 -0.00311550581348662 -0.00175172840491442 0.00143921878529549 -0.0014289513121988
"340" -0.000201646173735742 9.90216304051889e-05 0.000241500284021782 -0.000678169786846455 0.000425907087948891 -2.33986440401824e-05 0.000316997097565349 3.59843036944558e-05 -0.00296299791276017 -0.00480577204387917 0.00129395066476389 -0.00122896855719253 -0.00324889722402422 -0.00188362904910577 0.00149950626432267 -0.00145713461404585
"341" -0.000229906349295214 7.84372362754007e-05 0.000211220103861945 -0.000711358198104137 0.000391184702479287 -4.96267015119326e-05 0.000319298546842973 1.89822939249643e-05 -0.00299256162482509 -0.0049035921307061 0.00122115001657358 -0.00131137951230108 -0.0033783595601056 -0.00201333662495383 0.00154433711144622 -0.00148188860645649
"342" -0.000256461451670592 5.8681279432901e-05 0.000179871682099421 -0.000742317871052439 0.000356549892376092 -7.56813239135234e-05 0.000322240989850191 3.23853518649916e-06 -0.00301664525828823 -0.00498786655898986 0.00113618772683536 -0.00139861112941102 -0.00350305423998043 -0.00213975431134417 0.00157402381969223 -0.0015027473101903
"343" -0.000281162978165486 3.99092528083638e-05 0.000147700928183378 -0.000770834669709263 0.000322341634509341 -0.000101336529494545 0.000325803012369749 -1.10864474606136e-05 -0.00303480438630295 -0.00505822332942232 0.00103987389638315 -0.00149034039585124 -0.00362210028858086 -0.00226178591979034 0.00158904967021889 -0.0015192265105699
"344" -0.000303866917227678 2.22552384107876e-05 0.000114968454256559 -0.000796701757054979 0.000288894898869176 -0.000126377702588268 0.000329946140718403 -2.38483743421645e-05 -0.00304660720639477 -0.00511431520997213 0.000933157154493509 -0.00158616916230307 -0.00373458081868128 -0.00237835514509341 0.00159007191545226 -0.00153084360187707
"345" -0.000324456716273892 5.83373458866198e-06 8.19253693940308e-05 -0.000819735860772178 0.000256512956805631 -0.000150604890241982 0.000334619092411024 -3.49306897187915e-05 -0.00305160197245147 -0.00515579379000103 0.000817126933798544 -0.00168560871457984 -0.00383955089424886 -0.00248842639285835 0.00157788492044968 -0.00153710893816261
"346" -0.000342824381825702 -9.26290704048939e-06 4.88410509260798e-05 -0.000839766206671983 0.000225489175051087 -0.000173832926742842 0.000339760354869533 -4.42212186993457e-05 -0.00304937403669145 -0.00518233682600606 0.000692990904964743 -0.00178810097429091 -0.00393603316064946 -0.00259100627240958 0.00155341862464371 -0.0015375530447535
"347" -0.000358883036793613 -2.2963119897913e-05 1.59724919609199e-05 -0.000856644002380449 0.000196096024976523 -0.000195895139039543 0.000345297227595526 -5.1642715795413e-05 -0.00303950753204608 -0.00519363759249206 0.00056205460345836 -0.00189301028508361 -0.00402303125947026 -0.00268515363436277 0.00151773120690657 -0.00153171413346359
"348" -0.000372566371024409 -3.52186358524332e-05 -1.64254144077323e-05 -0.000870231306804387 0.000168579467349713 -0.000216641080702726 0.000351144393388133 -5.71289216589111e-05 -0.00302161076643182 -0.00518940308312718 0.000425713772608799 -0.00199964252168806 -0.0040995469505893 -0.00277000656098302 0.00147198618025522 -0.0015191551335243
"349" -0.000383819092576824 -4.60018583076261e-05 -4.80986926949838e-05 -0.000880418262559872 0.0001431671054372 -0.000235939472021485 0.000357205988930074 -6.06373878800369e-05 -0.00299533182865187 -0.00516937548003253 0.000285429133936944 -0.00210723690302253 -0.00416457303577805 -0.00284477938970249 0.00141743051954054 -0.00149947501347262
"350" -0.000392604709835641 -5.53050418406259e-05 -7.87991783675692e-05 -0.000887114763783561 0.000120051464250657 -0.000253676076412279 0.00036337561603757 -6.21401509593902e-05 -0.00296036790468014 -0.0051333339689114 0.000142698631977321 -0.00221498959156903 -0.00421713578536888 -0.00290877247350224 0.00135539244711704 -0.00147232029870672
