"V1" "V2" "V4" "V5" "V7" "V8" "V10" "V11" "V13" "V14" "V15" "V17" "V18" "V20" "V21" "V23"
"1" -0.00117584219956533 -0.000482517589260106 -0.000185750597063532 0.000513203953702842 -0.000644908331866355 0.00012108224333062 -0.00050016694646198 -6.0663471754036e-05 0.000419798198493969 0.000331169882508958 -8.49261427556341e-05 -0.000127074237305364 0.000195566560474563 -2.40517850516932e-05 0.000411870711992832 0.000332149932287333
"2" -0.00112453900679538 -0.000453084651174938 -0.000158596622927489 0.000498426207196482 -0.000622864123687799 9.31324431415696e-05 -0.000493485721694087 -6.61463279896442e-05 0.000405698543946287 0.000294858142962909 -0.000102345346338243 -0.0001304201457498 0.000189437194743522 -1.2942242626521e-05 0.000408961273586238 0.000323902792662737
"3" -0.00106935822856694 -0.000422204469706584 -0.000132033839908341 0.000482912231496102 -0.000599320064820096 6.34888901073862e-05 -0.000484836921111313 -7.15761589819549e-05 0.000390686919511807 0.000257913333955816 -0.000120261529753674 -0.000133651148452863 0.000183366660206042 -2.77540729144738e-06 0.000405942812150365 0.000315596585380933
"4" -0.00101077058520933 -0.000390029483370695 -0.000106342157308937 0.000466825551528795 -0.000574479112735086 3.22562784354681e-05 -0.000474310985901728 -7.69282365074184e-05 0.0003747853340533 0.000220449860074308 -0.000138586228546275 -0.00013675964397892 0.000177360471202341 6.35800525380178e-06 0.000402767122308803 0.000307245127220953
"5" -0.000949263100696925 -0.000356721668715854 -8.17728700615791e-05 0.000450337843230612 -0.000548541810298607 -4.45784718250999e-07 -0.000462012405425078 -8.21768066234364e-05 0.000358019006737465 0.000182587942406984 -0.000157232438637384 -0.00013974409406856 0.000171423009219667 1.43869459764051e-05 0.000399384320920287 0.00029885913581282
"6" -0.000885312022677879 -0.00032245466741098 -5.85520016396262e-05 0.000433616902983219 -0.000521710153931819 -3.44767257904003e-05 -0.000448049434610714 -8.72918104236707e-05 0.000340399548811082 0.000144449029278945 -0.000176115574231317 -0.000142595601691447 0.000165569783149672 2.12419646445782e-05 0.000395760071995101 0.000290455919484722
"7" -0.000819412476449198 -0.000287404030331358 -3.68948811159175e-05 0.000416828373665144 -0.000494192213456461 -6.96890604632939e-05 -0.000432546124348701 -9.22370713826646e-05 0.000321952391501137 0.000106151994881016 -0.000195150176106958 -0.00014531399477582 0.000159802669993783 2.68761240802659e-05 0.00039185758560117 0.000282051184833445
"8" -0.000752035986351809 -0.000251753546442809 -1.6967370162835e-05 0.0004001365609091 -0.000466186890609511 -0.000105915399212507 -0.000415635352869459 -9.69761947377984e-05 0.000302693004703476 6.78140255265321e-05 -0.000214259311713696 -0.000147890645149006 0.000154139174878218 3.12412588611889e-05 0.00038765124873206 0.000273660882153623
"9" -0.000683673639874358 -0.000215686867244677 1.07390403218496e-06 0.000383701167814913 -0.000437897467251931 -0.000142978725897323 -0.000397457493166419 -0.000101471653163924 0.000282634008792151 2.9550403748204e-05 -0.000233359665460193 -0.000150325273469575 0.000148583574480669 3.43085154567277e-05 0.000383120782266404 0.00026530663036415
"10" -0.000614775480157585 -0.000179390036598856 1.71161381385661e-05 0.000367672650019752 -0.000409519533691296 -0.000180696984521357 -0.000378152407510205 -0.000105679031634522 0.000261786501204438 -8.5242139508998e-06 -0.00025237522327837 -0.000152614799023048 0.00014315560672202 3.60524258241716e-05 0.000378251840446326 0.000257005328454201
"11" -0.000545792565420961 -0.00014304726035395 3.10722113741948e-05 0.000352194672380122 -0.000381245629673621 -0.000218874438777681 -0.000357877024571741 -0.000109564483625594 0.000240175045736348 -4.62991446193594e-05 -0.000271237984328294 -0.000154764874125988 0.000137871809064575 3.6463848082426e-05 0.000373043075128583 0.000248778531107142
"12" -0.000477157052203555 -0.000106844063111545 4.28842686068795e-05 0.000337401951798752 -0.000353260328924788 -0.000257308627698974 -0.000336787622235617 -0.000113081520452173 0.000217819343188631 -8.36733851911831e-05 -0.000289883383093177 -0.0001567752653637 0.000132745189773909 3.55474207107643e-05 0.000367488655761948 0.000240647454135677
"13" -0.00040928044377856 -7.09541946918166e-05 5.25231257428405e-05 0.000323424382332594 -0.000325742706892814 -0.000295794735970308 -0.00031504292156149 -0.000116192939734966 0.000194740242166651 -0.000120541961333035 -0.000308248716405247 -0.000158660119329705 0.000127784635865408 3.33137218072515e-05 0.000361600059944928 0.000232628610297037
"14" -0.000342544718070168 -3.55512019676767e-05 5.9994513618197e-05 0.000310371565195614 -0.000298864945349832 -0.000334127020544291 -0.000292807767230335 -0.000118863972650919 0.000170966836425615 -0.000156811623361906 -0.000326278244863176 -0.000160427347869471 0.000123014023200474 2.97836094972331e-05 0.000355386705852278 0.000224742746693077
"15" -0.000277321519767597 -7.97101627341545e-07 6.5328090355394e-05 0.000298352358168612 -0.000272785469588785 -0.000372094606558553 -0.000270248896224762 -0.000121060856724553 0.000146535502947995 -0.00019239373312275 -0.000343925275148066 -0.000162094561924845 0.000118434981180556 2.49987132494193e-05 0.000348868397849157 0.000217006060783696
"16" -0.00021394397946399 3.31506112476433e-05 6.85779145255519e-05 0.000287457545899745 -0.000247660671037105 -0.000409490443887063 -0.000247535724367162 -0.000122751003721857 0.000121487751512987 -0.000227204318689694 -0.00036114813540288 -0.000163682753735326 0.000114066388927529 1.90038197101049e-05 0.000342066577695514 0.00020943885544956
"17" -0.000152737460888365 6.61551613484591e-05 6.98213406103903e-05 0.000277769496289248 -0.000223634500575714 -0.000446110553855446 -0.000224835854388072 -0.000123915941137692 9.58695614226869e-05 -0.000261168742197952 -0.000377914196657171 -0.00016521779854715 0.000109909645655292 1.18599858401797e-05 0.000335005706957262 0.000202047314492902
"18" -9.39780251847781e-05 9.80822841466209e-05 6.91618992987156e-05 0.000269355921699763 -0.000200832762907728 -0.000481755181427836 -0.000202314072251689 -0.000124532004574014 6.97412932681121e-05 -0.000294214915115085 -0.000394190143941582 -0.000166728034714405 0.00010597261798271 3.63881654950147e-06 0.000327718660839626 0.000194847933445748
"19" -3.79325412745613e-05 0.000128816801130895 6.671493120314e-05 0.00026227545976855 -0.00017938333037364 -0.000516231847649852 -0.000180141898529018 -0.000124589190931643 4.31659851058842e-05 -0.000326280937312159 -0.000409958173694309 -0.000168244636079769 0.000102252306726185 -5.57797051978162e-06 0.000320237799962091 0.000187842083439037
"20" 1.51695560540618e-05 0.000158258663710038 6.26226211416338e-05 0.000256571463344692 -0.000159391156274652 -0.000549359850358248 -0.000158478383961797 -0.000124080813185074 1.62155287527165e-05 -0.000357310178721854 -0.000425199015295246 -0.000169806031898239 9.87470829011457e-05 -1.56979239287079e-05 0.000312597935236748 0.000181042112395405
"21" 6.51230854246104e-05 0.000186324404344736 5.70355525779394e-05 0.000252278555480435 -0.000140953108807848 -0.000580966487657685 -0.000137483526271441 -0.000123012305114609 -1.10259954385865e-05 -0.000387256827098008 -0.000439902665678092 -0.000171451162230919 9.54509616937577e-05 -2.66176819898184e-05 0.000304834225032266 0.00017443869717612
"22" 0.000111751076066164 0.000212942457392887 5.01220144931667e-05 0.000249417257651414 -0.000124156040992413 -0.00061089096519373 -0.000117312310948168 -0.000121389326856447 -3.84680789042413e-05 -0.000416071572054519 -0.000454065975738347 -0.000173222581088643 9.23484848852747e-05 -3.82245173269268e-05 0.000296987500156032 0.00016803640143968
"23" 0.000154920839142359 0.00023806503266946 4.20570461292216e-05 0.000247992567271284 -0.000109068935052125 -0.000638989503571932 -9.81119227327322e-05 -0.000119228977758541 -6.60137763991519e-05 -0.000443719674564521 -0.000467688247060617 -0.000175162898799946 8.94293568058542e-05 -5.04014788492266e-05 0.000289093593480441 0.000161825830345054
"24" 0.000194509783569051 0.000261659617530986 3.30211231933987e-05 0.000248002016431833 -9.57469388177642e-05 -0.000665130133925134 -8.00241640641881e-05 -0.000116559915204763 -9.35532729330946e-05 -0.000470169822002435 -0.000480768573473364 -0.000177320396267593 8.66699795107522e-05 -6.30152966062519e-05 0.000281192047061126 0.000155796315808918
"25" 0.00023044692673677 0.000283710300901027 2.32077164644748e-05 0.000249429213682645 -8.42359031439713e-05 -0.000689199154110186 -6.31753049940237e-05 -0.000113407284398042 -0.00012097693305111 -0.00049539432151291 -0.000493320499671932 -0.000179742433230994 8.40542245101066e-05 -7.5939877973435e-05 0.000273319516080647 0.000149938146715147
"26" 0.000262676399411067 0.000304220343574081 1.28140988105036e-05 0.00025224109810484 -7.45641909639759e-05 -0.000711099728533011 -4.76929156572347e-05 -0.000109813016604328 -0.000148168567430824 -0.000519370775156152 -0.000505346730008508 -0.000182472128245882 8.15573540771374e-05 -8.90351950438772e-05 0.000265518145713326 0.000144231314744867
"27" 0.000291189259954343 0.000323215259976551 2.03946647456473e-06 0.000256399487686053 -6.67398480445997e-05 -0.000730753728250834 -3.36776718096127e-05 -0.000105818248344998 -0.000174992369520506 -0.000542087323854976 -0.000516865472985385 -0.00018555927870694 7.91451539526866e-05 -0.000102157360962339 0.000257820375289995 0.000138657004936443
"28" 0.000316000503163151 0.00034073448557961 -8.92257296391267e-06 0.000261848738885129 -6.07632308475939e-05 -0.000748103380613409 -2.1233083144288e-05 -0.000101474962336386 -0.000201329218496236 -0.000563528879419225 -0.000527884451905986 -0.000189044609285425 7.67953711460619e-05 -0.000115162827836834 0.000250260526788861 0.000133191638895557
"29" 0.000337154593867288 0.000356830452156585 -1.98708301924504e-05 0.000268521686256161 -5.66216129399527e-05 -0.000763104907681877 -1.04405726445347e-05 -9.6837689127322e-05 -0.000227042974676848 -0.000583685606301902 -0.000538420894356778 -0.000192970097265561 7.44759265307465e-05 -0.000127910741028996 0.000242874645353697 0.000127815636887138
"30" 0.000354738182408114 0.000371584432271853 -3.06086029664387e-05 0.000276338882788063 -5.4271188781146e-05 -0.0007757421089577 -1.36555277257548e-06 -9.19633795796516e-05 -0.000251989066886113 -0.00060255591627409 -0.000548486326455987 -0.00019737460234529 7.21549176094945e-05 -0.00014025282891329 0.000235691828968499 0.000122502255264856
"31" 0.000368870284294574 0.00038508184281447 -4.09452685927619e-05 0.000285210234304154 -5.36685646124001e-05 -0.000786011347656684 5.93755795547892e-06 -8.69131948303984e-05 -0.000276038494795669 -0.000620132772160639 -0.000558094819907883 -0.000202292377530261 6.98037536128115e-05 -0.000152053114501821 0.000228746933814766 0.000117225392275323
"32" 0.000379685960301665 0.000397431731818629 -5.068858919091e-05 0.000295032815562201 -5.47460574868714e-05 -0.00079393013173027 1.14382114113052e-05 -8.1750740485745e-05 -0.000299045379523945 -0.000636424152660607 -0.000567257327114675 -0.000207749225270385 6.73912460672603e-05 -0.000163169450407274 0.000222063541277554 0.000111957114874972
"33" 0.00038736975783951 0.000408752126220391 -5.96580835993575e-05 0.000305691094031386 -5.74227380713212e-05 -0.000799538293628142 1.51139614064475e-05 -7.6537815407235e-05 -0.000320885041383383 -0.000651430326125213 -0.000575981314975052 -0.000213769168221329 6.48895149601316e-05 -0.000173479532386393 0.000215667910202631 0.000106671365163565
"34" 0.000392131366194091 0.000419174791811078 -6.76724338195758e-05 0.000317058053278579 -6.15991097970071e-05 -0.000802893343924741 1.69694886308938e-05 -7.13407748383539e-05 -0.000341413900310234 -0.000665159844919665 -0.000584271100715057 -0.000220367451718937 6.22781149027278e-05 -0.000182857464318043 0.000209586283248224 0.000101343728786862
"35" 0.000394195192344112 0.000428841127941398 -7.45686626313663e-05 0.000329001459692325 -6.71666493796507e-05 -0.000804069867189561 1.70203983446923e-05 -6.62203155991907e-05 -0.000360504268100919 -0.000677622584919967 -0.000592135182908409 -0.000227552953937543 5.95326449876133e-05 -0.000191188248825433 0.000203835022704003 9.59477381309816e-05
"36" 0.000393832524043274 0.00043790995992135 -8.01836257762101e-05 0.000341369738692936 -7.3992575063944e-05 -0.000803162875708946 1.53031306209569e-05 -6.12366673043117e-05 -0.000378036284650247 -0.000688832683838393 -0.000599570112693361 -0.00023532499543868 5.66339574540923e-05 -0.000198373356995558 0.000198430583266227 9.04623346332202e-05
"37" 0.000391324154374078 0.000446534729419368 -8.43598604678617e-05 0.000354011134357791 -8.19376960551493e-05 -0.000800283144265534 1.18781793167332e-05 -5.64465820892738e-05 -0.000393893746968409 -0.000698805143894206 -0.000606568165474373 -0.000243676561528851 5.35717429320912e-05 -0.000204321096777658 0.000193391744570071 8.48649577067525e-05
"38" 0.000386979993369191 0.000454889404070276 -8.69629036859547e-05 0.000366755571094322 -9.08486735757437e-05 -0.000795556713909257 6.8184471935463e-06 -5.19012802287472e-05 -0.000407960898794879 -0.000707557463105974 -0.000613124390598246 -0.000252592475645657 5.03345479741145e-05 -0.000208958798930724 0.000188727456150866 7.91376913130871e-05
"39" 0.00038112165095992 0.000463143465519348 -8.78552976991175e-05 0.000379436446283871 -0.000100561957953212 -0.000789130215955942 2.14800210546805e-07 -4.76518347814596e-05 -0.000420155508083638 -0.000715112618635124 -0.000619220355072302 -0.000262043495716397 4.69194569814237e-05 -0.000212229772696271 0.000184446258272973 7.32653901093619e-05
"40" 0.000374096453677765 0.000471472740624327 -8.69221301173599e-05 0.000391871153182963 -0.000110896105207897 -0.000781159830119178 -7.82037418082411e-06 -4.37354607411695e-05 -0.000430376318746249 -0.000721495435337267 -0.000624839704146644 -0.000271995329832198 4.33326084103687e-05 -0.000214086136154383 0.00018055535543694 6.72372377289693e-05
"41" 0.000366260890435859 0.000480053949825142 -8.40481331673597e-05 0.000403873923935332 -0.000121665617625892 -0.000771817721109968 -1.71645096013356e-05 -4.01897692223812e-05 -0.0004385597519017 -0.00072672923724645 -0.000629952878024996 -0.000282406861281307 3.95851891525487e-05 -0.000214508039749344 0.000177055238895238 6.10464945299398e-05
"42" 0.000357977016782349 0.000489060086105579 -7.9142520196692e-05 0.000415259779910574 -0.000132678281053365 -0.00076128874755843 -2.76761050332574e-05 -3.7043506500551e-05 -0.000444645392473906 -0.000730850027156998 -0.000634535390411527 -0.00029321988204564 3.5683568064065e-05 -0.000213490619463756 0.000173941796207715 5.46865786969133e-05
"43" 0.000349626178852444 0.00049866674008525 -7.21199667884197e-05 0.000425835994697465 -0.000143728622483397 -0.000749769546783437 -3.91925989961524e-05 -3.43170207169385e-05 -0.000448587521373422 -0.000733884244861166 -0.000638548573248029 -0.000304375927037993 3.1657571890628e-05 -0.000211047731472809 0.000171211817945897 4.81595259568921e-05
"44" 0.000341577692397804 0.000509041027764687 -6.29121867645251e-05 0.000435410199206684 -0.000154615038216147 -0.000737464124393318 -5.15517929057883e-05 -3.20226912581433e-05 -0.000450354225760524 -0.00073587222931358 -0.000641950797951627 -0.000315800241118919 2.75300698719004e-05 -0.000207207629352206 0.000168858275866112 4.14694390869027e-05
"45" 0.000334215311716143 0.000520344965128526 -5.14646848704394e-05 0.000443793368887585 -0.000165123780668677 -0.000724587324770361 -6.45683309865265e-05 -3.01678394547372e-05 -0.000449945051006659 -0.000736852117994702 -0.000644698078524424 -0.000327418730441767 2.33388025577016e-05 -0.000202037527909507 0.000166866515166587 3.46277182505232e-05
"46" 0.000327908120097828 0.000532732427585443 -3.77394300113762e-05 0.00045079481042897 -0.000175049350863906 -0.000711363197205245 -7.80549180478156e-05 -2.87527697069441e-05 -0.000447359282246725 -0.000736862064894764 -0.000646734560524313 -0.000339139449115656 1.9123496738659e-05 -0.0001956014676577 0.000165219371068033 2.7642604805323e-05
"47" 0.000323016360470112 0.000546347928761271 -2.17163378399976e-05 0.000456231883057204 -0.000184181319271712 -0.000698018147636158 -9.18142971152039e-05 -2.7763567594049e-05 -0.000442617353808454 -0.000735949614238084 -0.000648009558863371 -0.000350870479309336 1.49301592186438e-05 -0.000187996915862834 0.000163897719413274 2.05364091766624e-05
"48" 0.000319909734941884 0.000561321836929501 -3.38819629853727e-06 0.00045992225457529 -0.0001923096069214 -0.000684781392118364 -0.000105636325863178 -2.71856725126798e-05 -0.000435769102567639 -0.000734160236657241 -0.000648459471966079 -0.000362514222004684 1.08098603364523e-05 -0.000179340345478091 0.000162876489788473 1.33282352464228e-05
"49" 0.000318920570009237 0.000577778435069102 1.72399323672125e-05 0.000461700461154121 -0.000199233146132649 -0.000671889616850753 -0.000119316022202204 -2.6994299083946e-05 -0.000426863131025007 -0.000731539733434074 -0.000648022515067373 -0.000373965498777672 6.81551736691609e-06 -0.000169753755297537 0.000162130435859424 6.04385062033756e-06
"50" 0.000320369241468059 0.000595819310965639 4.01328270859378e-05 0.000461404152851106 -0.000204757486269107 -0.000659580398564009 -0.000132642086252892 -2.71608605224531e-05 -0.000415992856623143 -0.00072814517245937 -0.000646628651256482 -0.000385115463080569 3.00812544944658e-06 -0.000159394110017699 0.000161623593630593 -1.28939073189821e-06
"51" 0.000324575779574691 0.000615536209443694 6.52546091608085e-05 0.000458882888920878 -0.000208690186752152 -0.000648082347459649 -0.000145403473937656 -2.76464064979155e-05 -0.000403246708808991 -0.000724023508316478 -0.000644212851743426 -0.000395853872822603 -5.47228722695174e-07 -0.000148422484042901 0.000161324678199659 -8.63561949254683e-06
"52" 0.00033180683232877 0.000637001758476666 9.25381983512777e-05 0.000454003356070423 -0.000210856793054967 -0.000637630255008778 -0.000157388488401513 -2.84083108110993e-05 -0.000388740185966164 -0.000719231245773517 -0.000640702471442377 -0.000406067285099397 -3.79316941978404e-06 -0.000137015264429112 0.000161197155388199 -1.59656718776154e-05
"53" 0.000342332494375952 0.000660273020621461 0.000121906916312138 0.000446639878721161 -0.000211087116083439 -0.00062844592491734 -0.000168392620076048 -2.93988723780379e-05 -0.000372602960201592 -0.000713828317032723 -0.000636027886572386 -0.000415643135040858 -6.65583498555781e-06 -0.000125360747871774 0.000161200445271171 -2.32397520610802e-05
"54" 0.000356372508266577 0.000685387317913472 0.000153259250685875 0.000436693229891871 -0.000209231091694557 -0.000620751956177423 -0.00017821958004015 -3.05702389203806e-05 -0.000354999203091388 -0.000707874520110787 -0.000630121325405025 -0.00042446830539488 -9.0752935446438e-06 -0.000113666165272758 0.000161288683242266 -3.04231880778998e-05
"55" 0.000374130150855334 0.000712364851060092 0.000186490737351131 0.000424069520462981 -0.000205144744827052 -0.000614756627308422 -0.000186671680967347 -3.1865295325658e-05 -0.000336081497971366 -0.000701429041522982 -0.000622910419467502 -0.000432432339316306 -1.09827395638514e-05 -0.000102131907448513 0.000161418927496397 -3.74738314342042e-05
"56" 0.000395775074559558 0.000741202020802759 0.000221467750046393 0.000408702224495124 -0.000198709142506602 -0.000610656865866482 -0.000193574731801895 -3.32286578285781e-05 -0.000316041874070938 -0.000694559352813927 -0.000614339658838714 -0.000439428751935328 -1.23169356909276e-05 -9.09724335241841e-05 0.000161541495825495 -4.4352371510705e-05
"57" 0.000421434570541121 0.000771880984807193 0.000258043986965192 0.000390540720069935 -0.000189813705658538 -0.000608638726804497 -0.000198754128784946 -3.46017444645481e-05 -0.000295078311005386 -0.000687333859241344 -0.0006043431286112 -0.000445356184799992 -1.30167775504092e-05 -8.04065424590132e-05 0.000161607486435145 -5.10241347781425e-05
"58" 0.00045121554219574 0.000804356995132541 0.000296068461479019 0.000369551551942503 -0.000178371361135322 -0.000608869793413053 -0.000202050919071311 -3.59254507950079e-05 -0.000273402043249849 -0.000679819883136676 -0.000592874948566408 -0.000450118316389167 -1.302476670106e-05 -7.06460509484598e-05 0.000161567433280048 -5.74487891812179e-05
"59" 0.00048517801426261 0.000838575439395529 0.000335366721544866 0.000345723249948377 -0.000164311217158765 -0.000611501785602244 -0.000203326187847582 -3.71409224718885e-05 -0.000251240171886635 -0.000672092100342533 -0.000579884774460973 -0.000453628467913139 -1.22911736981778e-05 -6.19101916901392e-05 0.000161367260679371 -6.359196770425e-05
"60" 0.000523351011357148 0.000874450730738865 0.000375755969099508 0.000319067207379097 -0.00014758360542588 -0.000616666220514178 -0.00020245497056767 -3.81927080053377e-05 -0.000228837538808762 -0.00066423173624792 -0.000565344008900617 -0.000455802175968507 -1.07686718614784e-05 -5.44086705047863e-05 0.000160959518920122 -6.94172621518092e-05
"61" 0.000565724139962619 0.000911883910614281 0.000417046137757184 0.000289606333593107 -0.000128159012877015 -0.000624473859451826 -0.000199325796520202 -3.90221239060158e-05 -0.000206437747674996 -0.0006563159841398 -0.000549221264790552 -0.000456575141677083 -8.42037539066104e-06 -4.83433061462946e-05 0.000160293987529062 -7.48966672423753e-05
"62" 0.000612251008533282 0.000950755637681715 0.000459035102577524 0.000257386757539862 -0.000106026085377599 -0.000635007186821429 -0.000193854233285467 -3.95782809285809e-05 -0.00018430387598445 -0.000648428135683961 -0.000531508829173588 -0.00045588175804497 -5.21676286494967e-06 -4.39074738868225e-05 0.000159321214868122 -7.99964401894898e-05
"63" 0.000662843367408921 0.000990927231381555 0.000501516214316482 0.000222477564908492 -8.12002161620461e-05 -0.000648329041531635 -0.000185971665771576 -3.98105417183278e-05 -0.000162705089033526 -0.000640660529458533 -0.000512206577766613 -0.000453680803952484 -1.13144503022609e-06 -4.12837205854351e-05 0.000157992595191691 -8.46962899622776e-05
"64" 0.00071738739797998 0.00103224541408298 0.000544283399515984 0.000184955924819534 -5.37091488696044e-05 -0.000664472248900021 -0.00017562193394401 -3.96738214977511e-05 -0.000141912870089074 -0.000633104396214827 -0.000491330049721827 -0.000449931337661445 3.8469662539734e-06 -4.06383639148311e-05 0.000156269973409592 -8.89747075860046e-05
"65" 0.000775719222065223 0.00107453249737142 0.000587120073627007 0.000144922818172847 -2.3605217711025e-05 -0.000683440555207407 -0.000162785134934501 -3.91243081975689e-05 -0.000122200864566674 -0.000625854899325559 -0.000468909620010794 -0.000444619119368492 9.72049948270556e-06 -4.21189904928959e-05 0.000154111414477338 -9.28136563720578e-05
"66" 0.000837650778832357 0.00111760046495896 0.000629817406882393 0.000102488856943132 9.03380406832756e-06 -0.000705211941779038 -0.000147457384027144 -3.81272113036473e-05 -0.00010385554333111 -0.000619013400275749 -0.000444993659019968 -0.000437734193313012 1.64869990877943e-05 -4.58572563032079e-05 0.000151483444765827 -9.61994695207118e-05
"67" 0.000902947037949095 0.00116124636153323 0.000672166087052934 5.77830071720981e-05 4.4114322831393e-05 -0.000729726652084067 -0.000129648677608938 -3.66553091991317e-05 -8.71467237836727e-05 -0.000612680518954708 -0.00041964507162836 -0.000429284037519806 2.4126954553068e-05 -5.19610080126569e-05 0.000148358433992211 -9.912683918451e-05
"68" 0.000971352567403152 0.00120525139063882 0.000713962265188019 1.09448064784076e-05 8.15241810369447e-05 -0.000756903844172086 -0.000109404624423948 -3.46815899661552e-05 -7.23533672657616e-05 -0.000606960140451866 -0.000392944825457462 -0.000419293299178585 3.26137821288923e-05 -6.051676697826e-05 0.000144711535693689 -0.000101591390611499
"69" 0.00104257497337379 0.00124938516503632 0.000755013306448785 -3.78783205104007e-05 0.00012112641546171 -0.000786623317970514 -8.67821646317e-05 -3.21867340479841e-05 -5.97359142600475e-05 -0.000601956839694478 -0.00036499356869201 -0.000407799983546731 4.19154086225722e-05 -7.1579721044157e-05 0.000140533087323733 -0.000103589926070688
"70" 0.0011162936780075 0.00129340459172447 0.000795133390428913 -8.85256248259792e-05 0.000162769331552147 -0.000818739661954492 -6.18702196304317e-05 -2.91616830237481e-05 -4.9555199154832e-05 -0.000597775649269 -0.000335905535638976 -0.000394860553777417 5.19806978549005e-05 -8.51862565809289e-05 0.000135817448489036 -0.000105128586979488
"71" 0.00119215902583169 0.00133706637027595 0.000834145482366692 -0.000140830139075358 0.000206282465542857 -0.000853075201827248 -3.4765660984894e-05 -2.55989624089953e-05 -4.20475302994114e-05 -0.000594518389380569 -0.00030581277818347 -0.000380541205313367 6.2760642913368e-05 -0.000101336450349121 0.000130564873051151 -0.000106216878602588
"72" 0.00126979662135311 0.00138010572584553 0.000871895352912585 -0.000194619366244967 0.000251473546431014 -0.000889421147559881 -5.60224018795312e-06 -2.15018086735315e-05 -3.74420345948672e-05 -0.000592282418399012 -0.000274862730055403 -0.000364933523644538 7.41908498195769e-05 -0.000120006560614664 0.000124792516217764 -0.000106861740932958
"73" 0.00134881421325756 0.00142226531854051 0.000908232636754917 -0.00024971301268157 0.000298139710001611 -0.000927543491438212 2.54807105097055e-05 -1.68801938619012e-05 -3.59392502043526e-05 -0.000591162022073461 -0.000243219677822819 -0.000348133075973578 8.61992646769981e-05 -0.000141135727176377 0.000118527795016166 -0.000107077795271084
"74" 0.00142879428343018 0.00146327641345014 0.000943038035829995 -0.000305931933570425 0.000346057985773022 -0.00096717996665238 5.83162308602671e-05 -1.17477246737599e-05 -3.77115473870391e-05 -0.00059124018705788 -0.000211056876733107 -0.000330255890405963 9.87127661594331e-05 -0.000164629288634545 0.000111806389918008 -0.000106881645231886
"75" 0.00150930563909184 0.00150287155508168 0.000976194450365595 -0.000363088115837538 0.000394996080990937 -0.00100804365512362 9.2724133837057e-05 -6.12711479316624e-06 -4.29110154200355e-05 -0.00059259167510371 -0.000178565339794396 -0.000311430994023701 0.000111643441369237 -0.000190366577034462 0.000104677225630691 -0.000106293655369907
"76" 0.0015899109272928 0.00154078947205436 0.00100761524566838 -0.000420995996688401 0.00044470093847651 -0.00104982373443735 0.000128502446425371 -4.55787083475302e-08 -5.16424216835608e-05 -0.000595274120755192 -0.000145940656719124 -0.00029179900336189 0.000124910388587608 -0.00021818284269547 9.72021183545176e-05 -0.000105326279637022
"77" 0.00167014812220047 0.00157676286158588 0.00103722476694935 -0.000479465852222358 0.000494914331073148 -0.00109219604072445 0.000165442223377034 6.46027364578885e-06 -6.39770390253786e-05 -0.000599332596170305 -0.000113386214135953 -0.000271516537345151 0.000138418729781643 -0.00024788806294758 8.94567075759102e-05 -0.00010400170406061
"78" 0.00174956768208047 0.00161054241930488 0.00106497199040773 -0.000538309612618205 0.000545367620810942 -0.00113481058139907 0.000203315416498708 1.33477691861085e-05 -7.99514929059573e-05 -0.000604791089456409 -8.11120981883462e-05 -0.000250738990599351 0.000152081949180492 -0.000279246635285041 8.15289761228996e-05 -0.000102340029861565
"79" 0.0018277015999779 0.00164187239841067 0.00109081692130881 -0.000597336868326289 0.000595776821895566 -0.00117730993774419 0.000241882802836232 2.05729056165998e-05 -9.9537140294881e-05 -0.00061165118683981 -4.93258555294118e-05 -0.000229643510084959 0.000165806605249621 -0.000312001052296456 7.35172643895954e-05 -0.000100355298131448
"80" 0.00190409900160001 0.00167052648994339 0.00111474583383736 -0.000656359102234153 0.000645858315252438 -0.0012193248793289 0.000280902996848248 2.80815694619823e-05 -0.000122667378008031 -0.000619888243547916 -1.82423801350998e-05 -0.000208408829461037 0.000179502021173501 -0.000345845410353625 6.55343322462129e-05 -9.80689469172412e-05
"81" 0.00197830771072483 0.00169627395709344 0.00113675034304937 -0.000715187847231197 0.000695317713837122 -0.0012604760653594 0.000320116186704042 3.5817868467814e-05 -0.000149208733942835 -0.000629451828111796 1.19360538409827e-05 -0.000187214655281112 0.000193081878795499 -0.000380448367062735 5.77067915363546e-05 -9.54884173588349e-05
"82" 0.0020498821432064 0.00171891578865333 0.00115684131710812 -0.000773633852567476 0.000743861099647611 -0.00130038727887513 0.000359271839289534 4.37184626192692e-05 -0.000178973142427544 -0.000640258710127779 4.10084311507332e-05 -0.000166255388281681 0.000206461709539112 -0.00041543839314234 5.0169721468125e-05 -9.26307290494169e-05
"83" 0.00211839831754888 0.00173825987804137 0.00117503739404549 -0.000831509920453023 0.00079118809902778 -0.00133867486761194 0.000398105395871991 5.17157411538693e-05 -0.000211713148065895 -0.000652191913707339 6.87870487950679e-05 -0.000145715056165336 0.000219561389976755 -0.000450423149277061 4.30711293793012e-05 -8.95021150491036e-05
"84" 0.00218345011750966 0.00175414804792592 0.00119137680369263 -0.000888625885219452 0.000837007094274189 -0.00137496699388048 0.000436359165815315 5.97430429655969e-05 -0.000247110967776956 -0.000665104387173336 9.50960148615606e-05 -0.000125782865536747 0.000232312467797191 -0.000484969132029833 3.65638558847759e-05 -8.61050795286166e-05
"85" 0.00224464370266983 0.0017664340440378 0.00120589314938358 -0.000944792911238507 0.000881022164341968 -0.00140889380822936 0.000473773068970856 6.77239700670389e-05 -0.000284795932157446 -0.000678808221640696 0.000119771826425729 -0.000106646626867876 0.000244643987444811 -0.000518624211250478 3.08112144336924e-05 -8.24448926635858e-05
"86" 0.00230162953013282 0.00177500533526872 0.00121863090645388 -0.000999824512809439 0.000922943911271432 -0.00144009854190072 0.000510096639003557 7.5584461662526e-05 -0.000324317828044706 -0.000693082379995905 0.000142675874270523 -8.84851145490824e-05 0.000256508696897886 -0.000550906092125086 2.59883382951812e-05 -7.85164455405595e-05
"87" 0.0023540673137861 0.00177977537880887 0.00122963501340529 -0.00105352648504108 0.000962497523334448 -0.00146824567298173 0.000545081044027034 8.32450618148914e-05 -0.000365176404823835 -0.000707672349182381 0.0001636806154788 -7.14738475398691e-05 0.000267850618041436 -0.000581316465759405 2.22586443232678e-05 -7.43157570415054e-05
"88" 0.00240166059352923 0.00178068934872631 0.00123895652521589 -0.00110570871830367 0.000999409918306 -0.00149301094644009 0.00057849346761096 9.06226854003552e-05 -0.000406818857273528 -0.000722290124743788 0.000182691794496295 -5.57769263186801e-05 0.00027863571232867 -0.000609344311777086 1.98049055514317e-05 -6.98312298901646e-05
"89" 0.00244414641118761 0.00177772219610081 0.00124663547758539 -0.00115618197155585 0.00103342463995489 -0.00151409561774022 0.000610104117297442 9.76386473222938e-05 -0.000448630412778993 -0.000736619723201371 0.000199629266506115 -4.15465156062343e-05 0.000288834359150922 -0.000634469804686161 1.87955220283659e-05 -6.50493847336296e-05
"90" 0.00248130255076373 0.00177088097743727 0.0012527258988752 -0.00120475322449857 0.00106430968241665 -0.00153122517016971 0.000639713453826576 0.000104213110999628 -0.000489962153634822 -0.000750311220772908 0.000214440247535599 -2.89224042206504e-05 0.000298433028566484 -0.000656168329465793 1.9406480636899e-05 -5.99536109588222e-05
"91" 0.00251293802993678 0.00176020382306451 0.00125726478474802 -0.00125123019944186 0.00109183639632954 -0.00154415469147212 0.000667119118791982 0.000110256042218396 -0.000530123152129651 -0.000763008846152884 0.000227097558167655 -1.80310178539735e-05 0.000307416187794315 -0.000673921578147329 2.18011915706452e-05 -5.45269890631789e-05
"92" 0.00253891214413762 0.00174576737894677 0.00126028971092539 -0.00129541912736145 0.00111581390161073 -0.00155267145598524 0.00069214571838744 0.000115689893462683 -0.000568424170318578 -0.000774336360515782 0.00023759180343405 -8.97602293716174e-06 0.000315789420451438 -0.000687236609320425 2.61345532313712e-05 -4.87468942690075e-05
"93" 0.00255912269408734 0.00172767611240407 0.00126184175228264 -0.00133712711655498 0.00113606381632109 -0.00155659124198572 0.000714639710089017 0.000120428581758781 -0.000604145447017522 -0.000783916375512544 0.000245947845910799 -1.85154722404244e-06 0.000323559809998103 -0.000695635724216951 3.25505381797023e-05 -4.25909545984077e-05
"94" 0.00257351122766271 0.00170606720409684 0.00126194994528014 -0.00137616716791706 0.00115243624450696 -0.00155577059953916 0.000734459083242917 0.000124392255666568 -0.000636604878341037 -0.000791381054050055 0.000252198024948888 3.2755442957565e-06 0.000330743108609796 -0.000698680426094447 4.11726196887232e-05 -3.60413265289004e-05
"95" 0.00258207222453308 0.00168110555576316 0.00126066190431141 -0.00141235108673091 0.00116482057915318 -0.00155009545315492 0.000751489924129525 0.000127501618112075 -0.000665132080829756 -0.000796368288501234 0.000256408240717026 6.35570562178701e-06 0.000337367490964011 -0.000695980602947051 5.21185616650877e-05 -2.90700987117728e-05
"96" 0.00258482790311725 0.00165299359155493 0.00125800361667778 -0.00144549384128142 0.00117312475781825 -0.00153949626031639 0.000765643299888622 0.000129675859368343 -0.000689111976761286 -0.00079854985554842 0.000258648153768671 7.36153101256171e-06 0.000343459355328451 -0.000687202645709489 6.54661603195224e-05 -2.1666092063575e-05
"97" 0.00258186520271448 0.00162194715761951 0.0012540291258784 -0.00147541998889766 0.00117729931010078 -0.00152393979914366 0.000776847303188323 0.000130838927465955 -0.000707987990709074 -0.00079763166534402 0.000259013745195075 6.28622253436052e-06 0.00034905554608107 -0.000672078490902125 8.12846329648093e-05 -1.38057786936171e-05
"98" 0.002573301421419 0.00158821640141359 0.00124878630660407 -0.00150196056584867 0.00117732769390421 -0.00150343022368355 0.00078505456738513 0.000130920589193232 -0.000721293312195031 -0.000793363191265124 0.00025761052726556 3.14716325853693e-06 0.000354195666553732 -0.000650425588749219 9.96131194792771e-05 -5.47729661838293e-06
"99" 0.00255930133143549 0.00155206463564398 0.00124233394841536 -0.00152495322471991 0.00117322343889355 -0.00147801400294413 0.000790249096991045 0.000129850338740011 -0.000728657183105434 -0.000785549057267405 0.000254550824360935 -2.01636665982915e-06 0.000358924962749151 -0.000622143079522252 0.000120452784139522 3.33132823174271e-06
"100" 0.00254006565075553 0.00151377630923552 0.00123474341133338 -0.00154424903109271 0.00116504222448792 -0.00144777270927947 0.000792427669197664 0.000127566124323796 -0.000729800506324466 -0.000774052455959353 0.00024995667900061 -9.1457936634255e-06 0.000363284942303718 -0.000587218151531978 0.000143793702926223 1.26255569912991e-05
"101" 0.00251584894002324 0.00147364679370879 0.00122610182514056 -0.00155971344901367 0.00115287730489658 -0.00141282678849939 0.000791616260858688 0.000124007691341718 -0.000724578834256168 -0.000758799704409034 0.000243958665483626 -1.81589868314548e-05 0.000367328999191361 -0.000545743223803392 0.000169580649211408 2.24120068106276e-05
"102" 0.00248692556586857 0.00143198215822199 0.00121651271830556 -0.00157122738803563 0.00113684902064115 -0.00137333537745902 0.000787866984733682 0.000119128306455965 -0.00071296302329639 -0.000739788443590317 0.000236691792910979 -2.89515000818248e-05 0.000371110390515216 -0.000497911121740071 0.000197738888482674 3.26878519621275e-05
"103" 0.00245362093039721 0.00138909512815806 0.00120608653962765 -0.00157868779363868 0.00111712691719628 -0.00132948949668515 0.000781255597345711 0.000112887466748792 -0.000695029202642174 -0.000717074970453883 0.000228293089699594 -4.14042186359191e-05 0.000374681878876156 -0.000444000843995522 0.00022816512948488 4.34517240885156e-05
"104" 0.00241627134157602 0.00134530020741349 0.00119494972407468 -0.00158201162251412 0.00109389740220826 -0.00128151640795325 0.000771870518389662 0.000105250818608052 -0.00067098991269214 -0.000690790514110223 0.000218905916229277 -5.53757127816806e-05 0.000378101479597596 -0.000384395671293973 0.000260723527515309 5.46966589932336e-05
"105" 0.00237526389358674 0.0013009087898433 0.00118325048443484 -0.00158113639512031 0.00106738643629491 -0.00122967290793684 0.000759834616468318 9.62029713272333e-05 -0.000641149642231829 -0.00066111110792665 0.000208675022204045 -7.07127493777963e-05 0.000381432924911679 -0.000319572129059536 0.000295264539430459 6.64168952500033e-05
"106" 0.002331001863159 0.001256234312955 0.00117114308984661 -0.00157602957701562 0.00103784913612322 -0.00117424347342687 0.000745285965768536 8.57356657883673e-05 -0.000605916122668045 -0.00062827405191329 0.00019774816172386 -8.72414914054855e-05 0.000384747022803079 -0.000250081886120957 0.000331615726499867 7.86058162862023e-05
"107" 0.00228390591915162 0.00121157340712184 0.00115879194013074 -0.00156666845225048 0.00100555515082211 -0.00111553978888434 0.000728382139145722 7.38604395522119e-05 -0.000565783754715135 -0.000592560401344614 0.000186282544499114 -0.0001047774170072 0.000388115203213003 -0.000176547666750478 0.000369580979874981 9.12519543472095e-05
"108" 0.002234417162952 0.00116722239249631 0.00114636179087273 -0.00155306975986574 0.000970807664012126 -0.00105389618862582 0.000709304868204124 6.05959198169864e-05 -0.000521295954705019 -0.000554277984210794 0.000174432115285011 -0.000123124418224411 0.000391615196414317 -9.96547392263615e-05 0.000408958863072323 0.000104352558442481
"109" 0.00218298143808543 0.00112345750063776 0.00113403216280722 -0.00153526312488531 0.000933918106638082 -0.000989666979452865 0.000688241350198665 4.59874576074025e-05 -0.000473061678697471 -0.00051376610421434 0.000162362797683549 -0.000142080135977528 0.000395333653895277 -2.01351549721089e-05 0.000449535256015687 0.000117895801806761
"110" 0.00213006108540802 0.00108054027880426 0.00112196884435851 -0.00151331133818933 0.000895216100362636 -0.000923222160511737 0.000665407384332932 3.00870830126474e-05 -0.000421710223445403 -0.000471373939235802 0.000150246179974208 -0.000161430100825885 0.000399359006348938 6.12507919756817e-05 0.000491087933287273 0.000131882581520318
"111" 0.002076116472104 0.00103872020545511 0.001110342534829 -0.00148729964453713 0.000855040071610662 -0.000854949378670639 0.000641024273123098 1.29685816050848e-05 -0.000367883507963933 -0.000427458527597755 0.000138252763877917 -0.000180956546163577 0.000403790485927108 0.000143722433388836 0.000533392260431436 0.00014630743929313
"112" 0.00202160122007938 0.000998221738647281 0.00109931961134307 -0.00145733769026052 0.00081373373483569 -0.000785243655609515 0.000615330994560453 -5.27348616346075e-06 -0.000312225304856571 -0.00038236834327452 0.000126569180967922 -0.000200440016707323 0.000408731187692933 0.000226491442812078 0.000576223805367695 0.000161174886580172
"113" 0.00196695339833744 0.000959252869112361 0.00108903666851601 -0.00142355456516736 0.000771636085508398 -0.000714507599035413 0.000588566861814146 -2.45392594976681e-05 -0.000255369253286665 -0.000336448060384333 0.000115379679127729 -0.000219658195444584 0.000414283827496674 0.000308773281934152 0.000619354516179607 0.000176481759680435
"114" 0.00191261210589192 0.000921999029249961 0.00107963751926286 -0.00138610557034518 0.000729094034183837 -0.000643149438527389 0.000560982451287748 -4.47052480825482e-05 -0.000197906595106583 -0.000290017832827951 0.000104874907072936 -0.000238389995262974 0.000420556554588513 0.000389811438230988 0.00066256546913012 0.000192232891925909
"115" 0.0018589777143582 0.000886627111224466 0.00107123338623704 -0.00134516298669388 0.000686442331696208 -0.000571576753911306 0.000532830791285545 -6.56378513466448e-05 -0.000140407861866717 -0.000243381773713286 9.52411361164487e-05 -0.000256418637298084 0.000427654554711767 0.000468874572513638 0.000705639216715572 0.000208426476858418
"116" 0.00180643011945123 0.000853276933572883 0.00106392992993941 -0.00130091466501982 0.000644009690360591 -0.00050019578458979 0.000504364492424794 -8.7194000081169e-05 -8.33854420771578e-05 -0.000196816550829786 8.66751007235086e-05 -0.000273536305464968 0.000435681789724148 0.000545269310742245 0.000748366490067968 0.000225068042908279
"117" 0.00175531671708073 0.000822071984067959 0.00105779310651223 -0.00125356656781411 0.000602106550177443 -0.000429402922722172 0.000475835773384454 -0.0001092145257842 -2.73110420262226e-05 -0.000150575252896667 7.93611683161384e-05 -0.000289535685010527 0.000444734135338882 0.000618351707624931 0.000790534744807088 0.000242148440282945
"118" 0.00170595587886103 0.000793110112826159 0.00105288079068833 -0.00120333453186293 0.000561035868448927 -0.000359590360200816 0.00044749115969558 -0.000131537231041684 2.74031123618712e-05 -0.000104879217241542 7.34814549977218e-05 -0.000304221710863375 0.000454906112892314 0.000687536850008531 0.00083194760342832 0.000259665795558459
"119" 0.00165861564828808 0.000766468040304984 0.00104922104422625 -0.00115044802325503 0.000521077752234774 -0.000291133033919725 0.000419568290862077 -0.000153993798136488 8.03907693622062e-05 -5.99302029702966e-05 6.92129941541925e-05 -0.000317416299286803 0.000466274948033982 0.000752286739604303 0.00087241292210048 0.000277603442827853
"120" 0.00161351883914988 0.000742202499558322 0.00104682215832187 -0.00109514065780546 0.000482493719135845 -0.000224393670608444 0.000392291061198022 -0.000176408520982822 0.000131341127410138 -1.58987969113636e-05 6.67161215474971e-05 -0.000328945408094265 0.000478906080476685 0.000812138389889763 0.00091173585836183 0.000295941688527786
"121" 0.00157084576882744 0.000720353235914333 0.0010456580181673 -0.00103764783459208 0.000445525537171851 -0.000159710213108351 0.000365876014614053 -0.000198609542802811 0.000179999658657394 2.70609742821805e-05 6.6135917706364e-05 -0.000338655607883843 0.000492843583620889 0.000866695484412139 0.000949733176341249 0.000314650567255611
"122" 0.00153073012426274 0.000700932525110324 0.00104569535076643 -0.000978217040883337 0.000410388663882189 -9.74006982775038e-05 0.000340521492157864 -0.000220419843913005 0.000226156224515822 6.88209389083606e-05 6.76010925696296e-05 -0.000346408473906365 0.000508124421009513 0.000915618580312513 0.000986230461878876 0.000333690921167576
"123" 0.00149324077280796 0.000683940023683725 0.00104685691667102 -0.000917084151298624 0.000377277276312105 -3.77599657089332e-05 0.000316403177579381 -0.000241672691971507 0.00026964396076026 0.000109265351899095 7.12241988171905e-05 -0.000352081805652074 0.000524750372914285 0.00095864473055751 0.00102104594564761 0.000353011627038795
"124" 0.00145840785998219 0.000669358146835346 0.00104905670600521 -0.000854489882655812 0.000346362166169151 1.89522319879246e-05 0.000293686166987892 -0.000262194268565219 0.000310344183977063 0.000148293189444518 7.70842904363257e-05 -0.000355575137031201 0.00054270765254518 0.000995576987429861 0.00105401707211221 0.000372548535786676
"125" 0.00142619905375441 0.000657153465706523 0.00105219282307495 -0.00079066887510642 0.00031778406482842 7.25009159074545e-05 0.000272510838673778 -0.000281829960097844 0.000348160036271951 0.00018581614354278 8.52445435804097e-05 -0.000356804378437701 0.000561957763933024 0.00102628107620797 0.00108496906503253 0.000392228138283861
"126" 0.00139653844786263 0.000647274742176308 0.00105613192525315 -0.000725847728621886 0.000291662206491815 0.000122691721399058 0.000252990868660473 -0.000300421455939736 0.000383039006840255 0.000221749640576547 9.57334818886183e-05 -0.000355706619427855 0.000582430913902926 0.00105068797380444 0.00111374588014778 0.000411963395862259
"127" 0.00136929705113917 0.000639662026295341 0.00106073749892515 -0.000660246126597195 0.000268088651505366 0.000169358570471335 0.000235225981403362 -0.000317825568086274 0.000414951198808694 0.000256017581551455 0.000108552575736768 -0.000352243830341953 0.000604039621713522 0.00106878577579569 0.0011401854683848 0.000431651771256951
"128" 0.00134430895686457 0.000634243306239963 0.00106585719326948 -0.000594074564269903 0.000247134844105586 0.000212381206948726 0.000219283285179266 -0.000333907235221611 0.00044389055301382 0.000288544476830065 0.000123673571189777 -0.000346393697477967 0.000626664390898098 0.00108062600452889 0.00116413865807083 0.000451183833075459
"129" 0.00132136135528252 0.000630934871375885 0.00107132748811864 -0.000527535624742753 0.000228847345914312 0.000251667919724877 0.0002052188772986 -0.000348537631595326 0.000469863504210237 0.000319258938002606 0.000141032933478629 -0.000338161546045189 0.000650162821837444 0.00108630184463094 0.00118546064335888 0.000470436578282031
"130" 0.00130019382090045 0.00062963985427566 0.00107697247729191 -0.000460811248881427 0.000213245722419999 0.000287177888499006 0.000193049449059553 -0.00036160605139516 0.000492894791247649 0.000348082656709463 0.000160545139101134 -0.000327574048386068 0.000674367365561058 0.00108596186859063 0.0012040111946882 0.000489277058847613
"131" 0.00128053520750995 0.000630264022426642 0.00108263216403782 -0.000394081862746066 0.000200333789613968 0.000318901399173979 0.000182782354910724 -0.000373008685014981 0.000513016973742585 0.00037494093956397 0.000182081854073214 -0.00031467342530747 0.000699086300312938 0.00107979467961103 0.00121965927166707 0.000507565160095303
"132" 0.00126206747658445 0.000632701029694387 0.00108812115742756 -0.000327508070531397 0.00019009150478853 0.000346871549761294 0.000174397161854624 -0.000382653988792125 0.000530276665574918 0.0003997519184162 0.000205497074725662 -0.000299534170248852 0.000724109545273869 0.0010680306734425 0.00123228591452971 0.000525154272427541
"133" 0.00124446819463124 0.000636840856133313 0.00109327187355733 -0.000261241420791406 0.00018248161000225 0.000371159520604813 0.000167853092996513 -0.000390461293759005 0.00054470950512552 0.000422432340536102 0.000230604815982921 -0.000282244076464023 0.000749209234184605 0.00105092665998238 0.00124177739161152 0.000541891600456306
"134" 0.00122739114701266 0.000642573891545278 0.00109792125885351 -0.000195416393329432 0.000177449532628693 0.000391874437698093 0.000163091241927772 -0.000396367659628555 0.000556359917461492 0.000442894402997862 0.000257202215108564 -0.00026291145750106 0.000774135237077555 0.00102877050983784 0.0012480331690686 0.000557622717172225
"135" 0.00121049049191817 0.000649785244351618 0.00110191421212891 -0.000130157967529102 0.000174923811322011 0.000409159938707753 0.000160028185487521 -0.00040031277437162 0.000565281422710498 0.000461051429124753 0.000285053564245888 -0.000241668785419091 0.000798637085988879 0.00100187775243689 0.00125097680061789 0.000572192442049531
"136" 0.00119341583275004 0.000658361928156617 0.00110510528056049 -6.55752525625477e-05 0.000174816041717583 0.000423195843449588 0.000158574941756346 -0.000402250748518366 0.00057151271580447 0.000476811520459384 0.000313905706162735 -0.000218667486475285 0.000822441662756756 0.000970574283651339 0.00125053043153715 0.000585451498175179
"137" 0.00117582669260081 0.000668190585293159 0.00110735853608143 -1.76585682485563e-06 0.000177030032030154 0.000434187883737022 0.000158614651460529 -0.000402154844516685 0.000575097111903471 0.000490086179030091 0.000343488606032281 -0.000194072144996624 0.000845281646300683 0.000935209039674464 0.00124664787108726 0.000597247124356451
"138" 0.00115739811155037 0.000679164402507261 0.0011085637668865 6.11883568064327e-05 0.000181457013766243 0.000442375983739696 0.000160030429118498 -0.000399995973247402 0.000576066294803507 0.000500784171301511 0.000373512342162761 -0.000168060933969611 0.000866879825652627 0.000896127955161876 0.0012392860989052 0.000607441779543208
"139" 0.0011378167474416 0.000691173576335074 0.00110861753176551 0.000123211231742014 0.000187973307736641 0.000448022194289219 0.000162681412572812 -0.000395766071331531 0.000574457411106955 0.00050881811721128 0.000403681123929109 -0.000140833666511309 0.00088696747420089 0.000853689907759247 0.00122843054155531 0.000615901806770051
"140" 0.00111679848228228 0.000704117152337574 0.00110744466366171 0.000184244775118847 0.000196452706183809 0.000451405709826754 0.000166422408170224 -0.000389463760986282 0.000570292181256736 0.000514104661535228 0.00043368490706647 -0.000112598984243556 0.000905274265094054 0.000808247590584683 0.00121408426323619 0.000622502435909532
"141" 0.00109409976041015 0.000717895413919154 0.00110498270954653 0.000244237680551325 0.000206760327447126 0.000452829328059827 0.000171106627998984 -0.000381093943537699 0.000563600294621077 0.000516569110218737 0.000463213637823357 -8.35744068083046e-05 0.000921546723973971 0.000760153913084443 0.00119626937974251 0.000627136937037278
"142" 0.00106949446551364 0.000732417553775119 0.00110118497964908 0.000303150415924737 0.000218747434627204 0.000452605060808112 0.000176573961257457 -0.000370679307178902 0.000554398682223142 0.000516144795899573 0.000491955755141303 -5.39884935461875e-05 0.000935539936254343 0.000709754708849023 0.00117502592064736 0.000629711310947282
"143" 0.00104280413318851 0.000747597737919686 0.00109603507417861 0.000360953457245924 0.000232271391554873 0.000451052560743614 0.000182661251652844 -0.000358244374986212 0.000542699927489195 0.000512772599658412 0.000519606578547355 -2.40747185791775e-05 0.000947024753010817 0.000657380547585049 0.0011504189419029 0.000630147022574211
"144" 0.00101389837986038 0.000763352743943585 0.00108952901832647 0.000417624830707473 0.000247174794889309 0.000448499064146735 0.000189211199833133 -0.000343825486725955 0.000528513736888477 0.000506405047719731 0.000545865556462031 5.92752501977097e-06 0.000955793176188842 0.000603349609375651 0.00112253296146682 0.00062838348770891
"145" 0.000982680684562453 0.00077961323502854 0.00108167658318155 0.00047314918723292 0.000263305649675163 0.000445271469567457 0.000196053908193622 -0.000327466377060678 0.000511853834419957 0.000497011971936788 0.000570452848338613 3.57813530157742e-05 0.00096165828130239 0.000547967755385387 0.00109146836777176 0.000624378483422058
"146" 0.000949102599120382 0.000796312436334615 0.00107251336123264 0.000527521901645713 0.000280501705037221 0.000441695675999333 0.000203036809627011 -0.000309222563616464 0.000492725871527848 0.000484578588258766 0.000593088813023068 6.52416072387088e-05 0.000964458365208053 0.000491511783543933 0.00105734603153597 0.000618109116303352
"147" 0.000913163491659668 0.000813388993892835 0.00106208620640251 0.000580740300982125 0.00029860383323073 0.000438086403666347 0.000209998218571328 -0.000289157399714365 0.000471124593353149 0.000469102210019321 0.000613533385560315 9.40771151752108e-05 0.000964058035926739 0.000434247482286725 0.00102031369621004 0.000609568385378354
"148" 0.000874911291724938 0.000830795732791151 0.00105045350433623 0.000632807186117376 0.000317448813447695 0.000434752305607447 0.000216783426669204 -0.000267333337982946 0.000447062109863454 0.0004505995215793 0.000631553784968918 0.000122053930465136 0.000960348287511128 0.000376411838000752 0.000980525449149287 0.000598774872897434
"149" 0.00083443063203778 0.000848485723290952 0.00103768263032693 0.000683730501530488 0.000336873580364926 0.000431982113441875 0.000223254098254183 -0.000243833025303619 0.000420527747441859 0.000429107680088858 0.000646949333791641 0.00014895018537045 0.000953251306847799 0.000318226022074195 0.000938154402576229 0.000585757480390555
"150" 0.000791859368231131 0.000866422330692662 0.00102385999744186 0.000733521452073142 0.000356715179238862 0.000430054964890789 0.000229267566935998 -0.000218735936493181 0.000391530274755927 0.000404679748725657 0.000659547530716761 0.000174550015276394 0.000942719419811942 0.000259877249733722 0.000893394824835607 0.000570574439100256
"151" 0.000747362121875561 0.000884572659066547 0.00100906997831785 0.000782192743126931 0.000376810072933035 0.000429223636957428 0.000234696213550499 -0.000192132562416473 0.00036005748503566 0.000377396132907664 0.000669200933720125 0.000198651892511479 0.000928733403991354 0.000201540199489052 0.000846443169031234 0.000553291567131406
"152" 0.000701143982037098 0.000902915004500126 0.000993397270202876 0.000829759538119569 0.000396998746407617 0.000429721649454072 0.000239424039938248 -0.000164123931821299 0.000326114634819272 0.000347346085420213 0.000675802546429967 0.000221071064810639 0.000911303910699924 0.000143353443676036 0.000797515456782337 0.000533995852181973
"153" 0.000653455367658177 0.000921430473310897 0.000976942223400628 0.000876233346825163 0.000417120687482765 0.00043175670252885 0.000243338495103048 -0.00013480872443967 0.000289699511569404 0.000314647190642077 0.000679269317970423 0.000241631649696102 0.000890473797910942 8.54409730585448e-05 0.000746830576560195 0.000512789568520821
"154" 0.000604562769719302 0.00094011021151859 0.000959797010806698 0.000921628788041887 0.000437019518879557 0.000435510567214217 0.000246345869586183 -0.000104300355561138 0.000250808675241025 0.000279430546154434 0.000679556199400801 0.00026018082801746 0.000866313824030994 2.79032684702191e-05 0.000694618311887069 0.000489784919642577
"155" 0.00055476018227526 0.000958943584747492 0.000942043765658776 0.000965955595111399 0.000456538390333045 0.000441134598857149 0.000248366911641296 -7.27092331065411e-05 0.000209447807132168 0.000241857656810114 0.000676652460520044 0.000276582834307641 0.000838923209374486 -2.91888200496562e-05 0.000641111176477803 0.000465113425245319
"156" 0.000504364622193815 0.000977931033843574 0.000923775126189832 0.00100922332801529 0.000475531915721504 0.000448755475306502 0.000249331642134931 -4.01533706259882e-05 0.000165622569826479 0.000202096585140096 0.00067057962363923 0.000290722810893387 0.000808426269384251 -8.57667512940627e-05 0.000586548158680797 0.000438913012513028
"157" 0.000453709209434567 0.000997075894639807 0.000905071858802185 0.00105143833946698 0.000493854939683367 0.000458461821204662 0.000249180732566239 -6.7606424419979e-06 0.000119326947948294 0.000160333023082312 0.000661392986852023 0.000302505500358855 0.000774970993326562 -0.000141807577798749 0.000531163839876766 0.000411328730909067
"158" 0.000403130530473426 0.00101638460481787 0.00088600320080371 0.00109260066885047 0.000511362925440599 0.000470321548184089 0.000247874973280357 2.73456150814004e-05 7.05837179610111e-05 0.00011677893599948 0.000649178496062175 0.000311857669951533 0.000738730885471874 -0.000197281126742194 0.000475198542261043 0.000382518080002468
"159" 0.000352981129859825 0.00103586572642618 0.00086663749580401 0.00113270464366338 0.000527928435774901 0.000484363840837169 0.000245384508907356 6.20345561473572e-05 1.9399344000294e-05 7.16516259498438e-05 0.000634052496194721 0.000318728179990208 0.000699897445721955 -0.000252182997753505 0.000418881128405612 0.000352640622894571
"160" 0.000303610845933077 0.00105553345158338 0.000847036788451164 0.0011717428825002 0.000543423597185123 0.000500590195658812 0.000241698792181366 9.71736311470105e-05 -3.42192380988682e-05 2.51855752508458e-05 0.000616158664326513 0.000323091739717802 0.000658682756798883 -0.000306527637826486 0.000362445677658421 0.000321858180065867
"161" 0.000255362632068757 0.00107539765817955 0.00082724729031325 0.00120969626495805 0.000557727156964859 0.000518971463135799 0.000236816402956926 0.000132628961682506 -9.02421422972992e-05 -2.23761441308346e-05 0.000595670312324955 0.000324939857838494 0.000615309961165875 -0.000360332485073587 0.000306110299744905 0.000290342739783462
"162" 0.000208575101262946 0.00109547109556203 0.000807307264433284 0.00124654619899428 0.000570731837556707 0.000539452619540666 0.000230754887016111 0.000168269259630087 -0.000148661968950585 -7.07809823844718e-05 0.000572783747705037 0.00032428444316345 0.00057002252449431 -0.000413632900680754 0.000250094638157332 0.000258258639816077
"163" 0.00016358493984579 0.00111577074907664 0.000787260979773643 0.00128226236641271 0.00058234389571258 0.000561946107316629 0.000223542242595577 0.000203957175987288 -0.000209450267949302 -0.000119767469143282 0.000547715935015949 0.000321169787863291 0.000523068448337109 -0.000466476881595588 0.000194600045675089 0.000225774161614069
"164" 0.000120705103491298 0.00113630401377151 0.000767136095511701 0.00131680608472414 0.000592467579047478 0.000586341048506933 0.000215220587183731 0.000239561836464444 -0.000272580943203468 -0.00016907492144067 0.000520699370234317 0.000315642855174347 0.000474709184404988 -0.000518910079927802 0.000139829151987304 0.000193055391008333
"165" 8.02249719771069e-05 0.00115708045095917 0.000746951489169735 0.0013501331983388 0.000601026804114878 0.00061250266014428 0.000205843314760171 0.000274952112664903 -0.000338037512873734 -0.000218437789745212 0.000491989086366696 0.000307784561661501 0.000425206564780964 -0.000570997556038669 8.59564536852884e-05 0.000160261104938949
"166" 4.24291039724242e-05 0.0011781056238191 0.000726730581343978 0.00138219483662936 0.000607960644067561 0.000640274641236531 0.000195477677401664 0.000310000632566374 -0.000405788387225643 -0.00026759687159833 0.000461842227276786 0.000297684511882055 0.000374828198637163 -0.000622801846056481 3.31571280706079e-05 0.000127551651690258
"167" 7.57156376922027e-06 0.00119938155826333 0.000706493063825997 0.00141293105711099 0.000613215179026103 0.000669480005340422 0.000184203464540517 0.000344585567452515 -0.000475797053908555 -0.00031628822128874 0.000430537748366063 0.000285448794237384 0.000323847385543782 -0.000674395597211695 -1.84109875777387e-05 9.5078928757503e-05
"168" -2.411843984577e-05 0.00122089955799505 0.000686263723636025 0.00144227782826263 0.000616748990870983 0.000699926277822821 0.000172105743341557 0.000378585364949819 -0.000548048944723942 -0.000364268197542959 0.000398351098801972 0.000271204825847712 0.000272528251312858 -0.000725858086162865 -6.86022123987409e-05 6.29907297679662e-05
"169" -5.24372426953179e-05 0.00124265011861129 0.00066605986273889 0.00147016209548284 0.000618539314180425 0.000731410279029992 0.000159284596048266 0.000411892258344549 -0.000622510448271929 -0.000411295144177851 0.000365559281099215 0.000255085912747198 0.000221132628713507 -0.000777261162206559 -0.000117291372314427 3.14216616478481e-05
"170" -7.72082892780665e-05 0.00126461626413321 0.000645912963971369 0.00149650961097461 0.000618580910794035 0.000763710446776998 0.000145841272964473 0.000444399491366264 -0.000699151189387675 -0.000457142518981846 0.000332443601608461 0.000237235678271238 0.000169924346718644 -0.000828687465617458 -0.000164363229558971 5.05178004793375e-07
"171" -9.82949243536702e-05 0.00128676938278784 0.000625851141634932 0.00152123907875625 0.000616871322669226 0.000796608756070514 0.000131891424289983 0.00047600994988053 -0.000777944327233682 -0.000501599402425215 0.000299279583790699 0.000217809156917416 0.000119148296884205 -0.000880217451276512 -0.000209718537523864 -2.96369405621266e-05
"172" -0.000115577667077191 0.00130907522207664 0.000605918630737072 0.00154426949476131 0.000613433665894787 0.000829878492313146 0.000117550791260673 0.000506637506019837 -0.000858858419661032 -0.000544475801054445 0.000266331943645777 0.000196970868580696 6.90426676305311e-05 -0.000931932368504465 -0.000253274838545399 -5.88945816334065e-05
"173" -0.000128979638833954 0.00133149245878114 0.000586167251423125 0.00156551660514697 0.000608301659758505 0.000863293175258847 0.000102939260674387 0.00053620133021571 -0.000941861876240189 -0.00058560635845128 0.000233856671811128 0.000174886955838902 1.98403608504943e-05 -0.000983904629476621 -0.00029496251835633 -8.716293357087e-05
"174" -0.000138451431451226 0.0013539654328066 0.000566652016858342 0.00158489411478969 0.000601524115380985 0.000896633867622144 8.81817111485502e-05 0.00056463478684752 -0.00102691451807128 -0.000624836796154189 0.000202094742739602 0.000151728966427652 -2.82520758405547e-05 -0.00103620650869726 -0.00033472718895968 -0.000114351543110758
"175" -0.000143982680158102 0.00137643602101007 0.000547445897476209 0.00160232192774874 0.000593167934392423 0.000929686240233799 7.34048145261855e-05 0.000591879100220502 -0.00111397183111894 -0.000662046651053936 0.000171274399834695 0.000127670371652077 -7.50324908048882e-05 -0.00108890279787092 -0.000372531385398725 -0.000140383277320673
"176" -0.000145595175450235 0.00139883766491187 0.000528636735766181 0.00161772299276475 0.000583304969908353 0.000962250487264572 5.87279964980479e-05 0.000617888495146155 -0.00120297351523816 -0.000697135828869661 0.000141602865040391 0.000102881966612345 -0.000120322152099151 -0.00114204269354828 -0.000408345860834988 -0.000165182790952815
"177" -0.000143349672726129 0.001421092509024 0.000510310695910403 0.00163102314674637 0.000572030966246385 0.000994134660624119 4.4277424535103e-05 0.000642629226470842 -0.00129386427300679 -0.000730037477139991 0.000113263952691267 7.75378812725594e-05 -0.000163958846680972 -0.00119567682496917 -0.000442165250637082 -0.000188701350592737
"178" -0.000137338776419292 0.00144311963832004 0.000492573598903966 0.00164215922686165 0.000559447338163186 0.00102517489508864 3.01737381230925e-05 0.000666076640936573 -0.00138653951976459 -0.000760698599398777 8.64165351633466e-05 5.18059731532325e-05 -0.000205806116829024 -0.00124981974063155 -0.000473986336870794 -0.00021088819016921
"179" -0.000127697211998952 0.00146483193677787 0.000475539633270822 0.00165107822712768 0.000545673687202741 0.00105522338677902 1.65322817458238e-05 0.000688223866022961 -0.0014808992499793 -0.000789102583968682 6.12007932168967e-05 2.58537356062524e-05 -0.000245737135120898 -0.00130447514744215 -0.00050381841425242 -0.000231716503572119
"180" -0.000114593408693491 0.00148613709041918 0.000459326629059768 0.00165773902695299 0.000530830126469907 0.00108415334077435 3.45579876741016e-06 0.000709066216418185 -0.00157681424986388 -0.000815252769645612 3.7726254375821e-05 -1.58411305086084e-07 -0.000283656798726954 -0.00135962958215868 -0.000531691356023196 -0.000251169363425654
"181" -9.8241656363199e-05 0.00150694012474535 0.000444063673793685 0.0016621131703683 0.000515058437957097 0.00111186874182443 -8.94783188719451e-06 0.000728620254445944 -0.00167411411763189 -0.000839175839257815 1.60749369401228e-05 -2.60738845703598e-05 -0.000319493383668592 -0.00141523627909381 -0.00055763545299005 -0.000269238458584478
"182" -7.88771783720779e-05 0.0015271468775933 0.000429884017297026 0.00166419026673782 0.000498497256655246 0.00113830097525276 -2.05889027963729e-05 0.000746909859649407 -0.00177260661311074 -0.00086092039743261 -3.70127966402798e-06 -5.17459001856637e-05 -0.000353194667786518 -0.00147121911503849 -0.000581692525075845 -0.000285932298938923
"183" -5.6783828561909e-05 0.00154666233726751 0.00041692040951534 0.00166397301860621 0.000481300299350121 0.00116341034912884 -3.13839818761729e-05 0.000763965976492197 -0.00187204902390597 -0.000880554210107102 -2.15749127165063e-05 -7.70337638571299e-05 -0.000384731935035966 -0.00152747337527509 -0.000603913325859948 -0.000301270972105945
"184" -3.22718764630012e-05 0.00156539700706536 0.000405307473353201 0.00166149186360406 0.00046362624590287 0.00118718457758028 -4.12571622389704e-05 0.000779836137100723 -0.00197216956267755 -0.000898166027322208 -3.75548038696064e-05 -0.000101803439550211 -0.000414106652158735 -0.0015838528664285 -0.000624358411608505 -0.000315289264686527
"185" -5.69783152703363e-06 0.00158325792441564 0.000395173400711812 0.00165678704884624 0.00044563265903697 0.00120964511004043 -5.01486568872011e-05 0.000794572786564245 -0.00207264467874032 -0.000913853827714297 -5.16644367830962e-05 -0.000125928441253829 -0.000441331270881389 -0.00164018484318075 -0.000643089838964238 -0.000328030919826634
"186" 2.25665094694158e-05 0.0016001675991172 0.000386646811786123 0.00164992514492155 0.000427482512061884 0.00123084554050467 -5.8006824586531e-05 0.000808242788160165 -0.00217311446938958 -0.000927731250768028 -6.39678304138642e-05 -0.000149296970650886 -0.000466454958516981 -0.00169625528484673 -0.000660175548594879 -0.000339552202669179
"187" 5.21091609981136e-05 0.00161605046060642 0.000379843489154496 0.00164099475649074 0.000409340315851112 0.00125086734568725 -6.47971728892198e-05 0.000820916959760752 -0.00227316876056892 -0.000939925659115693 -7.45456544751291e-05 -0.000171797806334408 -0.00048953674446177 -0.0017518124458986 -0.000675689129789189 -0.000349921383689404
"188" 8.25008627906247e-05 0.00163083908786165 0.000374873384716206 0.00163010187217169 0.00039136819772985 0.00126981785466856 -7.04918641413971e-05 0.000832670280420735 -0.00237235827857422 -0.000950564913698175 -8.35090146775269e-05 -0.000193336415123484 -0.00051066613107403 -0.00180657440809325 -0.00068971028854423 -0.000359212600850007
"189" 0.000113279919959568 0.00164447946662677 0.000371834611364526 0.0016173749049778 0.000373726089022357 0.00128783595525689 -7.50794232673525e-05 0.00084359007454519 -0.00247019364092726 -0.000959783088451211 -9.09818376911321e-05 -0.000213826045179699 -0.00052994250156475 -0.00186022928369812 -0.00070231534103267 -0.000367508676831526
"190" 0.000143977507933088 0.00165692913990259 0.000370803999429619 0.00160296653683101 0.000356570600665066 0.00130508017830552 -7.85620337849543e-05 0.000853763813676324 -0.00256615359005038 -0.000967721045669076 -9.71143583443807e-05 -0.000233185312695902 -0.000547483501418597 -0.00191243673199405 -0.000713587062768382 -0.000374900871087285
"191" 0.000174114363312325 0.00166815253356847 0.000371854048558405 0.0015870457773119 0.000340044370329117 0.00132173589008843 -8.09489662909376e-05 0.000863283195960622 -0.00265968223256986 -0.000974513534583734 -0.000102059318611311 -0.000251349486091365 -0.00056341871901441 -0.00196283719816954 -0.000723608262418503 -0.000381481297714233
"192" 0.000203189934297657 0.00167813342487147 0.000375028779630157 0.00156979894683286 0.000324294390877239 0.00133799797906262 -8.22692824053108e-05 0.000872243928129997 -0.00275020083440609 -0.000980297917343752 -0.000105993386493052 -0.000268260000361576 -0.000577894700031336 -0.00201105828216247 -0.000732465686533512 -0.000387347349749296
"193" 0.000230719417608537 0.0016868622354324 0.000380363244105669 0.00155143289522633 0.000309447621487552 0.00135408042398995 -8.25558259461759e-05 0.000880741889102972 -0.00283712279146039 -0.000985199989629136 -0.000109094155438628 -0.000283864385253469 -0.000591057615795032 -0.00205671890822439 -0.000740238393793595 -0.000392595500290829
"194" 0.000256217475583375 0.00169434669164053 0.000387869750544641 0.00153216640224537 0.000295625926439799 0.00137020799228325 -8.18605043535006e-05 0.000888873763760584 -0.00291984934439259 -0.000989348830095337 -0.000111542039189223 -0.000298126743885773 -0.000603067055428768 -0.00209944395194385 -0.000747016271870446 -0.000397318853851563
"195" 0.000279211534566687 0.00170060813661883 0.000397538623454707 0.00151223336045228 0.000282933830345394 0.00138660618139354 -8.02447026740745e-05 0.00089673071136996 -0.00299778673065578 -0.00099285398697928 -0.000113515266991507 -0.000311020545305766 -0.000614068843717297 -0.00213887063307322 -0.000752882051613632 -0.000401608567854053
"196" 0.0002992388147313 0.00170567335965528 0.000409335449457868 0.00149188145751666 0.000271459828855869 0.00140350529288686 -7.77691367891836e-05 0.000904408998627568 -0.00307036739487401 -0.000995829178586609 -0.000115187855821311 -0.000322521313485923 -0.000624225841124138 -0.0021746593559257 -0.00075792001922151 -0.000405551207295575
"197" 0.000315871307989818 0.00170958540194274 0.000423209877363888 0.0014713610335146 0.000261285374223169 0.00142113117926931 -7.45169915038729e-05 0.000911992132877296 -0.00313703157314282 -0.000998366288236457 -0.000116725583937891 -0.000332615879362266 -0.000633683020772618 -0.00220649305526128 -0.000762213842943779 -0.000409224579059347
"198" 0.000328720765025414 0.00171239825065144 0.000439089985064388 0.00145093143228133 0.000252462826073347 0.00143969723409447 -7.05723003840175e-05 0.000919568293542184 -0.00319725490600298 -0.00100054988358574 -0.000118283484026773 -0.000341309174195786 -0.000642578684187528 -0.00223410336644489 -0.000765843079047722 -0.000412693660948371
"199" 0.000337407773935455 0.00171417256594016 0.000456873312937162 0.00143085844970717 0.000245035519588403 0.00145941181647424 -6.60257213873184e-05 0.000927211033735002 -0.00325057491438804 -0.0010024610404498 -0.000119991283639276 -0.000348602720643505 -0.000651045056494944 -0.00225726888532303 -0.000768896768297643 -0.000416017762434589
"200" 0.000341628231937922 0.00171497708213965 0.000476433728893746 0.00141140644137361 0.000239023986898412 0.0014804598523341 -6.09780254118408e-05 0.000934995527044334 -0.00329656641298705 -0.00100415491254517 -0.000121968775657632 -0.000354510323997306 -0.000659199495585188 -0.00227581830168506 -0.000771450886227104 -0.000419239794413798
"201" 0.000341107214039604 0.00171489102382056 0.000497629629789251 0.00139284000968906 0.000234426130270814 0.00150300750123629 -5.55259180103497e-05 0.000942979874883552 -0.00333486604492878 -0.00100568938864369 -0.000124314934249948 -0.000359056807470713 -0.000667143798973961 -0.0022896405138047 -0.000773585178234128 -0.000422395097208045
"202" 0.000335626706944582 0.00171399266483261 0.000520281799481683 0.00137541420349358 0.000231224877813615 0.00152719855806765 -4.97772119199438e-05 0.000951221925827005 -0.00336517874094977 -0.00100710084693699 -0.000127100454888028 -0.000362265631366587 -0.000674964110196222 -0.00229868616164246 -0.000775380118060141 -0.000425497967881416
"203" 0.000325028691015267 0.00171236850560626 0.000544188232384771 0.0013593859865044 0.000229379687367578 0.00155314928464442 -4.38456202533692e-05 0.000959765250569204 -0.00338728331287323 -0.00100842405399451 -0.000130377157495804 -0.000364176832266825 -0.000682734522188274 -0.00230297900695328 -0.000776913790562704 -0.000428558890002606
"204" 0.000309209970241972 0.0017101069002773 0.000569123785458973 0.00134499698677865 0.000228834765241513 0.00158094600792838 -3.78350141139624e-05 0.000968646420881699 -0.00340102841200814 -0.00100968046811154 -0.000134171819151059 -0.000364825102468065 -0.000690506461198385 -0.00230259460655845 -0.000778255242078299 -0.000431568287254996
"205" 0.000288137415293883 0.00170729717432776 0.000594833624089333 0.00133247630168495 0.000229507225102255 0.00161064115077222 -3.1859404656877e-05 0.00097789239402528 -0.00340632654572524 -0.00101087879202599 -0.000138497461607909 -0.000364258289909124 -0.000698316384406011 -0.00229767435906253 -0.000779481087799209 -0.000434507876783398
"206" 0.000261831824640547 0.00170402812066749 0.000621028574141488 0.00132204186759291 0.000231302880910443 0.00164225374127877 -2.60287958750099e-05 0.000987514824192098 -0.00340318638128801 -0.00101203119910057 -0.0001433334204502 -0.000362523380605795 -0.000706187277433818 -0.00228842805800309 -0.000780658477204204 -0.000437347510657981
"207" 0.000230371915324026 0.00170038782003153 0.000647399214413526 0.00131389589779723 0.000234104424965563 0.00167576876687656 -2.04533392781504e-05 0.000997518200708498 -0.00339167497922664 -0.0010131334585223 -0.000148646182701599 -0.000359674753828661 -0.000714124614318529 -0.00227510542916071 -0.000781855589405523 -0.000440050207350182
"208" 0.000193916538674497 0.00169645989736263 0.000673602923574528 0.00130821686420148 0.00023777979679256 0.00171113625826402 -1.52395440971189e-05 0.00100789670008927 -0.00337193460526814 -0.00101418354015515 -0.000154391599998995 -0.000355763665497908 -0.000722127988988182 -0.00225800627316798 -0.000783132477937306 -0.000442569359173699
"209" 0.00015267503140794 0.00169232746871735 0.000699270120797445 0.00130516578211532 0.000242187204658222 0.00174826997583456 -1.04916097624486e-05 0.00101863352296537 -0.00334416664182149 -0.00101517133037076 -0.000160501009432908 -0.000350848230813165 -0.000730173750982679 -0.00223746932440193 -0.000784544523489262 -0.000444853499391419
"210" 0.000106914406625734 0.00168806836452463 0.000724004816121206 0.0013048803470845 0.00024715991541289 0.00178704158647822 -6.30764585462769e-06 0.00102969265527742 -0.00330863716874595 -0.00101608434162399 -0.000166904562356889 -0.00034498208116621 -0.000738235909063353 -0.00221385818033412 -0.000786144202809774 -0.000446846325314382
"211" 5.69543660192696e-05 0.00168374968025039 0.00074738720666823 0.00130747143993497 0.000252532636335136 0.00182729018424175 -2.78303075894218e-06 0.00104103638140766 -0.00326566467927591 -0.0010169082141722 -0.000173516983511458 -0.000338224754518025 -0.000746283101356429 -0.0021875585514064 -0.000787981677012612 -0.000448491215033836
"212" 3.17591300966266e-06 0.00167944089342102 0.000768969111117182 0.00131302800238565 0.000258120195934799 0.00186882243873487 -1.01150688115726e-08 0.00105260752572692 -0.00321561062755223 -0.0010176302354944 -0.000180256142345708 -0.000330629455911564 -0.000754271430318047 -0.0021589658977498 -0.00079009197489342 -0.000449731165875637
"213" -5.39961155217666e-05 0.00167519813980727 0.000788290999934077 0.00132160534004107 0.000263739138100242 0.00191140274183628 1.93545186365694e-06 0.00106434749054669 -0.00315887970344966 -0.00101823193652841 -0.000187030371063499 -0.000322251223128057 -0.000762161675883654 -0.00212846978830779 -0.000792508222152201 -0.000450512069601739
"214" -0.000114098691820616 0.0016710695955604 0.00080487145924743 0.00133323075553517 0.000269194126110604 0.00195476835422096 2.97827411456506e-06 0.00107617700290249 -0.00309590787048918 -0.0010186999405502 -0.00019375267966861 -0.000313144912173731 -0.000769902015497557 -0.00209645734959717 -0.000795256769134717 -0.000450783741141232
"215" -0.000176636186849932 0.00166710076382573 0.000818221090817357 0.00134790335508422 0.000274287837628129 0.00199862160962561 3.04927421935794e-06 0.00108801009431716 -0.00302714363140088 -0.00101901240175271 -0.000200342437777357 -0.000303359145840811 -0.000777452042791909 -0.00206328973960837 -0.000798353447406252 -0.00045050175725919
"216" -0.00024106527006867 0.00166332168714154 0.000827848900466036 0.00136558865190007 0.000278827106311164 0.00204263439350415 2.09539198675028e-06 0.00109975269972868 -0.00295306084004744 -0.00101915547041051 -0.000206716591034869 -0.000292944009023739 -0.000784761778860033 -0.00202930710539625 -0.000801799570982615 -0.000449623816682168
"217" -0.000306824592970507 0.00165975506565425 0.000833262688659224 0.00138621534806485 0.000282622051091981 0.00208645243163293 7.22379865366565e-08 0.00111129787879765 -0.00287413888124061 -0.00101910983497918 -0.000212808349752719 -0.000281942065540348 -0.000791790340936651 -0.00199481137905136 -0.000805596428168355 -0.000448122205054934
"218" -0.000373336566620231 0.00165641616998503 0.000833976084981093 0.00140968473722221 0.000285479772905776 0.0021296917267076 -3.05313231476816e-06 0.00112253195986185 -0.00279084762660502 -0.00101884981699295 -0.000218557652915392 -0.000270400154101024 -0.000798493941295753 -0.00196006258965657 -0.000809729885364063 -0.000445972198645202
"219" -0.000440005777229858 0.00165330840023934 0.000829519140864858 0.00143586270622686 0.000287220069499428 0.00217194766303329 -7.30575062194362e-06 0.0011333269410173 -0.00270366613978686 -0.00101835945910912 -0.000223907820670542 -0.000258354889457325 -0.000804837839113441 -0.00192528253545537 -0.000814176733415846 -0.000443160585456737
"220" -0.000506226849601768 0.00165041802291899 0.000819452492256028 0.00146457205929076 0.000287674144660876 0.00221280270906449 -1.26953479329859e-05 0.00114355890106416 -0.00261303501979157 -0.00101760858719042 -0.000228819798486247 -0.000245843835999659 -0.000810784497623669 -0.00189063782188699 -0.000818898393034504 -0.000439681855179819
"221" -0.000571399335327454 0.00164772886246857 0.000803367654049245 0.00149561423300153 0.000286680983178088 0.00225181061825869 -1.92147491955779e-05 0.00115308423147306 -0.0025194013859496 -0.00101656654694926 -0.000233261935045772 -0.000232901418910609 -0.000816305784867118 -0.00185624947937365 -0.000823851695237363 -0.000435536032132092
"222" -0.000634899828163722 0.00164521024715764 0.000780899626087905 0.00152874142329433 0.000284100859464654 0.00228851974506692 -2.68464313191396e-05 0.00116176809019344 -0.00242315852799946 -0.00101519940505896 -0.000237212910622112 -0.000219562602524468 -0.000821371955769761 -0.00182217777476012 -0.000828974305207883 -0.000430737947432207
"223" -0.00069614641594019 0.00164282052565132 0.000751732063527545 0.00156368122362478 0.000279805063095307 0.00232247370174302 -3.55619750186821e-05 0.00116945983838498 -0.00232469342695314 -0.0010134654484097 -0.000240665845471837 -0.000205855300418257 -0.000825954864617681 -0.00178844339671217 -0.000834198747602261 -0.000425302464535974
"224" -0.000754543102164242 0.00164049985027831 0.000715609406308478 0.00160012288401446 0.000273686831249111 0.00235320673465297 -4.53087269455793e-05 0.00117601290979961 -0.00222434294517676 -0.0010113169032296 -0.000243612493504716 -0.000191809038823912 -0.000830031197580841 -0.00175501282371006 -0.000839442965491725 -0.000419255350404663
"225" -0.000809521341174086 0.00163818528072581 0.000672341966083131 0.00163772336269507 0.000265658731359709 0.00238025646120424 -5.60297124231673e-05 0.00118127695124344 -0.0021224273299502 -0.00100870530806004 -0.000246066636535043 -0.000177448699475381 -0.000833577191522477 -0.00172180730576545 -0.000844613925154261 -0.000412628063926112
"226" -0.000860528811107031 0.00163579876348741 0.000621816201382411 0.001676109339529 0.000255657406223772 0.00240316711706436 -6.76487539719741e-05 0.00118510372022863 -0.0020192119097305 -0.00100556574788488 -0.000248035210523002 -0.00016280411269279 -0.000836566737248499 -0.00168870821232252 -0.000849607002806599 -0.000405450962717829
"227" -0.000907048834926059 0.00163324395513119 0.000563988685257373 0.00171487888890343 0.000243638269968178 0.00242149522860382 -8.00735859310172e-05 0.00118734774594174 -0.0019149481303701 -0.0010018359098128 -0.000249539959898788 -0.000147899211181213 -0.000838977479241071 -0.00165556763939466 -0.000854312610926043 -0.000397761981624499
"228" -0.000948580917164984 0.00163041487201193 0.000498916314154477 0.00175359581321543 0.000229585946591128 0.00243481899152222 -9.32074041091965e-05 0.00118786531747819 -0.00180983341936065 -0.000997446325759307 -0.000250600697693129 -0.000132763343847658 -0.00084078002396724 -0.00162220252328159 -0.000858602284540259 -0.000389598465448556
"229" -0.00098466875855972 0.00162719801411365 0.000426730553091246 0.00179180697499918 0.00021350646705871 0.00244273314110516 -0.00010693170924349 0.00118652202930134 -0.00170405654917769 -0.000992321265324628 -0.000251245690164907 -0.000117424203327747 -0.000841939585305712 -0.00158841721157623 -0.000862350169196179 -0.000380996648125965
"230" -0.00101488645438604 0.00162346313586874 0.000347652262858634 0.00182903861772314 0.00019543714646452 0.00244486570012347 -0.000121124741688012 0.00118318541629356 -0.0015977665488897 -0.000986387485765411 -0.000251501939892352 -0.000101912959168597 -0.000842428834526238 -0.00155399248682511 -0.00086541811765343 -0.000371994239110124
"231" -0.00103884755614677 0.00161906279796799 0.000261996278053556 0.00186479132002194 0.000175430345983755 0.00244088302486695 -0.000135643410105553 0.00117774073459335 -0.0014911078089251 -0.000979563430656859 -0.00025138862833566 -8.62581401536122e-05 -0.000842200298358495 -0.00151872604569836 -0.00086766174462616 -0.00036262359744233
"232" -0.00105621445036619 0.0016138490878798 0.000170159908369544 0.00189856489420898 0.000153571003862079 0.00243047999931021 -0.000150348597369694 0.00117007521404413 -0.00138420861133401 -0.000971773810944553 -0.000250936090676875 -7.04983887016624e-05 -0.000841213702029803 -0.00148241169765755 -0.000868936055338282 -0.000352914231372019
"233" -0.0010667002518408 0.00160765175977107 7.26240535302338e-05 0.00192984200248432 0.000129961860621038 0.00241341386738799 -0.000165086950694639 0.00116009553236623 -0.00127718999013748 -0.000962951067636862 -0.00025016431958306 -5.46741437321686e-05 -0.000839425956765704 -0.00144485490239148 -0.000869095094619143 -0.000342892556942004
"234" -0.00107006406976032 0.00160029866697437 -3.00560041194702e-05 0.00195811101379083 0.000104727362470958 0.00238947888268145 -0.000179705416015364 0.00114771861351417 -0.00117017633369973 -0.000953023884607429 -0.000249092993211133 -3.8823655231672e-05 -0.000836777651556474 -0.00140588717503125 -0.000867989667429888 -0.000332575924069458
"235" -0.00106612101430931 0.00159160647261749 -0.000137248947588949 0.00198285962890649 7.80177925806859e-05 0.00235852614422302 -0.000194042728769663 0.00113287898096615 -0.00106331559359436 -0.000941941182670982 -0.000247732488386411 -2.29945690772507e-05 -0.000833214588303455 -0.00136537412731451 -0.000865478239313462 -0.000321982459297697
"236" -0.00105474965695338 0.00158138347611569 -0.000248268590179462 0.00200358989181181 4.99883772274493e-05 0.00232046704721878 -0.000207939724757345 0.00111552434352438 -0.000956766700364281 -0.000929652314286622 -0.000246094710503954 -7.24089068718246e-06 -0.000828677433005107 -0.00132321115899286 -0.000861420184182043 -0.00031112207599275
"237" -0.00103587601759124 0.00156943389561834 -0.000362366591784425 0.00201982032518169 2.08235339271277e-05 0.00227527261556195 -0.000221238812741909 0.00109562397072007 -0.000850713386164721 -0.000916127866039068 -0.000244179648357191 8.38555976994788e-06 -0.000823105681502954 -0.00127934131603099 -0.000855682584530949 -0.000299994262954753
"238" -0.00100950888831402 0.0015555554007787 -0.00047876423788727 0.00203109596988748 -9.29053326296916e-06 0.00222297400133187 -0.000233789602950218 0.00107316096228655 -0.000745376101015794 -0.000901352063550464 -0.000241992588783227 2.38226849243572e-05 -0.000816435762225973 -0.001233749683155 -0.000848145663770626 -0.000288603374921016
"239" -0.000975719707834588 0.00153954893961186 -0.000596644519412625 0.00203699337719155 -4.01521236902448e-05 0.00216366871569109 -0.000245442858747093 0.00104813565649317 -0.000641003589662912 -0.000885325060028319 -0.000239522253817352 3.90069185333555e-05 -0.000808612388336177 -0.0011864557857095 -0.000838698394618526 -0.000276946300889241
"240" -0.000934637882947306 0.00152121574392454 -0.000715171791571529 0.00203712090869349 -7.15507770294645e-05 0.00209751509748815 -0.000256062467761749 0.00102057516241469 -0.000537891303799893 -0.000868062387221355 -0.000236759788452276 5.38696786459472e-05 -0.000799574733072516 -0.00113754545984701 -0.000827244100914222 -0.000265011990994612
"241" -0.000886481689442277 0.00150035940020498 -0.000833502995912043 0.00203114431256201 -0.000103281194003687 0.00202473220714581 -0.000265518241180327 0.000990511105804459 -0.000436375129939791 -0.00084960176863687 -0.000233691252574945 6.83384143127931e-05 -0.000789275798322477 -0.00108713324705641 -0.000813706760623618 -0.000252795988406049
"242" -0.00083152588843996 0.00147679148770285 -0.000950802490270702 0.00201876593729034 -0.000135130509273544 0.00194560507511231 -0.000273697185717114 0.00095800576583034 -0.000336816258804998 -0.000830000670065205 -0.00023029848132012 8.23371025008229e-05 -0.000777672047156394 -0.00103538147584827 -0.000798019734625208 -0.000240289827049527
"243" -0.000770120782396871 0.00145033217647695 -0.00106624476039378 0.00199975443849958 -0.000166886220707707 0.0018604702992841 -0.000280498402831842 0.000923135200208881 -0.000239635094175007 -0.000809331927863043 -0.000226560849755574 9.57863367950305e-05 -0.000764725606364695 -0.000982489617353377 -0.00078013995755274 -0.000227483704942417
"244" -0.000702703525594907 0.00142081751716867 -0.00117903490629888 0.0019739303322698 -0.00019834554024799 0.0017697272766963 -0.00028583910212987 0.00088599082378338 -0.000145265772488746 -0.000787688149720427 -0.000222458723282571 0.000108606227663659 -0.000750422272827689 -0.000928689268788914 -0.000760050371466667 -0.00021437624666177
"245" -0.000629757601209261 0.00138809776351188 -0.00128840588340169 0.00194118080187245 -0.000229306387651142 0.00167381723883448 -0.000289650592127919 0.000846681988308467 -5.41790212340495e-05 -0.000765176929170077 -0.000217973653994421 0.000120716100063627 -0.000734751449205487 -0.000874230998858075 -0.000737744030444235 -0.000200969759712973
"246" -0.00055185455390767 0.00135203877293352 -0.00139364224492024 0.00190145611918528 -0.000259580932969295 0.00157323388564779 -0.000291880154202063 0.000805332275478868 3.31379373724314e-05 -0.00074192156972759 -0.00021308158603354 0.000132030346627133 -0.000717722687224618 -0.000819390433742219 -0.000713245068181977 -0.000187267662154398
"247" -0.000469610068387172 0.00131253196167778 -0.00149407345562716 0.00185477481781989 -0.000288991196058355 0.00146850939205638 -0.000292503600714411 0.000762086400956898 0.000116176295072384 -0.000718059115568872 -0.000207769178410624 0.000142467735386326 -0.00069936574513952 -0.000764458533758412 -0.000686596288071353 -0.000173285700544695
"248" -0.000383710247995101 0.00126949080414461 -0.00158908679937401 0.00180121565505088 -0.000317364958844789 0.00136021431868437 -0.000291506789900361 0.000717091746850657 0.000194435284656905 -0.000693736207944244 -0.000202024616408099 0.000151950563871128 -0.000679724834982386 -0.000709712959215412 -0.000657865310486752 -0.000159048547345705
"249" -0.000294892593661595 0.00122284963306454 -0.00167813359432274 0.00174092476831568 -0.000344553826976596 0.00124894299587524 -0.00028889611407272 0.000670519655530405 0.000267396515742868 -0.000669113175658903 -0.000195835774385504 0.000160398210814422 -0.000658866484655465 -0.000655452267036223 -0.000627139752968557 -0.000144588440847985
"250" -0.00020393315838131 0.00117257482484204 -0.00176072718728745 0.00167411342106478 -0.000370414351479328 0.00113531722753184 -0.000284705868360446 0.000622544598658632 0.000334580671168037 -0.000644354137025508 -0.000189205361897256 0.000167739007459531 -0.000636876898720358 -0.00060193833938825 -0.000594530323804174 -0.000129951790561139
"251" -0.00011164001561754 0.00111866113527417 -0.00183645046756164 0.00160104535556755 -0.000394820759939465 0.0010199761305055 -0.000278971605646681 0.000573355460460187 0.000395512127841318 -0.000619623058636515 -0.000182138974952974 0.000173897084836662 -0.000613865811137638 -0.000549432623973101 -0.000560165970865662 -0.00011519107675551
"252" -1.88647849781488e-05 0.00106112463900413 -0.00190495072878876 0.00152204069920702 -0.000417667339534233 0.000903569935735698 -0.000271764413986192 0.000523152208781238 0.000449752955687131 -0.000595095932188114 -0.000174650661870862 0.000178812636490309 -0.000589961001771333 -0.000498164226055073 -0.000524194498265272 -0.000100375934624448
"253" 7.35410214708376e-05 0.00100001807535438 -0.00196594149269144 0.00143746944174599 -0.000438851816094105 0.000786751644868343 -0.000263160844042066 0.00047213557856283 0.000496899477317406 -0.000570941207603133 -0.000166765059302806 0.00018242354724413 -0.000565310841288464 -0.00044834444818579 -0.000486788255643874 -8.55831303180981e-05
"254" 0.000164713157932938 0.000935425972933566 -0.00201921161054922 0.00134774462307127 -0.000458295232925579 0.000670174069361411 -0.000253262194902092 0.000420520102704954 0.000536597698793264 -0.000547330581495424 -0.00015851637142488 0.000184673990744978 -0.000540084314751436 -0.000400145385828912 -0.000448126011711193 -7.09034502349834e-05
"255" 0.000253785409874745 0.000867450580390711 -0.00206460211312348 0.00125331639468119 -0.000475931419737451 0.000554486206381261 -0.00024217830886092 0.000368521097174081 0.000568534817505844 -0.000524427225283094 -0.00014994590315689 0.000185522559687065 -0.000514465531416576 -0.00035370514339709 -0.000408411670636409 -5.64401511494412e-05
"256" 0.000339914952385094 0.000796233895568011 -0.00210202725545366 0.00115467142381699 -0.000491705567056586 0.000440321059173924 -0.000230029599087596 0.000316357877832431 0.000592473424458631 -0.000502389748991196 -0.000141110963433897 0.000184928398373666 -0.000488659956568455 -0.000309132200023032 -0.000367853691049288 -4.23054210677211e-05
"257" 0.000422277947560394 0.000721941553845067 -0.0021314492396267 0.00105231400317309 -0.000505576606427769 0.000328294839233541 -0.000216957811950696 0.000264257181986781 0.000608221995908789 -0.000481371714566862 -0.000132078096466451 0.000182862245609007 -0.000462879226453665 -0.000266491941718122 -0.000326675235398732 -2.86173771550733e-05
"258" 0.000500089522259341 0.000644761322945615 -0.00215289412425475 0.000946774205969402 -0.000517519369598471 0.000219005867533788 -0.000203105989922208 0.000212435039072952 0.000615652309970962 -0.000461513832827738 -0.00012291909132093 0.000179298945019415 -0.000437355119040883 -0.000225820879729798 -0.000285104354640289 -1.550801012832e-05
"259" 0.000572600876360769 0.000564911560882957 -0.00216644054372815 0.000838596134011109 -0.000527513909063283 0.000113021903838333 -0.00018862941690511 0.000161120807856168 0.000614703757594901 -0.000442949391639609 -0.000113722875511682 0.000174227580290993 -0.000412325370046413 -0.000187120503890885 -0.000243384194079667 -3.11161091869022e-06
"260" 0.000639125940914844 0.00048262881701794 -0.0021722095987855 0.000728325028778174 -0.000535561337508556 1.08809546338953e-05 -0.000173691954589783 0.000110532647759723 0.000605377282602124 -0.00042579418945896 -0.000104579513111116 0.000167640113809654 -0.000388035534320278 -0.000150366779949772 -0.000201753606759506 8.42920098328899e-06
"261" 0.000699039471988667 0.000398171737178918 -0.00217037336679683 0.000616514819136978 -0.000541667337226221 -8.69113348003292e-05 -0.000158455922642073 6.08865317088034e-05 0.000587731720675744 -0.000410152847250413 -9.55920757127068e-05 0.000159539377540091 -0.000364729682609624 -0.000115507855443259 -0.000160460333309797 1.89721335789668e-05
"262" 0.000751782631257196 0.000311816915237684 -0.00216114025581827 0.000503710453748519 -0.000545849118910362 -0.000179887995576043 -0.000143098007229042 1.23953584777345e-05 0.000561891397222222 -0.000396116045116143 -8.68703714788989e-05 0.000149936572695935 -0.000342660681709374 -8.24705710387732e-05 -0.000119749433049659 2.83738650106868e-05
"263" 0.000796873895924765 0.000223860379723084 -0.00214475507186732 0.000390451731565185 -0.000548138135183507 -0.000267622336837888 -0.000127788383185866 -3.47372042490992e-05 0.000528013378674406 -0.000383757984268202 -7.85231224676594e-05 0.000138849332228278 -0.000322072726576934 -5.11801027880555e-05 -7.98708050401455e-05 3.64879055934575e-05
"264" 0.000833909023000133 0.000134602266301449 -0.002121505652844 0.000277264648657837 -0.000548577494443161 -0.000349727668667345 -0.000112701104534991 -8.03090451817747e-05 0.000486330001302067 -0.000373136443024818 -7.06653549546673e-05 0.000126300195763475 -0.000303206532453359 -2.15415190048369e-05 -4.10658842188435e-05 4.31774120661139e-05
"265" 0.000862574187823899 4.43608522021409e-05 -0.00209170455098311 0.000164658278522511 -0.000547214518098286 -0.000425863982394628 -9.80073852431857e-05 -0.000124137990816678 0.000437081504209971 -0.000364291389431716 -6.34126931216763e-05 0.000112323142189005 -0.000286288650561918 6.53003842304363e-06 -3.5746908022716e-06 4.83036184393088e-05
"266" 0.000882639344751025 -4.65379165143836e-05 -0.00205569502956243 5.31226778498503e-05 -0.000544115879540814 -0.000495739173299708 -8.38795116011787e-05 -0.000166046912866054 0.000380561993446569 -0.000357245744569445 -5.68774004389376e-05 9.69585000140392e-05 -0.00027154169208916 3.31176637979638e-05 3.23669928723063e-05 5.17396572052802e-05
"267" 0.000893967147580805 -0.000137766564575835 -0.00201384957642784 -5.68761924670749e-05 -0.00053935668157335 -0.000559101879159474 -7.04806788114985e-05 -0.000205867772453945 0.000317079907975324 -0.00035200807765571 -5.11726135433368e-05 8.02456634153325e-05 -0.00025917045710131 5.82850895501834e-05 6.65354062612274e-05 5.33662297646659e-05
"268" 0.000896501828890162 -0.00022899263118825 -0.00196656576442469 -0.000164897111245274 -0.000533019634855846 -0.000615758050164466 -5.79759675064816e-05 -0.000243453940527812 0.000246968200789082 -0.000348564162364688 -4.64014044187452e-05 6.22376922212554e-05 -0.000249359450949049 8.20829634567518e-05 9.87060661857521e-05 5.30761605682491e-05
"269" 0.000890284839950372 -0.000319883828550502 -0.00191426311929645 -0.000270528229698547 -0.000525208649667199 -0.000665555392068137 -4.65177340390136e-05 -0.000278669223506421 0.000170558655792424 -0.000346888391094387 -4.26615962538265e-05 4.29888051049712e-05 -0.000242271520489114 0.00010452472740808 0.000128673499171009 5.07734566780252e-05
"270" 0.000875442460849027 -0.00041011283085766 -0.00185738531942614 -0.000373385982389341 -0.000516027718927032 -0.00070839497142028 -3.62541057249162e-05 -0.000311392092954256 8.82042692098892e-05 -0.000346934381457487 -4.00362575935114e-05 2.25538867187957e-05 -0.000238050344189441 0.000125599434392779 0.000156235733654317 4.63781386542341e-05
"271" 0.000852176502185731 -0.000499350893216646 -0.00179639681161049 -0.000473119558865699 -0.000505598653001913 -0.000744224399666615 -2.73225329157577e-05 -0.000341517932352957 2.44145328386349e-07 -0.000348645235204409 -3.86018857024503e-05 1.00010955971548e-06 -0.00023681559629765 0.000145269126508452 0.000181210932003801 3.98264725289037e-05
"272" 0.000820773162180788 -0.000587288404577952 -0.00173178114879697 -0.00056941294239718 -0.000494056304238508 -0.000773037139344215 -1.98544340111353e-05 -0.000368959378556164 -9.2984775099214e-05 -0.000351945744993855 -3.84221174359346e-05 -2.16121193794849e-05 -0.000238653856523936 0.000163442352333072 0.000203423428818326 3.10687743954367e-05
"273" 0.000781595595048164 -0.000673610421358081 -0.00166403746559324 -0.000661974818150925 -0.000481543498168716 -0.000794878252112864 -1.39665739783663e-05 -0.000393652169506052 -0.000191149647149483 -0.000356751887870475 -3.95385835536867e-05 -4.52081102373908e-05 -0.000243635863509165 0.000180007308241908 0.000222716244908733 2.00743800246099e-05
"274" 0.000735068002498046 -0.000758030045905405 -0.00159368382212989 -0.000750555628226716 -0.000468214264138912 -0.000809834971581806 -9.76375287579468e-06 -0.000415542568058981 -0.000293926785332373 -0.000362971423703697 -4.19867819006974e-05 -6.97208659619494e-05 -0.000251790032393356 0.000194806588236321 0.000238950709319584 6.83348856589701e-06
"275" 0.000681675761609429 -0.000840257900550569 -0.00152126141135372 -0.00083493628345868 -0.000454230651315888 -0.000818040622219644 -7.33811153933989e-06 -0.00043459870746977 -0.000400993791018477 -0.000370499030153128 -4.5777730551379e-05 -9.50739216691471e-05 -0.000263130509843642 0.0002076528487651 0.000251996179252185 -8.6467139649165e-06
"276" 0.00062196340886341 -0.000920029965994244 -0.00144730754427912 -0.000914931988073677 -0.000439760205283203 -0.000819669171687132 -6.77394152446305e-06 -0.000450806829698504 -0.00051202756396983 -0.000379225809656421 -5.09126196685839e-05 -0.000121187931931169 -0.000277629937883852 0.000218338388099318 0.00026175249689517 -2.63442805559484e-05
"277" 0.000556515484076845 -0.000997102126505621 -0.0013723911438638 -0.000990391912010115 -0.000424988002280304 -0.000814936992751757 -8.13498181444707e-06 -0.000464168286702272 -0.000626715327734383 -0.000389042839506728 -5.73695193540026e-05 -0.000147987738913473 -0.000295241621487703 0.000226619963150505 0.000268128539051966 -4.62142317906147e-05
"278" 0.000485960344473821 -0.00107123832059391 -0.00129707587279637 -0.00106119996696556 -0.000410090783848635 -0.000804096971403606 -1.14711874204831e-05 -0.000474706694031518 -0.000744721747087474 -0.000399834364069433 -6.51147000937148e-05 -0.000175387002426994 -0.000315884296895049 0.000232251928107659 0.000271062265100072 -6.81912978604713e-05
"279" 0.000410949681724132 -0.00114222517184998 -0.00122193900703004 -0.00112727083652561 -0.000395259013409401 -0.000787436405148244 -1.68210373678558e-05 -0.000482457687055166 -0.000865708387944307 -0.000411493040897157 -7.40951393416402e-05 -0.000203303502598586 -0.000339460662829465 0.000234972027642458 0.000270505566847151 -9.22029320605796e-05
"280" 0.000332167926008758 -0.00120987678782095 -0.00114755632630645 -0.00118855597254934 -0.000380679087148302 -0.000765276655683975 -2.42048664055011e-05 -0.000487480632410472 -0.000989308588321765 -0.000423915531827606 -8.42452444920563e-05 -0.00023164709648808 -0.00036583728048883 0.000234534630607861 0.000266437438699961 -0.000118150574973586
"281" 0.000250300339226325 -0.00127402182722242 -0.00107451022109189 -0.00124503175163089 -0.000366537110891139 -0.00073796580167244 -3.36274998571211e-05 -0.000489844047074051 -0.00111513324513223 -0.000436998602599022 -9.54868200650112e-05 -0.000260328498170737 -0.00039486512825557 0.000230692127316044 0.00025885928233556 -0.000145925897391873
"282" 0.000166051695363349 -0.00133451198139965 -0.00100337037449743 -0.00129671253938809 -0.000353014828071596 -0.000705879124039855 -4.50713757238547e-05 -0.000489635040077852 -0.00124276540781897 -0.000450654158323083 -0.000107728526459168 -0.000289253751068398 -0.000426371965158359 0.000223234440993155 0.000247795976854217 -0.000175405985509561
"283" 8.0116648250903e-05 -0.00139122277221612 -0.000934702720603793 -0.00134363904961939 -0.000340289529427257 -0.000669416837631908 -5.85148796033397e-05 -0.000486951153612045 -0.00137174934919621 -0.000464803519221422 -0.000120865882789108 -0.000318326051418558 -0.000460164748650471 0.000211964043399608 0.000233295517351179 -0.000206454032914823
"284" -6.81176508590747e-06 -0.00144404998254601 -0.000869041211997229 -0.00138588129103564 -0.000328525966975329 -0.000628992791065097 -7.39048318473275e-05 -0.000481905805991481 -0.00150159597594477 -0.00047937566075109 -0.000134791940585831 -0.000347443229250892 -0.000496036669955236 0.000196746310764662 0.000215431075124279 -0.000238923643299086
"285" -9.40597424696571e-05 -0.00149291914415175 -0.000806921290682289 -0.00142353552187076 -0.000317879641958776 -0.000585040746596089 -9.11848123490665e-05 -0.000474626419468681 -0.00163178066306076 -0.000494313746253109 -0.000149383947795574 -0.000376505605689988 -0.000533763066403626 0.000177475847895593 0.000194303351293276 -0.000272658420170756
"286" -0.000180974077646984 -0.00153776669413656 -0.000748829463361542 -0.0014567239590549 -0.00030849471575 -0.000538006400543357 -0.000110270435495676 -0.000465249081501179 -0.00176174206908855 -0.000509572594906705 -0.000164522924531184 -0.000405406025150642 -0.000573108494502149 0.000154109551695348 0.000170030731641961 -0.000307490426422507
"287" -0.000266921918910559 -0.00157856184205844 -0.000695226579266399 -0.00148559115184885 -0.000300498639274258 -0.000488341724084657 -0.000131073101980324 -0.000453918320634801 -0.00189089546640367 -0.000525116383140242 -0.000180084400535549 -0.000434035108231441 -0.000613821019957557 0.000126657619934767 0.000142762996373668 -0.000343251755333499
"288" -0.000351304139559543 -0.00161529029874233 -0.000646533094539528 -0.00151030276619484 -0.000293991173317737 -0.000436507518809095 -0.000153474025216474 -0.000440794408525207 -0.00201863299915753 -0.00054091507979531 -0.000195933634150866 -0.000462279011725768 -0.000655649613236577 9.51930815299933e-05 0.00011266921101018 -0.000379756695815304
"289" -0.000433564285566885 -0.00164796042764609 -0.000603119424695212 -0.00153104254923374 -0.000289068286400906 -0.000382961748865005 -0.000177353734871176 -0.000426040611743522 -0.00214432807179356 -0.000556953818800458 -0.000211951477395863 -0.000490028490709063 -0.000698327906307306 5.98508729354984e-05 7.99338906380195e-05 -0.000416828508611956
"290" -0.000513163254560121 -0.00167659691530179 -0.0005652950079279 -0.00154801640541481 -0.000285788077654681 -0.000328167442757358 -0.000202564340794968 -0.00040982923599087 -0.00226735418865572 -0.000573212753313998 -0.000228001588937313 -0.000517167971726645 -0.000741587690091573 2.08175165241388e-05 4.4781132348475e-05 -0.000454272907297852
"291" -0.000589617122685744 -0.00170124789758877 -0.000533320053233585 -0.00156143673082258 -0.000284194604144557 -0.000272576060485079 -0.000228955396269852 -0.000392342224184444 -0.00238708078948866 -0.00058968257242454 -0.000243965789804332 -0.000543579041261036 -0.000785152797899568 -2.16477386576199e-05 7.43507259494325e-06 -0.000491900596422815
"292" -0.000662487336693491 -0.00172197910521831 -0.000507380443577927 -0.00157152795361748 -0.00028430446723397 -0.000216634328577649 -0.000256354139571581 -0.000373768167168225 -0.00250289876056017 -0.000606348781885599 -0.000259721692804725 -0.000569145927793824 -0.00082875223384731 -6.72481377146535e-05 -3.18504663471398e-05 -0.000529516055763006
"293" -0.000731368170949041 -0.00173887452119691 -0.000487596958388541 -0.00157853217565727 -0.000286112586176234 -0.000160775495877402 -0.000284581529435211 -0.000354290601334795 -0.00261422504858244 -0.000623200446924528 -0.000275158970006112 -0.000593750804900799 -0.000872106300275735 -0.000115629636810919 -7.28075020358813e-05 -0.000566925427278755
"294" -0.000795908117392271 -0.00175202818017946 -0.000474021114959491 -0.00158267990580757 -0.000289583818531042 -0.000105424868582267 -0.000313449846493141 -0.00033411333254686 -0.00272049735415486 -0.000640213433547636 -0.000290161107561908 -0.000617280419394734 -0.00091494395684357 -0.000166401824268668 -0.000115156802156009 -0.000603928263629301
"295" -0.000855803671673423 -0.0017615556571383 -0.0004666242971658 -0.00158422359789007 -0.000294662128653388 -5.09839874842111e-05 -0.000342753127907349 -0.000313432563790187 -0.00282121352196817 -0.000657358396768858 -0.000304632813868694 -0.000639619079513778 -0.000956987149547619 -0.000219147738636851 -0.000158605787512446 -0.000640331052248899
"296" -0.000910790571327305 -0.00176758061085875 -0.000465308314000423 -0.0015834033688645 -0.000301272171934589 2.16284445285094e-06 -0.000372287515963831 -0.000292449806164632 -0.00291590038499155 -0.000674597005470841 -0.000318470629346669 -0.000660658031232747 -0.000997967821320261 -0.00027341748745856 -0.000202852529176918 -0.000675933722308302
"297" -0.000960660716084711 -0.00177024143794643 -0.000469901455033911 -0.00158045950582238 -0.000309305268160528 5.36504973804045e-05 -0.000401838719781678 -0.0002713672240742 -0.00300415890232401 -0.000691881013807794 -0.000331592578991109 -0.000680288149294057 -0.00103761768055927 -0.000328746979400959 -0.000247587231230044 -0.000710546236062328
"298" -0.00100524634974302 -0.00176968467832586 -0.000480153947587485 -0.00157562618215217 -0.000318640264671275 0.000103139614524821 -0.000431184173469235 -0.000250384417899031 -0.00308562256500054 -0.000709143079401276 -0.00034391506402118 -0.00069840215464746 -0.00107568087539816 -0.000384665086322924 -0.00029249633910672 -0.000743971531837347
"299" -0.00104443009823941 -0.00176606784093147 -0.000495753746117667 -0.00156913096278242 -0.000329132006727921 0.000150316595803036 -0.000460108779871513 -0.000229707197574997 -0.00316000265985557 -0.000726312948902385 -0.000355365000435402 -0.000714904049127107 -0.00111190293563824 -0.000440700509331156 -0.000337267912394805 -0.000776023065689156
"300" -0.00107814242155505 -0.00175955166351532 -0.000516329768528621 -0.00156119063353966 -0.000340623951963485 0.000194897251349634 -0.000488389114634542 -0.000209529478694688 -0.00322706905847177 -0.000743297431898 -0.000365877279475052 -0.000729699024171989 -0.00114603907756893 -0.000496382133519158 -0.000381586320065427 -0.000806516900011048
"301" -0.00110635241602005 -0.00175031080446025 -0.000541442021842675 -0.00155200990593249 -0.000352934969691369 0.0002366263004071 -0.000515801785167821 -0.000190046006084608 -0.00328664138370527 -0.000759993028561383 -0.000375396387424709 -0.000742699763620437 -0.00117785854812119 -0.00055126271450249 -0.000425142422465802 -0.000835271889247555
"302" -0.00112907850967902 -0.00173851327689011 -0.00057060544313247 -0.00154177333682356 -0.000365881703574947 0.000275272637983938 -0.000542136059201118 -0.000171446208500205 -0.00333860092626675 -0.000776283779014961 -0.000383870259348072 -0.000753826918395972 -0.00120713764324358 -0.000604902269524474 -0.000467634440124291 -0.000862115475075948
"303" -0.00114638199968319 -0.00172434340450107 -0.00060329272134321 -0.00153065739886898 -0.000379264188919243 0.000310643323234844 -0.000567180140017961 -0.000153909764050355 -0.00338288855087524 -0.000792049251982481 -0.000391258056695994 -0.000763003474295572 -0.00123366806343022 -0.000656890687729529 -0.000508771732691866 -0.000886885046439658
"304" -0.00115835859282402 -0.0017079785312232 -0.000638938713495541 -0.0015188134486761 -0.00039287626564319 0.000342573595873939 -0.00059072639907672 -0.000137605519617083 -0.00341948104590061 -0.000807147445051815 -0.000397523827812238 -0.000770165854907866 -0.00125725506413896 -0.000706835375801991 -0.000548267056780091 -0.0009094215459914
"305" -0.00116515258753888 -0.00168959241416732 -0.000676952437613558 -0.00150637708553622 -0.000406510472062516 0.000370931078294598 -0.000612586372701069 -0.000122699673343903 -0.00344840562846921 -0.000821440297816657 -0.00040263848684886 -0.000775258661742164 -0.00127771968399178 -0.000754380854339634 -0.000585857472735936 -0.000929583163143912
"306" -0.0011669334379319 -0.00166936895744536 -0.000716718813158474 -0.00149346109114314 -0.000419953981048778 0.000395614600759433 -0.00063257304990802 -0.000109338210005997 -0.00346973209583561 -0.000834769538955439 -0.000406577432014971 -0.000778233242277637 -0.00129489607559814 -0.000799199213000908 -0.000621286969653626 -0.000947230688555729
"307" -0.00116390884772098 -0.00164748347378243 -0.000757618089043126 -0.00148016291071994 -0.000433000975517819 0.000416556342072187 -0.000650516228315612 -9.76592060074072e-05 -0.00348355548186206 -0.000846990074651008 -0.00040933034873321 -0.000779050500161907 -0.00130864460995075 -0.000840989832206118 -0.000654323579997994 -0.000962242002807967
"308" -0.00115631942378127 -0.00162410736541855 -0.000799021287854319 -0.00146655345831901 -0.000445440734827474 0.000433714407737042 -0.000666262148637872 -8.77842669632268e-05 -0.00348999848351915 -0.000857942083633498 -0.000410881740442421 -0.000777681516420189 -0.00131883825402596 -0.000879489032741898 -0.000684753062472321 -0.00097451046434344
"309" -0.00114443461901917 -0.0015994066354207 -0.0008403175653123 -0.00145268328897417 -0.000457077598095933 0.000447080336069084 -0.000679666316562518 -7.98218912076382e-05 -0.00348920913609458 -0.000867474577923486 -0.000411229205150354 -0.000774107323051029 -0.00132537402532534 -0.000914458159544067 -0.00071238065325462 -0.00098394057292492
"310" -0.00112853848776002 -0.00157354851730644 -0.000880895501674759 -0.00143858536820562 -0.000467722559452636 0.000456672944473441 -0.000690606398271286 -7.38591820203646e-05 -0.00348134343589785 -0.000875430968913228 -0.000410370070359035 -0.000768319923657571 -0.00132816455124451 -0.000945692718477188 -0.000737036658792329 -0.000990451916839398
"311" -0.00110894518811721 -0.00154668522348034 -0.00092017007946311 -0.00142427190155907 -0.00047719296973072 0.00046253619304523 -0.000698975997024266 -6.99665229304457e-05 -0.0034665703967083 -0.00088166805038538 -0.000408307395880009 -0.000760320339486993 -0.00132715201567687 -0.000973017668362362 -0.000758570959988707 -0.000993982765221346
"312" -0.00108597841970863 -0.00151896289546619 -0.000957583570836433 -0.00140973431840495 -0.000485322929018995 0.000464742248999129 -0.000704686864295257 -6.82017346673648e-05 -0.00344506263134784 -0.000886046518227895 -0.000405052921928079 -0.000750118162077952 -0.00132229744076457 -0.000996282426789934 -0.000776861553468324 -0.000994485188278703
"313" -0.00105998646262953 -0.00149052826140989 -0.000992602789737781 -0.00139495285331806 -0.000491962081896094 0.000463384702024715 -0.000707669348697192 -6.85955622147587e-05 -0.0034169875614665 -0.00088843376190455 -0.000400621036971447 -0.000737740997970546 -0.0013135829862016 -0.0010153641328342 -0.000791806685791488 -0.000991933701053773
"314" -0.00103131561243185 -0.00146150701377098 -0.00102474432458718 -0.00137988339539744 -0.000496973515677597 0.000458576678226135 -0.000707880385021061 -7.11681124456752e-05 -0.00338250269967203 -0.000888710050728152 -0.000395027562276418 -0.000723219566539122 -0.00130102133756169 -0.00103015582998123 -0.000803335898322584 -0.000986318120507797
"315" -0.00100032359747655 -0.00143202493642195 -0.00105355120549814 -0.00136447593148212 -0.000500242285571889 0.0004504550912367 -0.000705287262117393 -7.59073469706394e-05 -0.00334177534712673 -0.000886769964785363 -0.000388290095415632 -0.000706597773905899 -0.00128464031049159 -0.00104058451822237 -0.000811395329071231 -0.000977645611308364
"316" -0.000967362332999134 -0.00140219238723957 -0.00107861629029165 -0.00134866303689444 -0.000501664475387633 0.000439167010895713 -0.000699885058603268 -8.27985596371189e-05 -0.00329493546335002 -0.000882516868895338 -0.000380435516690474 -0.000687932088557958 -0.00126449684993842 -0.00104659234581184 -0.000815965109151644 -0.00096594756485079
"317" -0.00093280039574669 -0.00137211239927603 -0.00109958158742262 -0.00133236884805132 -0.000501163616465057 0.000424883890687891 -0.00069168860305435 -9.1793575724591e-05 -0.00324211046450608 -0.000875872844856834 -0.000371488250240522 -0.000667285960357832 -0.00124067064845975 -0.00104812790325219 -0.000817045800527522 -0.000951267829971468
"318" -0.000896975795689664 -0.00134188167566636 -0.00111613124112592 -0.00131551247429466 -0.00049868243706167 0.000407780417806806 -0.000680728106467303 -0.000102833708527624 -0.00318340680025334 -0.000866771165589317 -0.000361482210761145 -0.000644734617473485 -0.00121326768730296 -0.00104517390673467 -0.000814661581441375 -0.000933674666712923
"319" -0.000860236877683235 -0.00131157988435461 -0.00112800825488307 -0.00129800477808636 -0.000494177433630938 0.000388050028287518 -0.000667061860927972 -0.000115839624311898 -0.00311892320598011 -0.000855167424698558 -0.000350450094679273 -0.000620366267222084 -0.00118240987722316 -0.00103772211029507 -0.000808866702986856 -0.000913253069767357
"320" -0.000822909572224578 -0.0012812863076958 -0.00113499764032169 -0.0012797568748268 -0.00048763125866195 0.000365889901672256 -0.000650762547297469 -0.000130712071381796 -0.00304872878030011 -0.000841030160906534 -0.000338425944677797 -0.000594275160558777 -0.00114824883617082 -0.00102577106949981 -0.000799729055521911 -0.000890108061315255
"321" -0.000785307176154278 -0.00125106179677199 -0.0011369382345008 -0.00126067851742286 -0.000479048676140454 0.000341503571109318 -0.00063192497119496 -0.000147342217813701 -0.00297287596685293 -0.000824342545225886 -0.000325450009158746 -0.00056656718449549 -0.00111095286153515 -0.00100934297543262 -0.000787344713110514 -0.000864361854380983
"322" -0.000747728207428428 -0.00122096433017988 -0.00113372415063115 -0.00124067672449735 -0.0004684520527588 0.000315103747377374 -0.000610661730924599 -0.000165602065888622 -0.00289140714789185 -0.000805116871231854 -0.000311569225838957 -0.000537353905251408 -0.00107072004429017 -0.000988471290674841 -0.000771840215164566 -0.000836159293142014
"323" -0.000710446884418421 -0.00119104276162322 -0.00112529548658511 -0.00121967489228953 -0.000455881603810521 0.000286903571732187 -0.000587101778436113 -0.000185346146536522 -0.00280435723623345 -0.000783374304330775 -0.000296824828515912 -0.000506763718117267 -0.00102775848958358 -0.000963205628596274 -0.000753344776903306 -0.000805651581225791
"324" -0.000673715785695799 -0.00116133417577339 -0.00111164183528333 -0.00119758888391955 -0.000441405648156851 0.000257116564646443 -0.000561393196584559 -0.000206425721763095 -0.00271173706299033 -0.00075915619106891 -0.000281270446166925 -0.00047492206238865 -0.000982298967671408 -0.000933600592438555 -0.00073202172947045 -0.000773017868261632
"325" -0.000637767804301673 -0.00113187695946773 -0.00109280362209043 -0.00117435542020573 -0.000425100017455248 0.000225958975085532 -0.000533696547626356 -0.00022867756696381 -0.00261355772176801 -0.000732522587148593 -0.000264955304634343 -0.000441973603701868 -0.000934588265689737 -0.000899737792020585 -0.000708046830418838 -0.000738446108764786
"326" -0.000602796144029023 -0.00110269322473053 -0.0010688673114477 -0.00114991636768125 -0.000407069010893413 0.000193644727018807 -0.000504193024262628 -0.000251920493872719 -0.00250983432181779 -0.000703549493083658 -0.000247937121482446 -0.000408059475185741 -0.000884890809130999 -0.000861708946303736 -0.000681609120017597 -0.000702139322672321
"327" -0.00056899028515151 -0.00107380608901149 -0.00103996340264528 -0.00112422800421649 -0.000387429994386975 0.00016038552029811 -0.000473069557950122 -0.000275981701396821 -0.00240057974858297 -0.000672335087686136 -0.000230274292628716 -0.000373335939071678 -0.000833485718806949 -0.000819618564160073 -0.000652924166231779 -0.000664311719780325
"328" -0.000536490052081986 -0.00104523260273032 -0.00100626613286791 -0.00109726227262412 -0.000366311081333214 0.000126385902921763 -0.000440530937983191 -0.000300668863674617 -0.00228581708388766 -0.000638990018389167 -0.000212029673593726 -0.000337959793180327 -0.00078066373327797 -0.00077359639882267 -0.000622209279082321 -0.000625192105980974
"329" -0.000505426028962468 -0.0010169843761675 -0.000967989688570236 -0.00106900376327212 -0.000343864248323202 9.1854454323531e-05 -0.00040678674114365 -0.000325796537994057 -0.00216559103235492 -0.000603638892818873 -0.000193268704666419 -0.000302090355106643 -0.0007267212294023 -0.000723793518007323 -0.000589702368457172 -0.000585017945601774
"330" -0.000475882252784106 -0.000989068453833384 -0.000925386899282602 -0.00103946037738384 -0.000320244734781645 5.69848562643062e-05 -0.000372057965134951 -0.00035116553854892 -0.0020399665212188 -0.000566423662516142 -0.000174061066522517 -0.000265899442025649 -0.000671967977947753 -0.000670378559059877 -0.000555643019137674 -0.000544031422426455
"331" -0.00044794004908886 -0.000961494146041757 -0.000878749377524056 -0.00100865322365928 -0.000295627144011421 2.19739906094931e-05 -0.000336577214226697 -0.000376582686910372 -0.00190903964245892 -0.000527508104946179 -0.000154482122466272 -0.000229552788169292 -0.000616720072780851 -0.00061353980731458 -0.000520288698266464 -0.000502483169221821
"332" -0.000421642288795889 -0.000934266839055816 -0.000828398890662752 -0.00097662244026745 -0.000270194856986953 -1.29982004959361e-05 -0.000300574619820039 -0.000401857987646683 -0.00177294786721329 -0.00048705772877419 -0.000134607430970194 -0.00019322001739729 -0.000561297715414775 -0.000553499609261598 -0.000483898130004841 -0.000460630793428082
"333" -0.000397000389080272 -0.000907385842287721 -0.000774687580796037 -0.000943430254999169 -0.000244133026116416 -4.77471580619456e-05 -0.000264283325424812 -0.00042680122254278 -0.00163187433181914 -0.000445254860835448 -0.000114514043342668 -0.000157074748930885 -0.00050601605576865 -0.000490500750548939 -0.000446735683951713 -0.000418725612402316
"334" -0.00037400257507807 -0.000880855881358298 -0.000717990075310163 -0.000909160230105417 -0.000217639400963232 -8.21029898389935e-05 -0.000227941342765547 -0.000451223430827662 -0.00148605060402312 -0.000402292220532132 -9.42897432392017e-05 -0.000121287648526836 -0.000451189701223322 -0.000424810874201366 -0.000409065016451793 -0.000377025624664379
"335" -0.000352631953825447 -0.000854684996216138 -0.000658712154246846 -0.000873911288476058 -0.000190914786387406 -0.000115903087197944 -0.000191786566020098 -0.000474944841392928 -0.00133578635458742 -0.000358377583782478 -7.40149657941302e-05 -8.60300191345576e-05 -0.00039713669666015 -0.000356732581876823 -0.000371156841346483 -0.000335783935189255
"336" -0.000332841839599119 -0.000828871573152047 -0.000597275020096219 -0.000837802953025936 -0.000164160128448685 -0.00014899129243402 -0.000156052455675513 -0.000497797010389779 -0.00118143722941274 -0.000313715691548402 -5.3781748662152e-05 -5.14640146780427e-05 -0.000344168101320717 -0.000286588019102157 -0.000333271661060936 -0.000295252479061909
"337" -0.000314561415021727 -0.000803424820715111 -0.000534114251362832 -0.000800974241753585 -0.000137575031829692 -0.000181216460858187 -0.00012096553241225 -0.000519611233596108 -0.00102344663038392 -0.000268525057058625 -3.36806080404974e-05 -1.77549552825924e-05 -0.000292575033892755 -0.000214733697751466 -0.000295670228492085 -0.000255671698761637
"338" -0.000297712733615743 -0.00077835330149082 -0.000469685424646352 -0.000763581231123775 -0.000111360119968092 -0.000212441905835147 -8.67525130838883e-05 -0.000540233931164748 -0.000862325016461494 -0.000223029792119517 -1.38022634193972e-05 1.49399029986923e-05 -0.00024265227069573 -0.000141547229913456 -0.000258609635570389 -0.000217272909181924
"339" -0.000282195014658891 -0.000753665568849664 -0.000404440787010553 -0.00072579742285997 -8.57139760212103e-05 -0.000242536302581437 -5.362135172598e-05 -0.000559523997942615 -0.000698671746251418 -0.000177449638940167 5.76102411072275e-06 4.64717076806164e-05 -0.000194664420120741 -6.74365595562032e-05 -0.000222333346164691 -0.000180282304795828
"340" -0.000267903866817471 -0.000729373891083259 -0.000338845342025514 -0.000687807529617527 -6.08207528535046e-05 -0.000271378677606367 -2.17768478396104e-05 -0.000577351723173779 -0.000533151099943494 -0.000132011077871593 2.49079429808002e-05 7.66973869438366e-05 -0.000148872711410711 7.17835434001198e-06 -0.000187076177801125 -0.000144905811470187
"341" -0.000254726795506605 -0.000705495243337335 -0.000273356098620735 -0.000649815483154319 -3.68654711796356e-05 -0.000298853309838891 8.59236424009988e-06 -0.000593595149004329 -0.000366518453236013 -8.69403744206895e-05 4.35528372577555e-05 0.000105481863371138 -0.00010551505769143 8.1845820641057e-05 -0.000153062040128877 -0.000111340649567358
"342" -0.000242533574637074 -0.000682046056470104 -0.000208434908656549 -0.000612032855694788 -1.40161918844664e-05 -0.000324856947863473 3.7310240424635e-05 -0.000608154192041573 -0.000199598864750505 -4.24539225215841e-05 6.15949916917481e-05 0.000132702755316628 -6.48046843289984e-05 0.000156110264083153 -0.000120499852538825 -7.97628243493354e-05
"343" -0.000231208757437868 -0.000659049248905061 -0.000144528167592373 -0.000574679167639996 7.57053609121787e-06 -0.000349295826348897 6.42136524280502e-05 -0.000620939729277791 -3.32775676480056e-05 1.22548745582516e-06 7.89434092110224e-05 0.000158244166134761 -2.69430721549692e-05 0.000229506804367775 -8.95806401790389e-05 -5.03321403391805e-05
"344" -0.000220613186683599 -0.000636527909111733 -8.20698954066836e-05 -0.000537982823484728 2.77469702167163e-05 -0.000372082509024671 8.91622748165927e-05 -0.000631878656164261 0.000131495902773344 4.38926757727527e-05 9.55083153517035e-05 0.000182007587344384 7.90682631250891e-06 0.000301556427210969 -6.04773837388551e-05 -2.31880366582605e-05
"345" -0.000210629146661771 -0.000614509519600704 -2.14802323069779e-05 -0.000502175557248883 4.63832064881846e-05 -0.00039314097653936 0.000112029440639681 -0.000640915223917579 0.000293724524052747 8.53401858415887e-05 0.000111199053286534 0.000203906676955215 3.95959797288006e-05 0.00037178780628193 -3.33504160667502e-05 1.551479268369e-06
"346" -0.000201117945303826 -0.00059302014844172 3.68500179486603e-05 -0.000467489691789104 6.33739266988364e-05 -0.000412406577168244 0.000132716301110058 -0.000648007341455091 0.000452395554082129 0.000125379378556359 0.000125930368174526 0.000223863066044033 6.80082440739089e-05 0.000439744850304701 -8.33688220264831e-06 2.37902404682666e-05
