"V1" "V2" "V4" "V5" "V7" "V8" "V10" "V11" "V13" "V14" "V15" "V17" "V18" "V20" "V21" "V23"
"1" -0.000466707072910587 -0.000316947252945156 -0.000173116703934006 -0.000380128632249815 -0.000494813268338078 -0.000460175006692232 -0.000452593798774394 -0.000101500933291607 -0.00060375722416268 -0.000372907778795033 -0.000401975083000075 -0.000176723693652645 -0.00026642358136996 -0.000494684048561913 -0.000403382088784749 -0.000219203045690949
"2" -0.000463013831361336 -0.000315107752718051 -0.000167662953892589 -0.000377664862362445 -0.000489334664795959 -0.00045515576733306 -0.000443558213438651 -0.0001002956295348 -0.000599611354945882 -0.000369719801170044 -0.000399135561390792 -0.00017622061856322 -0.000265837423348351 -0.00049137718428529 -0.000398644724923614 -0.000215275616463755
"3" -0.000459276676336557 -0.000313245423448351 -0.000162391616124483 -0.00037526738867657 -0.000483589620834491 -0.000449721810126076 -0.000434260029289375 -9.89261404105288e-05 -0.000594894435606873 -0.000365924553296591 -0.000395924730342465 -0.000175585785695894 -0.000265018610493182 -0.000487711860665692 -0.000393624571649662 -0.00021126018588452
"4" -0.000455508134727546 -0.000311364623232534 -0.000157344788159883 -0.000372947395200013 -0.000477608257800298 -0.000443893015388097 -0.000424741220915671 -9.74067546154296e-05 -0.000589618235771947 -0.000361546189594081 -0.000392352415174446 -0.000174831239935731 -0.000263973153878331 -0.000483703526712615 -0.000388352382983247 -0.000207155890259101
"5" -0.000451712368443961 -0.000309463382845344 -0.000152548087546958 -0.000370708484921025 -0.000471398306082501 -0.000437682755347498 -0.0004150310416508 -9.57484000333626e-05 -0.000583794971650214 -0.000356600798923041 -0.000388428177060178 -0.000173963182951188 -0.000262702713127433 -0.000479374057925651 -0.000382850568269701 -0.000202964780994955
"6" -0.000447897045900308 -0.00030754145493848 -0.00014802862953654 -0.000368557517886261 -0.00046498828370866 -0.000431109756284895 -0.000405165764878917 -9.39675850452521e-05 -0.000577440261902679 -0.000351111916374591 -0.000384159480418876 -0.000172988265736093 -0.000261211238696795 -0.000474738713936001 -0.000377139715662211 -0.00019868754453606
"7" -0.000444071388226061 -0.0003055980983888 -0.000143817745459194 -0.000366499179899822 -0.000458389384691154 -0.000424195221297472 -0.000395189259387536 -9.20721524635184e-05 -0.000570571185765857 -0.00034511042552922 -0.000379565589858748 -0.000171921200840703 -0.00025950890825342 -0.000469820326236651 -0.00037124817690049 -0.000194324730964794
"8" -0.000440230587863967 -0.000303626172413583 -0.000139929184853642 -0.000364531169125275 -0.000451628351758782 -0.000416957402389487 -0.000385120463189415 -9.00746215788939e-05 -0.000563206413487069 -0.000338614981450575 -0.000374650949041261 -0.000170764141554156 -0.000257595413520229 -0.000464629499689688 -0.000365192958278909 -0.00018987586317745
"9" -0.000436382198884441 -0.000301619819873223 -0.000136387831495665 -0.000362654956110336 -0.000444718096671321 -0.000409413533718373 -0.000375000379083899 -8.7989204003084e-05 -0.000555359132320271 -0.000331655879415071 -0.000369429041218945 -0.000169524918784297 -0.000255481090263576 -0.000459187110808011 -0.000358997631431182 -0.000185338468585795
"10" -0.000432515966049314 -0.000299572716646312 -0.000133203817561056 -0.000360861477958279 -0.00043767915704541 -0.0004015851794863 -0.000364852105993827 -8.58252340420348e-05 -0.000547048540815216 -0.000324258855733909 -0.000363912704682553 -0.000168208163576789 -0.000253162941632513 -0.00045350267283901 -0.000352675477258871 -0.000180707936796541
"11" -0.000428633344270498 -0.00029747280503718 -0.000130390896106622 -0.000359148496785796 -0.000430528744730079 -0.000393487045718419 -0.000354705412194458 -8.35940846193287e-05 -0.000538295910493811 -0.000316451447547592 -0.000358110031320197 -0.000166819067860943 -0.000250651458445732 -0.000447590198052406 -0.000346246853713021 -0.000175984532566569
"12" -0.000424731566149099 -0.000295318330547537 -0.000127961050377894 -0.00035750872006122 -0.000423283071631962 -0.000385142594457126 -0.000344585104612938 -8.13080104356853e-05 -0.000529125492484724 -0.000308265991247329 -0.000352042649426321 -0.000165366055791663 -0.000247953381532244 -0.000441462847320457 -0.00033972860831852 -0.000171165189230829
"13" -0.000420798722513046 -0.000293088687159723 -0.00012591274096137 -0.000355927302731351 -0.000415955320382537 -0.0003765656007021 -0.00033451332604495 -7.89741017585658e-05 -0.000519549562156022 -0.000299728221904921 -0.000345716340461079 -0.000163848905898905 -0.000245071930177998 -0.000435127594185114 -0.000333132198622428 -0.000166244860218391
"14" -0.000416826266244277 -0.000290778189285172 -0.000124252031395872 -0.000354393949631618 -0.000408561531819812 -0.000367774481219139 -0.000324504621734588 -7.65986615699912e-05 -0.000509596112540635 -0.000290870393976409 -0.000339144343185621 -0.000162270517005898 -0.000242012777588638 -0.000428596545701046 -0.000326470051022661 -0.000161221218934585
"15" -0.000412809967064845 -0.000288373618393927 -0.000122973788924808 -0.000352897640983618 -0.000401117338115425 -0.000358787039387465 -0.000314585039852275 -7.41973246588926e-05 -0.000499281563994024 -0.000281719891701068 -0.000332340149733121 -0.000160633778233517 -0.000238782736815314 -0.000421876246821104 -0.000319751733954015 -0.000156089225020054
"16" -0.000408732406494808 -0.000285863041267479 -0.000122073666207326 -0.000351420009454057 -0.000393629808771003 -0.000349617403046812 -0.000304761745016103 -7.17699789295842e-05 -0.000488628705911893 -0.000272306264486028 -0.00032531753430772 -0.00015894012529827 -0.000235385909499852 -0.000414968475588199 -0.000312988217727413 -0.000150849720361353
"17" -0.000404581388777398 -0.00028323114383863 -0.000121543654922994 -0.000349940142281006 -0.000386112645587305 -0.000340275358582898 -0.00029504495649206 -6.93225764203134e-05 -0.000477654608708937 -0.000262655548313074 -0.000318086420389184 -0.000157184914101666 -0.000231828566846904 -0.000407882678350501 -0.000306182173366766 -0.00014549470350419
"18" -0.000400345787148031 -0.000280465540576992 -0.000121366488356744 -0.000348444296462149 -0.000378574212552542 -0.000330781837612922 -0.000285452735293855 -6.6868554476341e-05 -0.000466384949018259 -0.000252799973179692 -0.000310661272803361 -0.000155377967519488 -0.00022812154625748 -0.000400618776635851 -0.000299342470371333 -0.000140024892142447
"19" -0.000396009208921969 -0.000277553166394389 -0.000121530458347695 -0.000346909403338028 -0.000371019296246267 -0.000321140933591545 -0.000275979156297918 -6.44021538581623e-05 -0.000454833392828404 -0.000242761192244191 -0.000303051836575974 -0.000153512488019676 -0.000224265569664314 -0.000393181034444132 -0.000292470555116226 -0.000134436632236596
"20" -0.000391557930622588 -0.00027448312506017 -0.000122015154929449 -0.000345316110907651 -0.000363457197338619 -0.000311368755765597 -0.000266636663739446 -6.19345808076563e-05 -0.000443024622027217 -0.000232570826924127 -0.00029527126263635 -0.000151588670051779 -0.000220269649735512 -0.000385572815328324 -0.000285569121016363 -0.000128729010420492
"21" -0.000386980127283378 -0.000271243597511635 -0.000122806106376166 -0.000343641265134742 -0.000355887511246526 -0.000301471334302434 -0.000257423211587737 -5.94625004112812e-05 -0.000430975705958858 -0.000222247660991543 -0.000287331949722232 -0.000149605338040791 -0.000216142351530944 -0.000377790647352824 -0.000278643530155112 -0.000122901554491681
"22" -0.00038226096992767 -0.000267824592147887 -0.000123873970582399 -0.000341866381803529 -0.000348318563843168 -0.000291464150812924 -0.00024833927789332 -5.69950419706801e-05 -0.000418709921299175 -0.000211824919250403 -0.00027924887841298 -0.000147566417093016 -0.000211892647258106 -0.000369839307532543 -0.000271689352834651 -0.000116958645703168
"23" -0.00037738183242946 -0.000264214257090479 -0.000125197790010959 -0.000339964801180177 -0.000340753123172995 -0.000281353772321855 -0.00023938120188079 -5.45329631533362e-05 -0.000406238580504072 -0.000201320844534874 -0.00027102964629767 -0.000145465782082829 -0.000207526638989285 -0.000361714807209832 -0.000264707160023715 -0.00011089333654844
"24" -0.000372333597464217 -0.000260402668981264 -0.000126747621916828 -0.000337917174058281 -0.000333184906342253 -0.000271143965358979 -0.000230543489024969 -5.20739379340311e-05 -0.000393586836913973 -0.000190763695247094 -0.000262691075610997 -0.000143310470345548 -0.000203055304101973 -0.00035342431647084 -0.000257702791960089 -0.000104718961346975
"25" -0.00036710626212347 -0.000256391892731857 -0.000128504545554802 -0.000335703558610811 -0.00032562258563242 -0.000260846150053609 -0.000221823245179263 -4.96240477711232e-05 -0.000380768393384088 -0.000180171155168387 -0.000254241114397233 -0.000141093597753094 -0.000198488584944772 -0.000344959916917514 -0.000250664197571245 -9.84330669598382e-05
"26" -0.000361681698283173 -0.00025216682851058 -0.000130432415770937 -0.000333300146495 -0.000318060091535002 -0.000250464074923629 -0.000213209297542278 -4.71816212866813e-05 -0.000367800009993182 -0.000169564300824956 -0.000245694028778219 -0.00013881958389358 -0.000193836938286565 -0.000336324168601536 -0.000243593866579752 -9.20415827636263e-05
"27" -0.000356056263462903 -0.000247728729401473 -0.000132501630233175 -0.000330687352710907 -0.000310493865867868 -0.000240004638767048 -0.000204695837672098 -4.4747871494311e-05 -0.000354703757037444 -0.000158968061133924 -0.000237063120380883 -0.000136491259895812 -0.000189110743584441 -0.000327522746802639 -0.000236492396799879 -8.55555798126792e-05
"28" -0.000350215281383931 -0.000243073429529921 -0.000134687120966521 -0.000327844565506682 -0.000302924025570649 -0.000229474955279871 -0.000196270226298708 -4.23296795797981e-05 -0.00034149171170332 -0.000148401378379912 -0.000228361046094797 -0.00013411164287588 -0.000184324146696062 -0.00031855318817312 -0.000229355142331642 -7.89808414523765e-05
"29" -0.000344155134072865 -0.000238200918482743 -0.000136956974323831 -0.000324755856363012 -0.000295342823400836 -0.00021888046575803 -0.000187923800863967 -3.99193996208333e-05 -0.000328178803156076 -0.000137880485702291 -0.000219599309437902 -0.000131679398696253 -0.000179486125943522 -0.000309415559099087 -0.000222180409056544 -7.23251247856644e-05
"30" -0.000337874976814321 -0.000233122449879676 -0.00013928453412982 -0.000321407744792808 -0.000287756886221035 -0.000208226709350035 -0.000179650571314439 -3.75230237107101e-05 -0.000314787935886223 -0.000127427525168359 -0.000210793894445808 -0.000129203631065514 -0.000174615478862749 -0.000300120460122626 -0.000214967944475393 -6.56061182108984e-05
"31" -0.000331363888009463 -0.00022782833337816 -0.000141639098762289 -0.000317779003695714 -0.000280150353754675 -0.000197518883042486 -0.000171429449786196 -3.51406031565478e-05 -0.000301326185683748 -0.000117058370421531 -0.000201951534680892 -0.000126686349948291 -0.000169718428485694 -0.000290664163499948 -0.000207714887604861 -5.88310844955406e-05
"32" -0.000324620549916462 -0.000222332900995137 -0.000143988043675595 -0.000313858110795186 -0.000272518842370547 -0.000186761371938793 -0.00016325453099304 -3.27721383843105e-05 -0.000287813707043892 -0.000106789522075552 -0.0001930917623564 -0.000124133447163022 -0.000164813429922871 -0.000281057084156847 -0.000200422127339299 -5.20143748274248e-05
"33" -0.000317654113868277 -0.000216643624730612 -0.000146314786219574 -0.000309636741370932 -0.000264868547495216 -0.000175963833551076 -0.000155115097624661 -3.04240112695996e-05 -0.000274265052706595 -9.66393932060372e-05 -0.000184225648954648 -0.000121552552579675 -0.000159915015695813 -0.000271301503763801 -0.000193089409359773 -4.51751453790909e-05
"34" -0.000310458830175009 -0.00021076654619224 -0.000148583036720029 -0.000305102878680046 -0.00025718253495412 -0.000165133091125445 -0.000147002415385709 -2.80995331417518e-05 -0.000260696212000293 -8.66288420948325e-05 -0.00017536707800361 -0.000118954988985805 -0.000155039609967074 -0.000261412714001675 -0.000185717693643695 -3.83262897301662e-05
"35" -0.000303041667546065 -0.000204717453145537 -0.000150773377742664 -0.000300251298998543 -0.000249465236405322 -0.000154273228994507 -0.000138902272644034 -2.57927693759295e-05 -0.000247119038310381 -7.67667824888624e-05 -0.000166529555114938 -0.000116343332542186 -0.000150200846998098 -0.00025139470207789 -0.000178305839633848 -3.14844782370309e-05
"36" -0.000295407990482521 -0.00019850711982856 -0.000152862922851598 -0.0002950726060704 -0.00024170888510421 -0.000143391423303865 -0.000130805044495553 -2.3513432476054e-05 -0.000233547586588997 -6.70683376995781e-05 -0.000157725286371811 -0.000113730305684497 -0.000145410262157047 -0.000241257243970919 -0.000170859224918024 -2.46700026184198e-05
"37" -0.000287567886940812 -0.000192152598793796 -0.000154827644934199 -0.000289566513256734 -0.000233905973995306 -0.000132497574167864 -0.000122705095516907 -2.1262545133995e-05 -0.000219995257041144 -5.75523346423096e-05 -0.000148966477927547 -0.000111122652624776 -0.00014068675656039 -0.000231013025204774 -0.000163380551770318 -1.78986416042191e-05
"38" -0.000279531428785641 -0.000185666471865865 -0.000156649245807381 -0.000283731321803551 -0.000226058406475688 -0.000121599685166984 -0.0001145887076249 -1.90471486686957e-05 -0.000206481198104273 -4.82327198612917e-05 -0.000140269965437312 -0.000108536148361267 -0.000136046252081681 -0.000220680088737656 -0.000155872288383959 -1.11943458828885e-05
"39" -0.00027130513798723 -0.000179067328531591 -0.000158307174112591 -0.000277563778645002 -0.000218158306712371 -0.000110702342599181 -0.000106452907117185 -1.68675375333935e-05 -0.000193013484596592 -3.91202325681794e-05 -0.000131645478086215 -0.000105976445212527 -0.00013149893930089 -0.000210266327881154 -0.000148338269691525 -4.57167967973427e-06
"40" -0.00026290931234382 -0.000172375228939747 -0.000159789810701649 -0.000271073231018887 -0.000210209213207462 -9.98193665726494e-05 -9.82868900413902e-05 -1.47281782454374e-05 -0.000179605477837494 -3.0230073376857e-05 -0.000123104679624812 -0.000103457398399919 -0.000127062260779211 -0.000199793539819148 -0.000140784594143583 1.94889394329183e-06
"41" -0.00025435678648391 -0.000165606543217467 -0.000161080755471336 -0.000264259157082558 -0.000202203449185746 -8.89653219410217e-05 -9.00916211372738e-05 -1.26413607199607e-05 -0.00016627676690553 -2.15824571288819e-05 -0.000114665393033124 -0.000100990909400943 -0.000122752495955505 -0.000189277538356225 -0.000133221199154218 8.34423423212763e-06
"42" -0.000245656623457669 -0.000158779029591081 -0.000162164369931565 -0.000257127570816528 -0.000194137170710135 -7.81390836247177e-05 -8.18546444286953e-05 -1.06013967867847e-05 -0.00015303090375778 -1.31780095834325e-05 -0.000106331827869899 -9.85871268560081e-05 -0.000118573798862442 -0.00017873173295924 -0.000125645445542536 1.46033482624712e-05
"43" -0.000236830183437802 -0.000151916163261653 -0.000163031959213856 -0.000249686408472221 -0.000186015178948645 -6.73619052956711e-05 -7.35764824358082e-05 -8.61957691251561e-06 -0.000139884720641815 -5.0353106800243e-06 -9.81211675261629e-05 -9.62560582582361e-05 -0.000114544447859174 -0.000168180286514185 -0.000118073475332536 2.07019920427171e-05
"44" -0.000227893525103457 -0.000145032859626576 -0.000163678438939685 -0.000241946642218842 -0.000177831448093433 -5.66366788028523e-05 -6.52543139414082e-05 -6.69879838130288e-06 -0.000126850565010999 2.83723406692205e-06 -9.00386517684574e-05 -9.40083348215504e-05 -0.000110670036782183 -0.000157641813696187 -0.000110504563003959 2.66237378907478e-05
"45" -0.000218867341881871 -0.000138152662956802 -0.000164092956380643 -0.000233916399483027 -0.000169588621160409 -4.5975800199016e-05 -5.68833249502387e-05 -4.84258419623871e-06 -0.000113936528606744 1.04262912767899e-05 -8.20943819916669e-05 -9.18523718287914e-05 -0.000106957512509059 -0.000147131661768345 -0.000102949630568807 3.23559171609172e-05
"46" -0.000209761463782991 -0.000131287384448369 -0.000164267095863496 -0.000225607406570823 -0.000161287238537139 -3.53949465834359e-05 -4.84643265538133e-05 -3.05988177628894e-06 -0.000101159581432722 1.77208089675205e-05 -7.4300445635593e-05 -8.98018734406326e-05 -0.000103420820734945 -0.000136676881776772 -9.54170994027366e-05 3.78777005142032e-05
"47" -0.000200603411639541 -0.000124463098105965 -0.000164208679358395 -0.000217035844439091 -0.000152925102012095 -2.49044505947893e-05 -4.0001217897742e-05 -1.35412651060571e-06 -8.85256836513865e-05 2.47140443855872e-05 -6.66622678526492e-05 -8.78616475470726e-05 -0.000100059576670076 -0.000126291552485537 -8.79123089290867e-05 4.31794908923724e-05
"48" -0.000191401621941766 -0.000117692327241176 -0.000163901217141498 -0.000208209741816884 -0.000144509662029841 -1.45099907986014e-05 -3.14869094551933e-05 2.77061273961822e-07 -7.60474234811746e-05 3.13983555536643e-05 -5.91871177593008e-05 -8.60388594925992e-05 -9.68771437519519e-05 -0.000116002790127922 -8.04426648487096e-05 4.82511856140671e-05
"49" -0.00018218014844204 -0.000110989878275952 -0.000163356256013226 -0.000199147343844603 -0.000136035232440135 -4.22945061929307e-06 -2.29267099850067e-05 1.82142827506204e-06 -6.37358665455128e-05 3.77630044117318e-05 -5.18790723623858e-05 -8.43393826810898e-05 -9.38761182711925e-05 -0.000105825662003278 -7.30170193908813e-05 5.30805009439385e-05
"50" -0.000172954256197975 -0.000104373535440446 -0.000162567382984606 -0.00018986236250194 -0.00012751206095018 5.92767700488069e-06 -1.43238988213444e-05 3.27879629709962e-06 -5.15976060463281e-05 4.37988959138132e-05 -4.47451012220167e-05 -8.27677281766166e-05 -9.10595907726993e-05 -9.57829954637006e-05 -6.56409193685983e-05 5.76566185545975e-05
"51" -0.000163736066321062 -9.7853823467856e-05 -0.000161536969306188 -0.000180367548390271 -0.000118933299024865 1.59572271226018e-05 -5.67644739972285e-06 4.65053022078364e-06 -3.96392662572349e-05 4.95087693753021e-05 -3.77863247034009e-05 -8.13258386582171e-05 -8.84188198179853e-05 -8.58911567686467e-05 -5.83164506389966e-05 6.19774337033335e-05
"52" -0.000154546101535809 -9.14459465304321e-05 -0.000160274953482827 -0.000170682395652912 -0.000110310991866645 2.58416429852354e-05 3.00751572538587e-06 5.93148018500591e-06 -2.78759767046878e-05 5.48801228215205e-05 -3.10066205857538e-05 -8.00152501864679e-05 -8.59546010308849e-05 -7.61707254045522e-05 -5.10548049801991e-05 6.6037135465184e-05
"53" -0.000145388895300121 -8.51533818480272e-05 -0.000158773574533609 -0.000160816337854906 -0.000101642888689332 3.55789475081953e-05 1.17298675229949e-05 7.12092836439315e-06 -1.63048829132066e-05 5.9915764165657e-05 -2.4403056650353e-05 -7.88336400142499e-05 -8.36538664756603e-05 -6.66349242179103e-05 -4.38561413376721e-05 6.98344892630465e-05
"54" -0.000136287235696369 -7.89890218210373e-05 -0.000157047919391291 -0.000150789646173537 -9.29349915900573e-05 4.51542427047041e-05 2.0480954340253e-05 8.21824844977489e-06 -4.94219052271528e-06 6.46109810531428e-05 -1.79778994460147e-05 -7.7781394951663e-05 -8.1514879964353e-05 -5.73045035897044e-05 -3.67300459639848e-05 7.33681512700076e-05
"55" -0.000127248153293824 -7.2958644473326e-05 -0.000155100874556839 -0.000140617301870502 -8.41893412970812e-05 5.45637539715205e-05 2.92596612982829e-05 9.22746362413867e-06 6.21205096723253e-06 6.89635383263158e-05 -1.17324427991935e-05 -7.68528559539964e-05 -7.9522203218663e-05 -4.81938013517772e-05 -2.96732186685102e-05 7.66434605290379e-05
"56" -0.000118275826472082 -6.70661483654633e-05 -0.000152932808000954 -0.000130309862848517 -7.54072261146792e-05 6.38029326264515e-05 3.80610348345865e-05 1.01498857878952e-05 1.71541634531432e-05 7.29793618449341e-05 -5.65563660120429e-06 -7.60372206145953e-05 -7.76640435742742e-05 -3.93102356012372e-05 -2.26895305565796e-05 7.966356552667e-05
"57" -0.000109385134327294 -6.13114944083206e-05 -0.000150559756240915 -0.000119886764366838 -6.65978111267437e-05 7.28639370183505e-05 4.68806349575176e-05 1.09879203797713e-05 2.78712976240695e-05 7.6652752922395e-05 2.48533271896416e-07 -7.53333611369828e-05 -7.59274435435522e-05 -3.06710902251368e-05 -1.57815701728491e-05 8.24340406785953e-05
"58" -0.000100581945920177 -5.57001693316422e-05 -0.000147984363989106 -0.000109358943164014 -5.77637602117952e-05 8.17433530252445e-05 5.57149819281461e-05 1.17427431985554e-05 3.83682078693238e-05 7.99936132324746e-05 5.98762002772004e-06 -7.47276312231568e-05 -7.42973392385554e-05 -2.22862143759434e-05 -8.95029690481762e-06 8.49664981565483e-05
"59" -9.18681639735672e-05 -5.02290114268911e-05 -0.00014521297558803 -9.87423412582726e-05 -4.89092679012262e-05 9.0435986299724e-05 6.45574296682166e-05 1.24223908685651e-05 4.86391719370823e-05 8.30023071955748e-05 1.15694659147679e-05 -7.42074582073911e-05 -7.27537330824938e-05 -1.41617212530736e-05 -2.19249969963329e-06 8.72685626402417e-05
"60" -8.3249627494942e-05 -4.4894303386013e-05 -0.000142256605143973 -8.80488010619017e-05 -4.0036562318752e-05 9.89398010283186e-05 7.33996249862552e-05 1.30319190392773e-05 5.86820188544604e-05 8.56882560888399e-05 1.70000316328909e-05 -7.37631036912263e-05 -7.1281838920282e-05 -6.30564645710393e-06 4.49201740224711e-06 8.93534598877711e-05
"61" -7.47267686051423e-05 -3.96949406675402e-05 -0.000139123977122676 -7.72933601032465e-05 -3.11524502182381e-05 0.00010725678564726 8.22419970095901e-05 1.3579366803032e-05 6.84942326593223e-05 8.80587930836506e-05 2.22870676682786e-05 -7.33775171970459e-05 -6.98573740525344e-05 1.27976023433298e-06 1.11070667498694e-05 9.12346624606508e-05
"62" -6.62998439421005e-05 -3.46242046423048e-05 -0.000135822409827355 -6.64861800176106e-05 -2.22607033778632e-05 0.000115384318601018 9.10754784302215e-05 1.40706403667708e-05 7.80772411833927e-05 9.01202329790022e-05 2.74392270127182e-05 -7.30342353110289e-05 -6.84620414986755e-05 8.59042182899855e-06 1.76536096361674e-05 9.29304220623637e-05
"63" -5.79690216017797e-05 -2.96752715308578e-05 -0.000132362892878118 -5.56394557704325e-05 -1.33677065917302e-05 0.000123322057627556 9.98942997832961e-05 1.45128424627604e-05 8.74293217543528e-05 9.18847172753298e-05 3.24650801362229e-05 -7.27140171178918e-05 -6.70760529502781e-05 1.56239765710959e-05 2.41365824701575e-05 9.44543177982972e-05
"64" -4.9736252063099e-05 -2.4841145050658e-05 -0.000128751411441131 -4.47681332913427e-05 -4.47478504991172e-06 0.000131076780384145 0.000108691290177071 1.49215277900652e-05 9.65506115615792e-05 9.33664118535937e-05 3.73748758567358e-05 -7.24025292366468e-05 -6.56775778930934e-05 2.23828093242765e-05 3.05631838470619e-05 9.58262231846561e-05
"65" -4.15935611400385e-05 -2.01126940554921e-05 -0.000125000333104141 -3.38816211342274e-05 4.40857966359643e-06 0.000138646754112262 0.000117461101630361 1.52994038591959e-05 0.000105441036895213 9.45745885081859e-05 4.21788451103188e-05 -7.20792215400747e-05 -6.4245259308056e-05 2.88687171931249e-05 3.69319889154359e-05 9.70611348938923e-05
"66" -3.35379928503642e-05 -1.54834340965234e-05 -0.000121116840859481 -2.29933198660728e-05 1.32788338624078e-05 0.000146036993447166 0.000126198324759616 1.56596142332041e-05 0.000114106314196794 9.55254054348635e-05 4.68847722728417e-05 -7.17237437690949e-05 -6.27585705171862e-05 3.50855911557912e-05 4.32555642074513e-05 9.81813462611383e-05
"67" -2.55662681178889e-05 -1.09438146884737e-05 -0.000117109691148901 -1.2111862760068e-05 2.21312429922338e-05 0.000153252373334408 0.000134895574417463 1.60108442023307e-05 0.000122544692411123 9.62316208443407e-05 5.15037300111278e-05 -7.13154138909356e-05 -6.11956881380925e-05 4.10374164733145e-05 4.95344102361322e-05 9.92059605839808e-05
"68" -1.76747285129547e-05 -6.48449401890166e-06 -0.000112992099659477 -1.25290664310506e-06 3.09591040961407e-05 0.000160299611958588 0.00014354479965699 1.63688298471471e-05 0.000130759946502811 9.67151799617219e-05 5.60473938650553e-05 -7.08350369654682e-05 -5.95392828627639e-05 4.67336503043861e-05 5.57776455309364e-05 0.000100153554571883
"69" -9.84975559552391e-06 -2.0920314472368e-06 -0.000108767038417609 9.57601232356579e-06 3.97539826031088e-05 0.000167181247772702 0.000152138533561655 1.67385199711256e-05 0.000138753018765981 9.69869093307203e-05 6.05219637879868e-05 -7.02637492224331e-05 -5.77687506382789e-05 5.21797631399621e-05 6.19847753882851e-05 0.00010104385139211
"70" -2.10248679986355e-06 2.22972280376637e-06 -0.000104454175062767 2.03548475672673e-05 4.85080343846546e-05 0.000173903571224559 0.000160662190537454 1.71343637260762e-05 0.00014652934320296 9.7062479875942e-05 6.49375189281926e-05 -6.95812068839377e-05 -5.58709996555125e-05 5.73824712592082e-05 6.81675905271183e-05 0.000101891688829605
"71" 5.58638265865691e-06 6.50148649840131e-06 -0.000100058734467524 3.10785449002341e-05 5.72183918349818e-05 0.000180474827608342 0.000169117524872972 1.75666927676579e-05 0.000154088906204148 9.69697410956233e-05 6.93027135976977e-05 -6.87674255125691e-05 -5.38246951810956e-05 6.23568680962292e-05 7.43295907205334e-05 0.000102721961990757
"72" 1.32174252789886e-05 1.07231294693869e-05 -9.55896095999099e-05 4.17309259117313e-05 6.58741678371042e-05 0.000186896979884932 0.000177487133133324 1.80425479204499e-05 0.000161437883975273 9.67192503264845e-05 7.36261527417141e-05 -6.78037108235683e-05 -5.16199765394043e-05 6.71094819325253e-05 8.04713024980574e-05 0.000103546816725999
"73" 2.07922781756009e-05 1.49032316509539e-05 -9.10601096489847e-05 5.22958301050956e-05 7.44699129256237e-05 0.000193181217914913 0.00018576288411976 1.85758945514838e-05 0.000168576752393947 9.63368198728743e-05 7.79129814786519e-05 -6.66757097097974e-05 -4.92422855009771e-05 7.16520934758124e-05 8.66003094208717e-05 0.000104382406926719
"74" 2.8319416097067e-05 1.90455931828177e-05 -8.64793629449918e-05 6.27611706510459e-05 8.29887530094723e-05 0.000199329162193902 0.000193935141721725 1.91727978982655e-05 0.000175511847885274 9.58343734134203e-05 8.21692251542087e-05 -6.53657986200036e-05 -4.66853700460224e-05 7.59939528427167e-05 9.27149609525825e-05 0.000105248602351698
"75" 3.58015882077136e-05 2.31585490117378e-05 -8.18542747596244e-05 7.31098261735036e-05 9.14315396822939e-05 0.000205349833165277 0.000201993568667783 1.98428433769165e-05 0.000182245227838745 9.52379308201746e-05 8.63997447177376e-05 -6.38609519484473e-05 -4.39382376443053e-05 8.01499761024355e-05 9.88226758530143e-05 0.000106154662993277
"76" 4.32321107510798e-05 2.72356432080826e-05 -7.72048416930684e-05 8.33249192182835e-05 9.9774726481592e-05 0.0002112465172813 0.000209925081579418 2.05947976812345e-05 0.000188777991740823 9.45647419335192e-05 9.06065151393818e-05 -6.21464937204207e-05 -4.09980158171704e-05 8.41276586837433e-05 0.000104918309889235 0.00010711236403073
"77" 5.06264011282835e-05 3.12833429836198e-05 -7.25327408417261e-05 9.33905775998239e-05 0.000108020325713617 0.000217021229531543 0.00021771674899656 2.14304655319572e-05 0.000195115649024785 9.38342143215923e-05 9.4793907694827e-05 -6.02164288804615e-05 -3.78602710791758e-05 8.79401261880829e-05 0.000111002261739724 0.000108135159818176
"78" 5.79702377367611e-05 3.52986382126715e-05 -6.78546717694346e-05 0.000103285522243627 0.000116150627793821 0.00022268147763866 0.000225354241927249 2.23626418738507e-05 0.000201260855579472 9.3067117859977e-05 9.89638982321693e-05 -5.80563844140312e-05 -3.45253751988732e-05 9.1598032871626e-05 0.000117075509209668 0.000109230062360529
"79" 6.52709848570435e-05 3.92780783528551e-05 -6.31805725056903e-05 0.000112992388191354 0.000124150580449905 0.000228227314764499 0.00023282757216422 2.338987633384e-05 0.00020721369416003 9.22777674942551e-05 0.000103112499483262 -5.56641238066381e-05 -3.09988842500809e-05 9.51070408134421e-05 0.000123131815878198 0.000110406332107302
"80" 7.25213926493397e-05 4.32174494645627e-05 -5.85184871979807e-05 0.000122488423705487 0.000132010772051289 0.000233661555972214 0.000240121370851114 2.45169395403608e-05 0.000212980223736795 9.14869198709203e-05 0.000107238533227745 -5.30347128999973e-05 -2.72812687625786e-05 9.84829630920173e-05 0.000129165375466821 0.00011166401372573
"81" 7.97231652175683e-05 4.71156959591219e-05 -5.38827587432398e-05 0.000131757258066918 0.000139718317871921 0.000238985754747489 0.000247222462201656 2.57479553072439e-05 0.00021856083328194 9.07145133052893e-05 0.000111342094434233 -5.01632104596719e-05 -2.33803494315358e-05 0.00010172765661547 0.000135173059070176 0.000113011569328103
"82" 8.68674711055372e-05 5.09579659999747e-05 -4.92811792384888e-05 0.000140772090976276 0.000147258074006948 0.000244199595284496 0.000254115369597094 2.7077470517909e-05 0.000223957906260537 8.9973556709962e-05 0.000115415482008959 -4.70522136346399e-05 -1.93080695109144e-05 0.000104855105413299 0.00014114600630322 0.000114448565883
"83" 9.39455621150081e-05 5.47409890845714e-05 -4.47302062809371e-05 0.000149511507493547 0.000154613046477036 0.000249299994551052 0.000260786735501018 2.85130345217767e-05 0.000229170745542651 8.9280080993799e-05 0.00011945348538614 -4.37046369168645e-05 -1.50739706913666e-05 0.00010786488149492 0.000147074548360251 0.000115974410529662
"84" 0.000100956085197929 5.84521079361031e-05 -4.02279841181853e-05 0.000157955728715769 0.000161776009413073 0.000254286877669663 0.000267223302688383 3.00480197882921e-05 0.000234205803959061 8.86524873327776e-05 0.000123451052858565 -4.01247300604519e-05 -1.0693552946864e-05 0.000110767585742639 0.000152949332719749 0.000117591948786885
"85" 0.000107887717823283 6.20802728373127e-05 -3.57951335535438e-05 0.000166078020608072 0.000168730101976236 0.000259156869903694 0.000273410103072545 3.16794317324244e-05 0.000239062569981869 8.81022003213627e-05 0.000127400219138725 -3.63178904358179e-05 -6.17965169058391e-06 0.000113567205891037 0.00015875592687044 0.000119291143741054
"86" 0.000114730401001152 6.56140438709939e-05 -3.1437049084845e-05 0.000173853275171964 0.000175454302967912 0.000263905813073803 0.000279335048056811 3.34035992262833e-05 0.000243738935001245 8.76419244221774e-05 0.000131289799973771 -3.22971610399806e-05 -1.55433265820079e-06 0.000116264119225893 0.000164483784241412 0.000121072750384369
"87" 0.000121471211725907 6.90373144217874e-05 -2.71587607814151e-05 0.000181260933413065 0.000181942165394974 0.000268524994954168 0.000284982396573651 3.52136624446869e-05 0.000248237225026946 8.72845854617174e-05 0.000135110745207058 -2.80680016143137e-05 3.16833551521376e-06 0.000118861742593201 0.000170119175085675 0.000122928435779908
"88" 0.000128104814571591 7.23413729503316e-05 -2.2971504675308e-05 0.000188277637564947 0.000188176232262508 0.000273012142380209 0.000290342355624096 3.71047689474013e-05 0.000252561070980002 8.70416333337904e-05 0.000138855229326098 -2.36482568138181e-05 7.96579297886295e-06 0.000121359264089582 0.000175647679500223 0.000124850245438075
"89" 0.000134610159840271 7.55050142437974e-05 -1.88865164199633e-05 0.000194875314928399 0.000194139492769806 0.000277353951437911 0.000295397668214892 3.90661281496793e-05 0.000256705467514588 8.69136229534031e-05 0.000142504752173331 -1.90525303796239e-05 1.28149935809158e-05 0.000123757740027686 0.000181048133408777 0.0001268314333821
"90" 0.000140989896218897 7.85206498636753e-05 -1.48975922067923e-05 0.000201040710688154 0.000199824842263349 0.000281548721162383 0.000300151875377354 4.10967433097486e-05 0.000260676426631233 8.69239869606862e-05 0.000146056483412001 -1.42931966394005e-05 1.76999522272074e-05 0.000126057164128765 0.000186310535253354 0.000128863207612451
"91" 0.000147221646840247 8.13730162634504e-05 -1.10181640413571e-05 0.000206746086015851 0.000205215900985788 0.000285581812696391 0.000304580141093186 4.31801766439438e-05 0.00026447043846168 8.70662944980132e-05 0.000149489641736858 -9.39374048657555e-06 2.25934520326043e-05 0.000128250709173003 0.000191412093019556 0.000130938069002958
"92" 0.000153296915983754 8.40463797183524e-05 -7.24907483552475e-06 0.000211975447491652 0.000210301528808018 0.000289447206824194 0.000308684327146886 4.53049723916036e-05 0.000268088944862735 8.73502888554219e-05 0.000152797882889913 -4.36993079525397e-06 2.7475882428656e-05 0.000130337963720585 0.000196342869481079 0.00013304656374589
"93" 0.00015920346027449 8.65310794792927e-05 -3.58980682293481e-06 0.000216710000436618 0.00021507173123631 0.000293135555277668 0.000312458416120728 4.74715099893368e-05 0.00027153395781689 8.77819302196917e-05 0.000155967100884215 7.55501449345827e-07 3.23265890702808e-05 0.000132314062944249 0.00020108000817377 0.000135174649962745
"94" 0.00016493332827791 8.88169581113237e-05 -4.77080755905228e-08 0.000220933335659124 0.000219518759000003 0.000296632168291556 0.000315893390590849 4.96606624757345e-05 0.000274803929551253 8.83603705912686e-05 0.000158984913097151 5.96451735224759e-06 3.7124525389684e-05 0.000134173929368813 0.000205608341032561 0.000137316249676593
"95" 0.000170477297808462 9.08904516797759e-05 3.38663933388916e-06 0.000224633769540003 0.00022363358441771 0.000299928268355706 0.0003189900489684 5.18605297264429e-05 0.000277901318411374 8.90920172759205e-05 0.000161838330967676 1.12332174348213e-05 4.18458582594808e-05 0.000135913390395006 0.00020991209028504 0.000139465129221954
"96" 0.000175819369681497 9.27421337508634e-05 6.70575265041196e-06 0.000227796405965572 0.000227410976393243 0.000303014689974302 0.000321745194029059 5.40648388306701e-05 0.000280825754024241 8.99751735505482e-05 0.000164518153326356 1.65407574741318e-05 4.64759352354226e-05 0.000137523235648518 0.000213975278655559 0.000141607703137809
"97" 0.000180961544084487 9.43713809747534e-05 9.92419580123166e-06 0.000230418930392196 0.000230847956456808 0.000305880816882381 0.000324165511135018 5.62620789821772e-05 0.000283579413575581 9.10090148989162e-05 0.000167011611564858 2.18637245862866e-05 5.09941192363064e-05 0.000138998979809888 0.000217784079629205 0.00014373641896926
"98" 0.000185890833998334 9.57680501544857e-05 1.30354144745556e-05 0.000232487629277032 0.000233936287620351 0.000308513280907811 0.000326253107550371 5.84416181940264e-05 0.000286164900404682 9.21937805909401e-05 0.000169310666929636 2.71818829256923e-05 5.53851170327042e-05 0.000140332365467783 0.000221323276128031 0.000145848116431431
"99" 0.000190602174343157 9.69299727885369e-05 1.60515302603238e-05 0.000234004258834207 0.000236676689167794 0.00031090376974631 0.00032800890216873 6.05928055117721e-05 0.000288580537935859 9.35207816514106e-05 0.000171403906308981 3.24733217145494e-05 5.96349765289962e-05 0.000141518011135721 0.000224578016353403 0.000147933561321825
"100" 0.000195099416978587 9.78598207166733e-05 1.89825215935719e-05 0.000234971861178112 0.000239075189523296 0.000313045026742553 0.00032945070061225 6.27054709039945e-05 0.000290831280803569 9.49920848217695e-05 0.00017328796078692 3.77138564061329e-05 6.37301937429158e-05 0.000142551193871729 0.000227541037419543 0.000149988926002109
"101" 0.000199373979619859 9.85583343951769e-05 2.18348587497263e-05 0.000235391318022809 0.000241132070487787 0.000314922178846426 0.000330578994223136 6.47703926162652e-05 0.000292920966624883 9.65993606330844e-05 0.000174951324964485 4.28844513793046e-05 6.76582746057113e-05 0.000143421076213641 0.000230200154423643 0.000152009177012751
"102" 0.000203432050879002 9.90302386029362e-05 2.46231528067458e-05 0.000235272045285644 0.000242854883471201 0.000316531512651867 0.000331413472714836 6.6776004307901e-05 0.00029484761261382 9.83363118244536e-05 0.000176389713775933 4.79636762643192e-05 7.14135331876816e-05 0.000144123929769704 0.000232545009984877 0.000153993138195578
"103" 0.0002072702872737 9.92836007252092e-05 2.73521572579898e-05 0.000234622582711401 0.000244247793669008 0.000317864060971858 0.000331966891493069 6.8719696407326e-05 0.000296616454415514 0.000100196239019115 0.000177600857119517 5.29362704556088e-05 7.49868751345202e-05 0.000144653720014348 0.000234575813962764 0.000155938673988285
"104" 0.000210896428299666 9.93257231505709e-05 3.00401723259048e-05 0.000233460019103263 0.000245321484577782 0.000318912027924878 0.00033225519421083 7.05948970239675e-05 0.000298233162663072 0.000102176030935918 0.000178580585404048 5.77797981941781e-05 7.8377534248366e-05 0.000145007533850899 0.000236283661972868 0.000157846653413769
"105" 0.000214315591403593 9.91728069094983e-05 3.26959929942816e-05 0.000231799486322693 0.000246087358415023 0.000319672769524471 0.000332295770418842 7.23892473354302e-05 0.000299696825032016 0.000104257575064505 0.000179327577327199 6.24787323701583e-05 8.15792768263507e-05 0.000145173990350511 0.000237662829522353 0.000159716577318676
"106" 0.000217537034315043 9.88366029883181e-05 3.53394490820321e-05 0.000229668339531347 0.00024656327310196 0.000320140350042301 0.000332112088316168 7.41051307761466e-05 0.000301020271983135 0.000106438900296377 0.000179843158249997 6.70187555246417e-05 8.45964639139173e-05 0.000145158773110918 0.000238722464814971 0.000161554033838913
"107" 0.000220567559073454 9.83365977691944e-05 3.79808667747233e-05 0.000227084974595996 0.000246756931870455 0.000320311165160187 0.000331723345437467 7.57297906853078e-05 0.000302197192955881 0.000108704745017446 0.000180125287032653 7.13834592333602e-05 8.74251134917769e-05 0.00014495209279447 0.000239457505425861 0.00016336180882147
"108" 0.000223421211287983 9.7686208888017e-05 4.06392198730512e-05 0.000224081492885293 0.00024669134007692 0.000320183353504095 0.000331153384848795 7.72692767162483e-05 0.0003032408728163 0.00011104759465819 0.000180181712174003 7.55636411929062e-05 9.00760669999604e-05 0.000144557444993162 0.000239873785821368 0.000165144119090385
"109" 0.000226109788584929 9.6913519499587e-05 4.33255658025619e-05 0.000220686511966035 0.000246384701958247 0.000319754642139244 0.000330426408233582 7.87134510462285e-05 0.000304149794289574 0.000113451888911925 0.000180014128088829 7.95400610873713e-05 9.2548630914135e-05 0.00014396729902218 0.000239974712710368 0.000166907652326521
"110" 0.000228646324849511 9.60386123129275e-05 4.60608862385414e-05 0.000216934354478223 0.000245859059093353 0.000319025631029386 0.000329566503289147 8.00623899697731e-05 0.000304930863579806 0.000115908097084279 0.000179626581694438 8.33093823620612e-05 9.48534108065514e-05 0.000143184538441807 0.000239766875862573 0.000168657223899551
"111" 0.00023104519342264 9.50818091702078e-05 4.88523715916188e-05 0.000212859959703388 0.000245128720581904 0.000317996823600113 0.000328600182923417 8.13157526926315e-05 0.000305588829008432 0.000118396500967046 0.000179025574975126 8.68585399601764e-05 9.69980077506507e-05 0.000142212733861401 0.000239264262986707 0.000170402410806495
"112" 0.000233323600371068 9.40738389840365e-05 5.1716586679241e-05 0.000208502459566485 0.000244223287192773 0.000316672918983891 0.000327549903172796 8.24741463332305e-05 0.000306131673243833 0.000120908767394663 0.000178221654665643 9.01777058153365e-05 9.8987650945814e-05 0.000141047912812996 0.000238475418111905 0.000172148256117602
"113" 0.000235497824083136 9.30389441292197e-05 5.46725302582705e-05 0.000203903743600026 0.00024316235970453 0.000315054636882296 0.000326442677229375 8.35368488353088e-05 0.000306560361680068 0.000123429685121983 0.000177223086543675 9.32665970547243e-05 0.000100838845796342 0.000139699257607859 0.000237412631869961 0.000173904988750191
"114" 0.000237582516328894 9.19995187276935e-05 5.77226640391749e-05 0.00019909933143741 0.000241970924957232 0.000313145608696387 0.000325304213114626 8.45032915397534e-05 0.000306879747234576 0.00012593952152961 0.000176035824235292 9.61102898042686e-05 0.00010255606312999 0.00013816571856667 0.000236089954086451 0.000175678913563167
"115" 0.000239599324347046 9.09882614786219e-05 6.08836673214316e-05 0.000194137600546064 0.000240672139305902 0.000310955052100208 0.000324161085297501 8.53787559137039e-05 0.000307098220223376 0.000128425822221892 0.000174672103482077 9.87100082684688e-05 0.000104157105164451 0.000136455665306293 0.000234523931765608 0.000177479102319651
"116" 0.000241555818407536 9.00278008569878e-05 6.41606708385061e-05 0.000189053834517859 0.000239288895675611 0.000308481046919543 0.00032302959370198 8.61572725080258e-05 0.000307213429230386 0.000130867286510111 0.000173141980995749 0.000101055401019106 0.000105642312263524 0.000134568175784061 0.000232725622998947 0.000179308857617226
"117" 0.000243473644282141 8.91403777360789e-05 6.75615189804591e-05 0.000183892922011249 0.000237842551918736 0.000305735058559825 0.000321932113938909 8.68446342321371e-05 0.000307229679249626 0.000133246975794421 0.000171455679587945 0.000103148370563478 0.000107025276678773 0.00013251319180097 0.000230714698384674 0.000181177372043079
"118" 0.000245367092214552 8.83519839173852e-05 7.10912699787834e-05 0.000178698224748948 0.0002363610927352 0.000302725931997207 0.000320892519720934 8.74491375341634e-05 0.000307154686924581 0.000135549085078362 0.000169623267636843 0.000104980407395864 0.00010831765289968 0.000130296160056908 0.000228509166927858 0.000183086750918257
"119" 0.000247250165326241 8.76900007430654e-05 7.47512680944713e-05 0.000173512703367284 0.000234866180079915 0.000299456118376376 0.000319927774852276 8.79604197951371e-05 0.000306989372551318 0.000137754476264233 0.000167659106392271 0.00010655284654492 0.00010952596069045 0.000127922161538256 0.000226125830316513 0.000185045626436634
"120" 0.000249130250282412 8.71689452801893e-05 7.85394882472282e-05 0.00016837096621319 0.000233368648093346 0.000295933638450939 0.000319050314958353 8.83854884229667e-05 0.000306729565429309 0.000139838558833051 0.000165566122974186 0.00010785748868111 0.000110652727325801 0.000125398657257216 0.000223580236553277 0.000187047884170614
"121" 0.000251025477297226 8.68153452795878e-05 8.24577123673416e-05 0.000163316677850765 0.0002318997414631 0.000292166951124142 0.000318275955167312 8.87240846750578e-05 0.000306383422471473 0.000141785873714126 0.000163363884248861 0.000108894771962806 0.000111707724914239 0.000122735715673395 0.000220891131459947 0.000189101646296772
"122" 0.000252938095772756 8.66373146744997e-05 8.64924121278661e-05 0.00015838224251246 0.00023046894181975 0.000288167711176743 0.000317613154979939 8.89783312218169e-05 0.000305946428979894 0.000143575025789534 0.000161055134097766 0.000109658239373766 0.000112690171275454 0.000119936761245725 0.000218072494787738 0.000191201508554837
"123" 0.000254880934715209 8.66569395184578e-05 9.06452828132517e-05 0.000153603816640479 0.000229092457363281 0.000283941379513706 0.000317072894965896 8.91485508052959e-05 0.000305418675568043 0.0001451833205126 0.000158651495679651 0.000110150083870643 0.00011360311462756 0.000117010397519559 0.000215141362426678 0.000193345035694006
"124" 0.000256852138189557 8.68791762216069e-05 9.48965473518725e-05 0.000149012720244151 0.000227783329036734 0.000279497107661789 0.00031665656384407 8.92346555924264e-05 0.000304803148693067 0.000146594234798588 0.000156164593845019 0.000110363538268351 0.000114448565929432 0.000113966611691643 0.000212118214555539 0.000195527200349396
"125" 0.000258857022908528 8.73145235960735e-05 9.92366964802401e-05 0.000144634435047162 0.000226553019929931 0.00027484465791599 0.000316364694968527 8.92348073218454e-05 0.000304092736111629 0.000147782411711751 0.000153596696845719 0.000110296201827987 0.000115216919512961 0.000110808982956202 0.000209010858508413 0.000197738754701463
"126" 0.000260893783131948 8.79701773368088e-05 0.000103646495391981 0.000140495312043466 0.000225411318212383 0.00026998644727806 0.000316200197444398 8.91445270725401e-05 0.000303286395033979 0.000148724412120135 0.000150956970966351 0.000109940093381335 0.000115904896991393 0.000107546785543606 0.000205835902940683 0.000199970522480551
"127" 0.000262960492104231 8.88427476714856e-05 0.000108106047288762 0.000136617296058446 0.000224359313549691 0.000264935690937564 0.000316151939331139 8.89647363576156e-05 0.000302379276900515 0.000149397732268371 0.000148250097218065 0.000109295308970203 0.000116505422871227 0.000104183359810459 0.000202601025857553 0.000202208568854021
"128" 0.000265046399199255 8.99314156415295e-05 0.000112589543261546 0.000133010535965991 0.000223398523025928 0.000259699511837895 0.000316218407647674 8.86921487200927e-05 0.000301366616630192 0.000149786550177318 0.000145482315723742 0.000108356680174865 0.000117006194163893 0.000100728708024463 0.000199321664623621 0.000204438503961798
"129" 0.000267151405758297 9.12325436167016e-05 0.000117078948503582 0.00012969701998396 0.000222533711775409 0.000254284104538092 0.000316386310408706 8.83205890006559e-05 0.000300244063877792 0.000149863987141638 0.000142654996764233 0.000107117256821404 0.000117395324334856 9.71859062584286e-05 0.000196003405380121 0.000206642919963848
"130" 0.000269258098348874 9.27366313077517e-05 0.000121542947344889 0.000126680714705641 0.000221757560252085 0.000248698160359941 0.000316639863463671 8.78479375243999e-05 0.000299004632814741 0.000149613252179699 0.000139774567420189 0.000105573642965873 0.000117657891839113 9.35639569529209e-05 0.00019265342923581 0.000208803045239583
"131" 0.000271355547375175 9.44301548586795e-05 0.000125954792294014 0.000123965245734797 0.00022106963577047 0.000242950396252525 0.000316967058414039 8.72702505340335e-05 0.000297645544092218 0.000149014129052191 0.000136841246952825 0.000103721395673459 0.000117777025394292 8.98649843237322e-05 0.000189279641412205 0.000210899145035643
"132" 0.000273426966098451 9.62982973028221e-05 0.000130280832577562 0.000121553774977989 0.000220452965508633 0.000237043043762593 0.000317342496259603 8.65761312822403e-05 0.00029615178737975 0.000148041378428202 0.000133850430479618 0.000101549738608947 0.000117731529604977 8.6091839643653e-05 0.000185883286455731 0.000212902430847539
"133" 0.000275456577193277 9.83203430903122e-05 0.0001344918238245 0.000119440125215681 0.000219903278457365 0.00023099007225034 0.000317749674991341 8.57675958865208e-05 0.000294524621628523 0.000146680924734891 0.000130809074329848 9.90591233700287e-05 0.000117505295224007 8.22508856410094e-05 0.000182466315948795 0.000214794252455317
"134" 0.000277423397708772 0.000100478840393107 0.000138552978090668 0.000117615878683802 0.000219401281114469 0.000224795169457362 0.000318166838153122 8.48332358069211e-05 0.000292750606634228 0.000144913714393907 0.000127712318081835 9.62404417026129e-05 0.000117074013604773 7.83453977562819e-05 0.000179033107625538 0.000216546488036519
"135" 0.000279306960699267 0.000102744356492933 0.000142430788446341 0.000116071586568341 0.000218937813547063 0.000218468505852656 0.000318565187528813 8.37678246989118e-05 0.000290823997776461 0.00014272648044557 0.000124557207945115 9.30895522806995e-05 0.000116416519144316 7.43786145071383e-05 0.000175579766789737 0.000218129600155402
"136" 0.000281082276174356 0.000105096520266723 0.000146091807059309 0.00011478980443587 0.000218486308016375 0.000212011591891231 0.000318920744001395 8.25659411262578e-05 0.00028873829628549 0.000140102839199321 0.000121345874706017 8.96019046775633e-05 0.000115508922998641 7.03517268063134e-05 0.000172105724543157 0.000219516549032414
"137" 0.000282730410433825 0.000107501796516537 0.00014950282745728 0.000113751511829447 0.000218035652565628 0.000205438670593478 0.000319206504227491 8.12213802847792e-05 0.000286487187989884 0.000137029314950771 0.000118072114705274 8.5777283874416e-05 0.000114329611531122 6.62691214385136e-05 0.000168608208939098 0.000220685853687491
"138" 0.000284225300571158 0.00010993283613812 0.000152633511012267 0.00011293353324013 0.000217558410625431 0.000198756806019365 0.000319394125416341 7.97275166737253e-05 0.00028405864839482 0.000133500157387002 0.000114731505062132 8.16100716066784e-05 0.000112855943806486 6.21328343635785e-05 0.000165083476088657 0.000221599884180755
"139" 0.000285546072075686 0.000112363219779948 0.000155449275288752 0.000112312307079651 0.000217035700551419 0.000191976243065987 0.000319459989182796 7.80821133324904e-05 0.000281452564319649 0.000129501815424837 0.000111325567951022 7.71001534654951e-05 0.000111066082796584 5.79445370319032e-05 0.000161529315384204 0.000222237675640101
"140" 0.000286666470395598 0.000114755162568265 0.000157924932230079 0.000111858965509553 0.000216442466260916 0.000185101101935862 0.000319375163395074 7.62773887082457e-05 0.000278655771484625 0.000125028858803128 0.000107845591916774 7.22465304285143e-05 0.000108939348020808 5.37066795650988e-05 0.000157935938793939 0.000222568741326952
"141" 0.000287561737560338 0.000117079848637271 0.000160025698771318 0.000111544884367336 0.00021575579489497 0.000178147305903703 0.000319111231607074 7.43102104143919e-05 0.000275667505843757 0.000120080896295751 0.000104290348966074 6.7048508659525e-05 0.000106456028282684 4.94221527498782e-05 0.00015429823903122 0.000222569415923682
"142" 0.000288216295719647 0.000119306239710069 0.000161730477925763 0.000111337237761555 0.000214954285503448 0.000171128444746577 0.00031865195642135 7.21871732274083e-05 0.000272486750053319 0.000114661330035972 0.000100662104489291 6.15180626893382e-05 0.000103607119466226 4.50945213688478e-05 0.000150618044572059 0.000222218041466874
"143" 0.000288605696219712 0.000121407263218197 0.000163020721653123 0.000111206684086537 0.000214012050162491 0.000164052144169094 0.000317969778372932 6.9899219098258e-05 0.00026910850231831 0.000108769126668492 9.69549311337233e-05 5.56529642235258e-05 0.000100369408480478 4.07285159547965e-05 0.000146883953320064 0.000221490770483504
"144" 0.000288714487545885 0.000123348235812487 0.000163873672455566 0.0001111183402884 0.000212909435944765 0.000156933089188019 0.000317044705837982 6.74495502360147e-05 0.000265530343183933 0.000102407997756222 9.31700549993961e-05 4.946454038998e-05 9.67387580364377e-05 3.63264317812559e-05 0.000143090253036595 0.000220368675321471
"145" 0.000288523027686006 0.000125105272394391 0.000164276145171748 0.000111039319942442 0.000211625156778577 0.000149786012206627 0.00031586028884943 6.48442532433987e-05 0.000261753617932827 9.55956083886973e-05 8.93068349023329e-05 4.29633208294972e-05 9.27080689496153e-05 3.18954972531072e-05 0.000139240467759569 0.000218841422757355
"146" 0.00028802415698916 0.000126654466673753 0.000164219374904298 0.000110938989089672 0.000210137940724115 0.000142630537858626 0.000314404502233283 6.20833987034403e-05 0.00025778350223903 8.83403870967071e-05 8.53705955550806e-05 3.61675953718802e-05 8.82726936754455e-05 2.74439377042632e-05 0.000135325682789445 0.000216890950091702
"147" 0.000287204993691012 0.000127972545637801 0.000163695725251962 0.000110784377017151 0.000208438011650462 0.000135481943881791 0.000312663748222627 5.9178885752482e-05 0.000253619681398815 8.06591346743239e-05 8.13601275275701e-05 2.9085082182856e-05 8.34373488382786e-05 2.29722163170573e-05 0.000131347585784913 0.000214511445113543
"148" 0.000286061317064292 0.000129041393937772 0.000162705165245467 0.000110548537332537 0.000206501502374447 0.00012835728812571 0.000310636426106941 5.61346241427575e-05 0.000249268102816634 7.2574284024229e-05 7.72825641526281e-05 2.17403261336324e-05 7.8204729491694e-05 1.84934675629157e-05 0.000127307942395249 0.00021169994362688
"149" 0.000284585275199165 0.000129843725760027 0.000161251051719335 0.00011019813501352 0.000204324958937985 0.000121278731105437 0.000308311944442366 5.29688749334252e-05 0.00024473879236403 6.41093305977791e-05 7.31443099622598e-05 1.41565385095376e-05 7.25875624539468e-05 1.40148225979022e-05 0.000123206156367094 0.000208451765176862
"150" 0.000282784296951261 0.000130371214258968 0.000159343897776402 0.000109714313485249 0.000201894357348302 0.000114267495359525 0.000305698884294304 4.96934267652522e-05 0.000240040767788401 5.52921388989518e-05 6.89561997891249e-05 6.35605837152595e-06 6.66016931003068e-05 9.55156685865324e-06 0.000119047271305191 0.000204777491703543
"151" 0.000280660604837408 0.000130615766069431 0.000156997599768991 0.000109069979825071 0.000199211628854942 0.000107350213860967 0.000302801998629399 4.63227336800223e-05 0.000235185147276462 4.61527698844965e-05 6.47251542741592e-05 -1.62970944053312e-06 6.02672684489717e-05 5.11298627328978e-06 0.000114836085986395 0.000200680433690492
"152" 0.000278219405245203 0.000130569494467417 0.000154226310270813 0.000108243202144551 0.000196266014796918 0.000100544007813911 0.000299629080159235 4.2877367347502e-05 0.000230183740267322 3.67267643249804e-05 6.04657554486273e-05 -9.77421600885702e-06 5.36105919506332e-05 7.1005880313285e-07 0.000110583772714092 0.000196175739020618
"153" 0.000275483923826101 0.000130236570254261 0.0001510610437478 0.000107225234680332 0.000193070188098145 9.38795485385361e-05 0.000296199808588816 3.93804132618888e-05 0.000225055913406155 2.70559928284218e-05 5.61910475660083e-05 -1.80363702260103e-05 4.66620693413755e-05 -3.63757126735136e-06 0.000106303782602973 0.000191283920730689
"154" 0.000272460864183646 0.000129623540660724 0.000147527187657795 0.000105997668533148 0.000189620594016447 8.7379498094881e-05 0.000292527462233494 3.5852602776758e-05 0.000219817722610836 1.71735638974826e-05 5.1920284009199e-05 -2.63846170399727e-05 3.94588924502846e-05 -7.91256895157493e-06 0.000102003888375238 0.000186028865491054
"155" 0.000269182449450785 0.000128741873149822 0.000143662076209321 0.000104557986882581 0.000185939739807749 8.10762558559157e-05 0.000288641952280958 3.23198019632019e-05 0.000214489651286827 7.12855193620079e-06 4.7671690499061e-05 -3.47734513243822e-05 3.20425092089011e-05 -1.20968903386437e-05 9.77049485264417e-05 0.000180437746452508
"156" 0.000265669501278985 0.000127603233244668 0.00013950405873581 0.000102899614982675 0.000182035937807654 7.49904258392702e-05 0.000284568069676719 2.88076097896853e-05 0.000209090287968493 -3.03433455899784e-06 4.34628954109203e-05 -4.31672374355316e-05 2.4453560360416e-05 -1.61750095459803e-05 9.34233244029484e-05 0.000174538700049688
"157" 0.000261950299497232 0.000126225019590446 0.000135092381838034 0.000101021369965559 0.000177931805266158 6.91540539523153e-05 0.00028033522425116 2.53464439092191e-05 0.000203644591621447 -1.32651906001709e-05 3.93193070598457e-05 -5.15168629535941e-05 1.67451954838113e-05 -2.01199494356611e-05 8.91802209913887e-05 0.000168373152242784
"158" 0.000258055001887553 0.000124635215577691 0.000130476670148132 9.8929393804305e-05 0.00017364463551189 6.35968297257545e-05 0.000275980498253157 2.19657665970029e-05 0.000198175390218181 -2.35159703574931e-05 3.52622747254664e-05 -5.97783882397016e-05 8.96761565191214e-06 -2.39151478130335e-05 8.50023810223869e-05 0.000161981800984566
"159" 0.00025402697597692 0.000122858804909538 0.000125707089985891 9.66329813149035e-05 0.000169209122637568 5.83424724809966e-05 0.000271546396810822 1.86982999627316e-05 0.000192710607323502 -3.3732784630748e-05 3.13190733191452e-05 -6.79050774562671e-05 1.1790784279589e-06 -2.75311705597477e-05 8.09108468945278e-05 0.000155408331916493
"160" 0.000249901328374405 0.000120924951771928 0.000120836710079362 9.41466532876093e-05 0.000164652658020031 5.34232316966678e-05 0.000267068598386091 1.55782127903315e-05 0.000187275958698983 -4.38587260968712e-05 2.75186430556819e-05 -7.58453203871589e-05 -6.5607196114408e-06 -3.09482629369986e-05 7.69367359479693e-05 0.000148699499265467
"161" 0.000245718201497228 0.000118874074558536 0.000115923223198843 9.14889747522371e-05 0.000160008538983471 4.88643043748043e-05 0.000262593358310298 1.26322477672195e-05 0.000181900224575685 -5.38426123954568e-05 2.3887143306566e-05 -8.35516989279695e-05 -1.41925163054695e-05 -3.4136486843589e-05 7.31094368415807e-05 0.00014190972142605
"162" 0.000241523366796706 0.000116739767040918 0.000111017926638666 8.86785727523704e-05 0.000155320123495441 4.46910080644768e-05 0.000258166302215444 9.89602115098321e-06 0.0001766092000947 -6.36290646312018e-05 2.04519822674666e-05 -9.09724671924039e-05 -2.16542560511988e-05 -3.70735074235572e-05 6.94593290958973e-05 0.000135088933724663
"163" 0.000237357714726112 0.000114560243924639 0.000106187166277427 8.57406353121388e-05 0.000150621030165135 4.09292756190722e-05 0.000253832418031366 7.40360837302565e-06 0.000171432018456534 -7.31644115106015e-05 1.7245225821966e-05 -9.80566786143803e-05 -2.88813473020081e-05 -3.97352004413147e-05 6.60221079971223e-05 0.00012829369686756
"164" 0.000233270880075334 0.000112379561876742 0.000101485444683818 8.27082542538549e-05 0.000145960990608082 3.76030376915923e-05 0.000249639843860915 5.18229440128062e-06 0.000166400919885264 -8.23883064364745e-05 1.42961569086452e-05 -0.000104756333109521 -3.58060332568286e-05 -4.20883257674789e-05 6.28296767266857e-05 0.000121580642307666
"165" 0.000229302993134106 0.0001102424180087 9.69714088617404e-05 7.96075005651622e-05 0.000141380330313644 3.47319374697385e-05 0.000245634711442143 3.27064005723965e-06 0.000161542351185424 -9.12501757928414e-05 1.16343082435291e-05 -0.000111021888991116 -4.23699140967711e-05 -4.41126852616631e-05 5.99141075038767e-05 0.00011500615783644
"166" 0.000225509926268415 0.000108192222689846 9.27095530184574e-05 7.64785868064145e-05 0.00013693315264663 3.23380902552976e-05 0.000241866230019014 1.69043545756329e-06 0.00015688671283551 -9.96938617342936e-05 9.2914206294201e-06 -0.000116808414523255 -4.85046922845951e-05 -4.57791735858477e-05 5.73146444749237e-05 0.000108631412919827
"167" 0.00022192697265097 0.000106276044811477 8.87556144497799e-05 7.33536029473996e-05 0.000132658538472147 3.04369044380739e-05 0.000238377435664903 4.70701824476673e-07 0.00015246246249718 -0.00010766835781489 7.29814515421239e-06 -0.000122064159167079 -5.41518364138352e-05 -4.70644279878392e-05 5.5065964057073e-05 0.000102514291962159
"168" 0.000218602290035648 0.000104534787994727 8.51599717147907e-05 7.02730477715979e-05 0.00012860894956321 2.90420019838189e-05 0.000235213221009562 -3.6202656327689e-07 0.000148293025050516 -0.000115123302403994 5.68022627868863e-06 -0.000126751096972706 -5.92508892849835e-05 -4.79422442771235e-05 5.32025308122914e-05 9.6708679531406e-05
"169" 0.000215576701427808 0.000103016465799745 8.19821820409323e-05 6.7274812707521e-05 0.00012483128999223 2.81662617475867e-05 0.000232411710155926 -7.84194560362333e-07 0.000144410213400206 -0.000122011669204402 4.46699555880018e-06 -0.000130828822614812 -6.3745330348729e-05 -4.83926025503117e-05 5.17566776092827e-05 9.12730522815373e-05
"170" 0.000212885644957299 0.000101761901824585 7.92700160988272e-05 6.43993304375436e-05 0.000121373630192699 2.78147403167998e-05 0.000230013734868994 -7.82361067314293e-07 0.000140832105123827 -0.000128289963171608 3.68505769608667e-06 -0.000134256345666748 -6.75862029365377e-05 -4.83906843675139e-05 5.0760465434856e-05 8.62571327250764e-05
"171" 0.000210573107627049 0.000100811699658618 7.70683620031239e-05 6.16889048729669e-05 0.000118282471457842 2.79913872936835e-05 0.000228053513485023 -3.35893469950431e-07 0.000137589634176386 -0.000133912095974069 3.35791555439181e-06 -0.000136998030110711 -7.07222726847409e-05 -4.79173127475061e-05 5.02474939618187e-05 8.17163514427257e-05
"172" 0.000208666544374369 0.000100207580417982 7.54217446262632e-05 5.91828302930947e-05 0.000115604054768528 2.87002088891568e-05 0.000226559952998756 5.66319848354968e-07 0.000134700070415046 -0.000138835692327821 3.51220203083859e-06 -0.000139029047586853 -7.31078617651306e-05 -4.69554630032321e-05 5.02497440758374e-05 7.76954198610544e-05
"173" 0.000207194449742029 9.9982531725971e-05 7.43662689335135e-05 5.6920729288651e-05 0.000113380807981127 2.99320064765431e-05 0.000225559109169218 1.93041245836964e-06 0.000132181489521437 -0.000143033574938531 4.16261763167003e-06 -0.000140319638514474 -7.47080449006053e-05 -4.54924111440282e-05 5.07859798492751e-05 7.4238592994899e-05
"174" 0.00020618255885506 0.000100164331805692 7.3933517265402e-05 5.49373727218728e-05 0.00011164880292779 3.16840003443006e-05 0.000225068375682747 3.76195475339636e-06 0.000130055427386659 -0.000146470134344182 5.33150402421611e-06 -0.00014085000428083 -7.54886084447803e-05 -4.35112078916074e-05 5.18890661946438e-05 7.13875413752e-05
"175" 0.000205649988705981 0.000100786703302603 7.41480084107112e-05 5.3271806471397e-05 0.000110446968474191 3.39393234859439e-05 0.000225104768637487 6.05451089219244e-06 0.000128332320438757 -0.000149119671560088 7.03236995319343e-06 -0.000140604139566514 -7.54265768890817e-05 -4.10060958210823e-05 5.35715983142268e-05 6.91748565272013e-05
"176" 0.000205609432761426 0.000101870895832641 7.50306617621234e-05 5.19567555099829e-05 0.000109807616859144 3.66859301951069e-05 0.000225674877989052 8.80926616708177e-06 0.00012702438420069 -0.000150958487318826 9.27348254044559e-06 -0.000139571220087345 -7.45012820847046e-05 -3.79695584140301e-05 5.58548631440717e-05 6.7632904165862e-05
"177" 0.000206070446061126 0.00010343568189847 7.65951545944243e-05 5.10223689809863e-05 0.000109754757492733 3.9897927323819e-05 0.000226780443468559 1.20102094169381e-05 0.000126141878805817 -0.000151972088736599 1.2068563609952e-05 -0.000137744044889593 -7.26999197829315e-05 -3.43975075657285e-05 5.87535176467703e-05 6.67845421167005e-05
"178" 0.000207035092677465 0.000105493102696851 7.88476354773523e-05 5.04953891044418e-05 0.000110313582793054 4.35488089766385e-05 0.00022841419040075 1.56412461040043e-05 0.000125689262876597 -0.000152147983362634 1.54200981276217e-05 -0.00013512532228528 -7.00192352237283e-05 -3.02902169477092e-05 6.22718844493916e-05 6.6647803415013e-05
"179" 0.000208500142159239 0.000108055008042363 8.17899868897223e-05 5.04030307406293e-05 0.000111502904690703 4.76154905839161e-05 0.000230571331249076 1.96830604727286e-05 0.000125669061985454 -0.000151474972055128 1.93297113250034e-05 -0.000131719062274921 -6.64606665035573e-05 -2.56508617717285e-05 6.64173168645845e-05 6.72398168527921e-05
"180" 0.000210453682597748 0.000111117446979256 8.54104573122509e-05 5.07596982427893e-05 0.000113331173470617 5.20606756282111e-05 0.000233229330385966 2.41130599431059e-05 0.000126086005905931 -0.000149953526968584 2.37971108047039e-05 -0.000127532912997504 -6.20333310350686e-05 -2.04881937306144e-05 7.11906455727146e-05 6.85616287685741e-05
"181" 0.000212884708286334 0.00011468369282107 8.96980453646084e-05 5.15842129705913e-05 0.000115803695072148 5.68424033567944e-05 0.000236361656832397 2.88940644176167e-05 0.000126927858033859 -0.000147590891362467 2.88100767936893e-05 -0.000122593161664989 -5.67574980933909e-05 -1.48171516120349e-05 7.65849425132069e-05 7.06157561725386e-05
"182" 0.000215766961945896 0.000118740233870022 9.46319105729138e-05 5.28868247686508e-05 0.000118926569688858 6.19234822072714e-05 0.000239937543050459 3.39936828140795e-05 0.000128194482884487 -0.000144393621937277 3.43639176863108e-05 -0.000116917961765305 -5.06597920223831e-05 -8.64829249487998e-06 8.2592352107299e-05 7.33952446787806e-05
"183" 0.000219075279224265 0.000123271572584542 0.000100182265417261 5.46730202136866e-05 0.000122685304461426 6.72537601938041e-05 0.000243919768510069 3.93697088293303e-05 0.000129873516026013 -0.000140377884363884 4.04420935378721e-05 -0.000110537032780465 -4.37704052900611e-05 -2.00152629562844e-06 8.9195349705234e-05 7.68893953424686e-05
"184" 0.000222774583487088 0.000128261623461804 0.000106315523395548 5.69444130682646e-05 0.000127071880032678 7.278724971463e-05 0.000248262639356856 4.49767684924278e-05 0.000131951121844615 -0.000135562720779923 4.70241380380426e-05 -0.000103484261350138 -3.61318095631981e-05 5.0977014485343e-06 9.63762997035e-05 8.10763656173525e-05
"185" 0.000226825660080582 0.000133679690861857 0.000112992592843388 5.96962001080535e-05 0.00013206234697482 7.84671302810272e-05 0.000252913051376335 5.07674082820583e-05 0.000134407151401968 -0.000129979437612498 5.40879226610114e-05 -9.5805114442243e-05 -2.77920013634088e-05 1.26206845572718e-05 0.000104107157938588 8.59275555914968e-05
"186" 0.000231184233426115 0.000139492170410101 0.000120161527678737 6.29183507160591e-05 0.000137636013489472 8.42459907567883e-05 0.000257819119085051 5.66901869355871e-05 0.00013722950747658 -0.000123655896479502 6.16094383188022e-05 -8.75398592553617e-05 -1.88040295072105e-05 2.05408820742962e-05 0.000112359520167521 9.14153051007982e-05
"187" 0.000235802452915313 0.000145670521172343 0.000127774913903744 6.66014983340724e-05 0.000143759577206298 9.00589417237004e-05 0.000262916399539028 6.26871064512395e-05 0.000140386482449225 -0.000116636313391568 6.95552170271367e-05 -7.87474376070021e-05 -9.22951304108011e-06 2.88202700208968e-05 0.000121093719598833 9.74957582729456e-05
"188" 0.000240625198375694 0.000152164232303617 0.000135771205532902 7.07213800914519e-05 0.000150391117638719 9.58495190327436e-05 0.000268137794937679 6.87028328167997e-05 0.000143857099064747 -0.000108954001612939 7.78924579018363e-05 -6.94746689952445e-05 8.65865600547393e-07 3.74221186141528e-05 0.00013027576029217 0.000104131518201101
"189" 0.000245592974706139 0.000158927864082077 0.000144087613534224 7.52553983877298e-05 0.000157486580538181 0.000101558159148936 0.000273416174065329 7.46696529344169e-05 0.000147612556010608 -0.000100663145234208 8.65817520152185e-05 -5.97854872654609e-05 1.14094169193926e-05 4.63072212240682e-05 0.00013985614954977 0.000111271522399288
"190" 0.000250649937915394 0.000165918715423235 0.000152664082690602 8.01799787504671e-05 0.000165000566165147 0.00010712410829585 0.000278675565285371 8.0534162458131e-05 0.00015162117326448 -9.18151277379336e-05 9.55841854623896e-05 -4.97445767155611e-05 2.23263171916676e-05 5.5428228777965e-05 0.00014978924389112 0.000118858984053823
"191" 0.000255730884928693 0.000173076576011805 0.000161425217259944 8.54598713679413e-05 0.000172875127945946 0.000112488532949194 0.000283842941538234 8.62304120940189e-05 0.000155850517821229 -8.24689547399899e-05 0.000104854087613588 -3.94191143632315e-05 3.35373326902879e-05 6.47409473554439e-05 0.000160017777202557 0.000126838919971533
"192" 0.000260767409200763 0.000180348313680327 0.000170302992435849 9.10572232867502e-05 0.000181051328082361 0.000117587247693832 0.00028883886557248 9.16917382586689e-05 0.000160261085347074 -7.26827097038393e-05 0.000114343522587894 -2.88787353231709e-05 4.495820394448e-05 7.41949732046568e-05 0.000170486655760968 0.000135144616339804
"193" 0.000265698890823655 0.00018767990973136 0.000179222573325189 9.69364942543578e-05 0.000189464172284726 0.000122366894391214 0.000293585230867613 9.68585902697655e-05 0.000164822990526143 -6.25221735851451e-05 0.00012400586083668 -1.81969436724664e-05 5.65045458158698e-05 8.37413209366037e-05 0.00018113611111667 0.000143714327846481
"194" 0.000270453255119867 0.000195002282490793 0.000188110142981008 0.000103050676994563 0.000198049519622151 0.000126763132070937 0.000298006994439514 0.000101667005315565 0.000169488962565239 -5.20543789218429e-05 0.000133786408243876 -7.44652869006433e-06 6.80872910622364e-05 9.33258046948859e-05 0.000191903539483687 0.000152475261960167
"195" 0.000274971900164224 0.000202262974209202 0.000196890382225421 0.000109360985113894 0.000206733700885271 0.000130729895607198 0.000302027174439592 0.000106059330329707 0.000174229052814917 -4.13486999020138e-05 0.000143635757871081 3.29837058870165e-06 7.9623459893491e-05 0.000102900692018892 0.000202725841004543 0.000161364962489738
"196" 0.00027918721487024 0.000209404959922269 0.000205493842858608 0.00011581707681786 0.000215447810387249 0.0001342098599882 0.000305569190444121 0.000109977186754259 0.000178995974505781 -3.04793152884982e-05 0.00015349738497311 1.39587309914281e-05 9.10249466240239e-05 0.000112408854768642 0.000213531823232847 0.000170309070705932
"197" 0.000283034597375362 0.000216357904463689 0.000213840427005639 0.000122370773887005 0.000224113618707409 0.000137161293444582 0.000308563730402691 0.000113368565721596 0.000183756156467455 -1.95131634370242e-05 0.000163320813528615 2.44648964194644e-05 0.000102209423999112 0.00012179721857192 0.000224260543351868 0.000179234775706633
"198" 0.000286460368162467 0.00022307421922241 0.000221871362222274 0.000128975683069941 0.000232662297309591 0.000139538183126907 0.000310943966394215 0.000116181332200295 0.000188465780408931 -8.52826896759703e-06 0.000173047542832897 3.47429577024083e-05 0.000113092669655059 0.000131017378566153 0.000234843962687713 0.000188072284674725
"199" 0.000289405111959091 0.000229494654587002 0.000229514791938316 0.00013558310651434 0.000241015474509618 0.000141304601924386 0.000312646087225234 0.000118371496123552 0.000193087422854463 2.39949179091172e-06 0.000182624770595534 4.47179286247467e-05 0.000123593292821451 0.00014001310397636 0.000245210306634956 0.000196752558420039
"200" 0.000291821532894967 0.00023556977673573 0.000236709529302875 0.000142143142759798 0.000249103568119932 0.000142429511654936 0.000313614041962275 0.000119901557253698 0.000197580852296622 1.3206000727783e-05 0.000192001056520988 5.43219047791336e-05 0.00013364186522763 0.000148739110520286 0.000255298164826752 0.000205205493569574
"201" 0.000293663126831052 0.000241245294922265 0.000243398187452048 0.000148608845790238 0.000256853680192362 0.00014288671690054 0.000313798127550414 0.000120735272776902 0.000201911238488779 2.38141244160266e-05 0.000201121696425935 6.3490938788716e-05 0.000143163334735526 0.000157145190856582 0.000265042185466465 0.000213368701093846
"202" 0.00029488728358408 0.000246480038535617 0.000249531267188038 0.000154935068888253 0.000264199475674492 0.000142652534496535 0.000313152672085595 0.000120848284525626 0.000206042266669541 3.41546236638724e-05 0.000209937421267652 7.21641027362426e-05 0.000152095425626873 0.000165186517251223 0.000274377296240853 0.000221177525912662
"203" 0.000295469049729471 0.000251234375854331 0.000255066027909779 0.000161082036704881 0.000271070251690392 0.00014172287998864 0.000311649995024922 0.000120218390319211 0.00020994327696796 4.41659663536293e-05 0.000218401382868768 8.02789359697493e-05 0.000160381250889878 0.000172826327780445 0.000283248509018866 0.000228576584953414
"204" 0.000295378098519235 0.000255476966715193 0.000259957993017952 0.00016700800719038 0.000277411140651022 0.00014008752021502 0.0003092573077298 0.000118837413991453 0.000213582611556333 5.37829115685252e-05 0.000226473406099133 8.77887753676403e-05 0.000167971955123918 0.000180021962589783 0.000291601673337053 0.00023551191803976
"205" 0.000294597377608515 0.000259172153361004 0.000264179059526949 0.000172675205034979 0.000283159072673546 0.000137751408740131 0.000305959240587049 0.000116700536615626 0.000216928939192647 6.29433799283481e-05 0.000234101982809713 9.4644609699343e-05 0.000174820987764237 0.000186742546733697 0.00029938057614622 0.00024193294410392
"206" 0.000293116240123439 0.000262305176510711 0.000267704893670361 0.000178052432130811 0.000288268552982102 0.000134722274566057 0.000301748788175629 0.000113812869150425 0.000219962054856592 7.15974285961957e-05 0.000241257685640203 0.000100805215364168 0.000180896703465299 0.000192955390447202 0.000306541995837478 0.000247802442892584
"207" 0.000290935946454629 0.000264857951690269 0.000270524079469682 0.000183115127314397 0.000292694329378438 0.000131017547776367 0.000296628484654181 0.000110183680533052 0.000222660211240066 7.96973475999418e-05 0.000247905357696272 0.000106237812672541 0.000186172181114102 0.000198638112565147 0.000313042376594174 0.000253080969706251
"208" 0.000288058928729002 0.000266819498914599 0.000272624033476608 0.000187833128089352 0.000296398666862454 0.000126662487109471 0.000290609881684368 0.000105832062896753 0.000225002802747665 8.71969344660134e-05 0.000254011712329656 0.000110913582108055 0.000190628950351953 0.00020377199374647 0.000318849818237002 0.000257737963971856
"209" 0.000284500422547688 0.000268187855076094 0.00027400890403236 0.000192191132969182 0.00029934787314371 0.00012168653507321 0.000283714060555522 0.000100794081736912 0.000226976170341591 9.40582769797482e-05 0.000259555749776285 0.000114814076771764 0.000194259467474065 0.000208339719192524 0.000323927375185591 0.000261752317976353
"210" 0.000280282703316338 0.000268972603403319 0.000274682920442525 0.000196176634153867 0.000301519776408313 0.000116132024613556 0.000275973935768552 9.5099475928376e-05 0.000228572293613324 0.000100251997398419 0.000264518421969826 0.000117922266237664 0.000197063092302334 0.000212334470960997 0.00032825811232596 0.000265108614224599
"211" 0.000275439342468576 0.000269178439505619 0.000274666752843167 0.000199781402974884 0.000302902153721855 0.000110041902204088 0.000267430691920311 8.87980659532444e-05 0.000229782379770061 0.00010575171168318 0.000268883032616003 0.000120237129183464 0.000199048789110716 0.000215751677270248 0.000331820181044881 0.000267795889409889
"212" 0.00027000883396291 0.000268832643590613 0.000273984037522943 0.000203004606504594 0.000303485033938264 0.000103469544490914 0.000258136445054653 8.19383000441215e-05 0.000230605617560445 0.000110542981290997 0.000272639620536372 0.000121755838966288 0.000200234847805966 0.000218595688112489 0.000334608399810661 0.00026981702293816
"213" 0.000264032033599179 0.000267953091926679 0.000272670940948164 0.000205845934874745 0.000303266241899651 9.64652604589288e-05 0.000248148277949737 7.45817208717343e-05 0.000231037175506605 0.000114608175513244 0.000275782062203682 0.000122484422526007 0.00020064366840302 0.000220867178214137 0.000336611068014056 0.000271168989305458
"214" 0.00025756296063817 0.000266573176620922 0.00027075874266837 0.000208311550360709 0.000302254575959806 8.909718302736e-05 0.000237533570296813 6.67907992253883e-05 0.000231088401532461 0.000117945530099831 0.000278309531828035 0.00012243891105219 0.000200307798839807 0.000222585662698963 0.00033783524673611 0.00027187056948083
"215" 0.000250662718273648 0.000264731000450137 0.00026829420995727 0.000210420001370177 0.000300468750618386 8.14309435835178e-05 0.000226370319815442 5.86410373553292e-05 0.000230763663955112 0.000120558222021403 0.000280233402590392 0.000121644481868618 0.000199268211367487 0.000223765401921559 0.000338291655825261 0.000271936962685486
"216" 0.000243392771317139 0.000262468510970483 0.000265336485043063 0.00021218746604344 0.000297935984757069 7.35382761079842e-05 0.000214736462286684 5.02069854975204e-05 0.000230076423164954 0.000122451679953317 0.000281557412379162 0.000120121715078903 0.000197570240874907 0.000224429488127436 0.000337991233241599 0.000271391278229348
"217" 0.000235820757078225 0.000259829295394895 0.000261937275487097 0.000213631171867769 0.000294678369800904 6.54872991908171e-05 0.000202723118687092 4.15685828361472e-05 0.000229041231686365 0.00012364218465585 0.000282296264072789 0.000117906807236375 0.000195261548805949 0.000224605843329148 0.000336958508843133 0.000270265745489142
"218" 0.000228019802954868 0.000256867567630823 0.000258158798145957 0.000214782725432881 0.000290740440947788 5.73515234387391e-05 0.000190419504718722 3.28074033843962e-05 0.000227671904714185 0.000124143870742482 0.000282466004438939 0.000115034149728219 0.000192395370722236 0.000224322834579299 0.00033521575821293 0.000268590948265319
"219" 0.000220068061439948 0.000253636565303871 0.000254066801554016 0.000215669860265674 0.000286170050752747 4.92161259968677e-05 0.000177924531723549 2.40147845037746e-05 0.000225997772317328 0.000123990050330816 0.000282092408040956 0.000111551681622761 0.000189036993582965 0.000223619883993325 0.000332801363966479 0.000266411433558455
"220" 0.000212040146474176 0.000250191139184107 0.000249728565356327 0.00021632352466256 0.000281011716082744 4.1148676123898e-05 0.000165337256350577 1.52721649484044e-05 0.000224033699436477 0.000123208912959197 0.0002812001667596 0.000107501497492111 0.000185243311727865 0.000222532733769406 0.000329748494901729 0.000263766073898795
"221" 0.000204016422455244 0.000246590469786522 0.000245215838727216 0.000216781682505253 0.000275319165290109 3.32285088766782e-05 0.000152755972302898 6.67183687152271e-06 0.000221807603372179 0.000121828770812087 0.00027981818767114 0.000102935086752021 0.0001810766313299 0.000221103882156336 0.000326101092520852 0.000260705577254442
"222" 0.000196080782848418 0.000242898256114498 0.000240604651897365 0.000217083194106222 0.000269163440806167 2.55371912717683e-05 0.000140290159341072 -1.69097966691432e-06 0.000219346759620789 0.000119899754144514 0.00027797838563726 9.79092736396558e-05 0.000176605378842116 0.000219378642219212 0.000321907447510275 0.000257275780495587
"223" 0.000188310406327083 0.000239174813151373 0.000235964199957805 0.000217263630857658 0.000262605506996432 1.8141868024789e-05 0.000128036503338976 -9.73911152280676e-06 0.000216678750235274 0.000117455102513394 0.000275710959043269 9.24709557419611e-05 0.000171888989287163 0.000217399401157475 0.000317209433068843 0.000253528318215739
"224" 0.000180777548052832 0.000235472198133461 0.000231364001070146 0.000217360903238308 0.00025571195139382 1.11147347233432e-05 0.000116097725465418 -1.73842941772449e-05 0.000213833378285367 0.000114547594427591 0.000273053443395033 8.6686262868147e-05 0.00016699183694973 0.00021521711409349 0.000312065654972392 0.000249514589516582
"225" 0.000173570656386769 0.000231860024315805 0.000226884146094072 0.000217417981125183 0.000248551676960686 4.52705813166207e-06 0.000104572576355322 -2.45434270254205e-05 0.000210839133959155 0.000111219272174191 0.000270043606302162 8.06063351152952e-05 0.000161974348235041 0.000212877789520454 0.00030652414613483 0.000245287255006969
"226" 0.000166752090584132 0.00022838866657614 0.00022258595698111 0.000217474984981783 0.000241202395472039 -1.56481408754548e-06 9.35512402378085e-05 -3.11387791154881e-05 0.000207727227359887 0.000107521756616043 0.000266720806008021 7.42919633064823e-05 0.000156893267570825 0.000210433128060428 0.000300649503249384 0.000240900960590851
"227" 0.000160395223866047 0.000225111629818247 0.000218540118686649 0.000217566380760594 0.000233730325842022 -7.0953701275276e-06 8.31295349660932e-05 -3.70993656022763e-05 0.000204527750807667 0.000103510979703811 0.000263120937443589 6.77993014367071e-05 0.000151803863283047 0.000207925510164183 0.000294489754325043 0.000236405130221006
"228" 0.00015456800662158 0.000222087942122421 0.00021480932161787 0.000217732109533928 0.000226217995110442 -1.20160045919217e-05 7.33876054745067e-05 -4.23561404404051e-05 0.000201269466054408 9.92299682559888e-05 0.000259280179187502 6.11883541637882e-05 0.000146753416045955 0.000205407602702772 0.000288105815535281 0.000231848966504052
"229" 0.00014932734258889 0.000219358493140043 0.000211449759690091 0.000218006477044943 0.000218731483765871 -1.62738037370836e-05 6.44096141695051e-05 -4.68454962104439e-05 0.000197981572204876 9.47385248641951e-05 0.000255241155657888 5.45112277947831e-05 0.000141790013727776 0.000202923189226324 0.000281553136696897 0.000227278566419009
"230" 0.000144730234740107 0.000216969658591857 0.000208524562383487 0.000218419879848942 0.00021134246800824 -1.9832075967513e-05 5.62655267060223e-05 -5.051727596677e-05 0.000194692343198371 9.00808305893612e-05 0.000251036504947962 4.78247392075639e-05 0.000136948446228799 0.000200516051862369 0.000274886118050599 0.000222741408677302
"231" 0.00014082228368794 0.000214957464307817 0.000206073731994644 0.000219001270583784 0.00020411947108081 -2.2655824946356e-05 4.90134376417483e-05 -5.33260163146086e-05 0.000191425323038642 8.53122314164318e-05 0.000246704699978404 4.1175311944622e-05 0.000132263992317579 0.000198224751921812 0.0002681609625561 0.000218276668270101
"232" 0.000137641820423698 0.000213356172621008 0.000204140622417114 0.000219776266820886 0.000197135028140354 -2.47159381969509e-05 4.27165382412018e-05 -5.52270372777949e-05 0.00018820899709346 8.04805920068527e-05 0.000242278840492196 3.461631969291e-05 0.000127761136050135 0.000196095194116957 0.000261429996968589 0.00021392272848798
"233" 0.00013522803783617 0.000212190813663884 0.000202766068714028 0.000220766390332765 0.000190437298347805 -2.59946945233479e-05 3.74151684091312e-05 -5.61975936888509e-05 0.000185061391255026 7.56322742371881e-05 0.000237792453352843 2.81878711452661e-05 0.000123459699786885 0.000194160054754518 0.000254744342973902 0.000209710811460015
"234" 0.000133602676497165 0.000211485506327417 0.000201980115745076 0.000221987410665438 0.000184098755797594 -2.64775767407569e-05 3.31497631539782e-05 -5.6214754250519e-05 0.000182006241026747 7.08105403929868e-05 0.000233271881710335 2.19350011823472e-05 0.000119371174518444 0.000192449062370373 0.000248147638474498 0.000205672589993799
"235" 0.000132786716611612 0.000211253803264884 0.000201802957297657 0.000223453061057078 0.000178162133774021 -2.61608514407448e-05 2.99475267592467e-05 -5.52667758114659e-05 0.000179060577272145 6.60586795776108e-05 0.000228748853504976 1.58925389977242e-05 0.000115498702490241 0.000190991965322433 0.000241685577408692 0.000201828392892608
"236" 0.000132789711935414 0.00021150308831615 0.000202254592651807 0.000225172183456431 0.000172681951041869 -2.50492613962867e-05 2.78216620350408e-05 -5.33513398307673e-05 0.000176241711558242 6.14171544263676e-05 0.000224246308744632 1.00940251679952e-05 0.000111843667264063 0.000189815931581463 0.000235398080167198 0.000198199438921526
"237" 0.000133614379582645 0.000212235213174897 0.000203336013894933 0.000227144791061242 0.000167691588370084 -2.31506708158269e-05 2.67802161644078e-05 -5.04787207701207e-05 0.000173559319771343 5.69185432324879e-05 0.000219784489433385 4.56887102443294e-06 0.000108391557067046 0.00018893410308748 0.000229320706481133 0.000194795514443732
"238" 0.000135251912727693 0.00021344484482835 0.000205055320184476 0.000229370433025386 0.000163234119124598 -2.04900423269473e-05 2.68185847770725e-05 -4.66681993443364e-05 0.000171023335595895 5.25928838828122e-05 0.00021538571733289 -6.61846282601967e-07 0.000105127396234803 0.000188369036753618 0.00022348496447578 0.000191629255042537
"239" 0.00013769359896665 0.000215121110061505 0.00020740494768782 0.000231842110989566 0.000159334906442943 -1.70839854663904e-05 2.79233719111638e-05 -4.1943752974922e-05 0.000168644722968204 4.84749922412319e-05 0.000211062903745851 -5.57241828118112e-06 0.00010202888887377 0.000188126047941013 0.000217921638280238 0.000188698949599313
"240" 0.000140914397926843 0.000217245146501108 0.000210371143576053 0.000234547195685386 0.000156014450773597 -1.29749186840042e-05 3.00652085148826e-05 -3.63430582356426e-05 0.000166424409015754 4.45815625358369e-05 0.000206830294675422 -1.0150315451245e-05 9.90669789221274e-05 0.000188213167942386 0.000212647203632584 0.00018600297800973
"241" 0.00014488475139716 0.000219793434582577 0.000213932511406077 0.000237468701913587 0.00015328997102944 -8.19984304052782e-06 3.32135171264878e-05 -2.991136731196e-05 0.000164363204296124 4.09345123488067e-05 0.000202695565903319 -1.43849919542788e-05 9.62059137211284e-05 0.000188630194027675 0.000207683145549274 0.000183534095749096
"242" 0.000149565829389156 0.000222731336513078 0.000218057148568275 0.000240581402260897 0.000151163933404409 -2.80495366278935e-06 3.73156160611473e-05 -2.27070175769231e-05 0.000162463206185619 3.75491580492474e-05 0.000198668748929863 -1.82687034855079e-05 9.34021440780894e-05 0.000189372944890321 0.000203046468426859 0.000181282889806456
"243" 0.000154917652030146 0.000226032380942262 0.000222719120105695 0.000243867489133553 0.000149647139841028 3.1541438354861e-06 4.23244789190025e-05 -1.47890911684594e-05 0.000160718328179522 3.44378723016825e-05 0.000194748297477252 -2.17998878270517e-05 9.06161993800381e-05 0.000190431006872432 0.000198739985333766 0.000179225589855878
"244" 0.000160886502361051 0.000229648885626395 0.000227873266860707 0.000247289270189432 0.000148721607471631 9.61926737094828e-06 4.81686499418409e-05 -6.23427482403089e-06 0.000159121629860702 3.16041134403673e-05 0.000190936558598124 -2.49781725298799e-05 8.77967216228301e-05 0.000191796424083836 0.000194769224965314 0.000177345930667195
"245" 0.000167416041746158 0.000233536254762139 0.000233478271477667 0.000250814595182464 0.000148384114584218 1.65257811316091e-05 5.47837291498025e-05 2.8819884834498e-06 0.000157663408150872 2.90558013739717e-05 0.00018722881525073 -2.78117215731281e-05 8.48916454373341e-05 0.000193446599298792 0.00019113386719669 0.000175615437337536
"246" 0.000174447130973015 0.000237646448074596 0.000239474685969534 0.000254404121946759 0.00014860704572073 2.38051987607854e-05 6.20785157725843e-05 1.24745312784237e-05 0.000156330186958081 2.67865647891769e-05 0.000183620107810893 -3.03077521465748e-05 8.18471529496683e-05 0.000195361107162415 0.000187831480335728 0.000174004725711424
"247" 0.000181913764619874 0.000241931225402504 0.000245817603844484 0.000258023875617694 0.00014936957067069 3.13844113217359e-05 6.99774823225828e-05 2.24515126531654e-05 0.000155113185512791 2.47949122833504e-05 0.000180100314666162 -3.24780540369622e-05 7.86095839871043e-05 0.000197511490119346 0.000184848480753022 0.000172483784199189
"248" 0.00018973670836223 0.00024632279016603 0.000252434148365158 0.000261623875102789 0.000150634427972843 3.91879462051585e-05 7.83756260415758e-05 3.27148934241731e-05 0.000153991571394303 2.30698695309445e-05 0.000176663700606108 -3.43387492085748e-05 7.51230771420058e-05 0.000199870525108091 0.000182171519560546 0.000171016259879196
"249" 0.000197851741266654 0.000250770093829559 0.000259272171596135 0.000265160062972104 0.000152362988067636 4.71325096041931e-05 8.71779905155082e-05 4.31657512771192e-05 0.000152945438365886 2.15996402173542e-05 0.000173289824049127 -3.59069255765101e-05 7.13302928672796e-05 0.000202405937709252 0.00017978797956554 0.000169566190582638
"250" 0.000206179318044661 0.000255219118204913 0.000266266136419376 0.000268588318184922 0.000154515357495345 5.51459973743147e-05 9.62827701403926e-05 5.37010760045654e-05 0.000151962437660238 2.03709429461612e-05 0.000169969296722462 -3.72025171799097e-05 6.71802288055156e-05 0.000205080076956425 0.000177672302676538 0.000168094758134423
"251" 0.000214635621459497 0.000259598900627898 0.000273339303092012 0.000271858598509483 0.000157041389944093 6.31423385670096e-05 0.000105578113787753 6.4215738039446e-05 0.00015101593318954 1.93614817256059e-05 0.000166683649593642 -3.82452897776777e-05 6.26231580464649e-05 0.000207857137371765 0.000175806885760382 0.000166564321161991
"252" 0.000223148288600402 0.000263853895892666 0.000280430375012868 0.000274926919524502 0.000159888313538372 7.10403219750119e-05 0.000114957067114266 7.46012182463458e-05 0.000150089394713297 1.85511438963751e-05 0.000163416204321361 -3.90602966277365e-05 5.76112285010675e-05 0.000210692470532151 0.00017416207517007 0.000164935735413021
"253" 0.000231636251231851 0.000267926916266005 0.000287469009094819 0.000277742709766769 0.00016300173507163 7.87580884587225e-05 0.000124309180447892 8.47497473827689e-05 0.000149153707652928 1.7919478107027e-05 0.000160147297448359 -3.96698916518292e-05 5.20982521151733e-05 0.000213549239149145 0.000172707840911717 0.000163168593909863
"254" 0.000240014920552473 0.000271756294004968 0.000294386435790369 0.000280262073279512 0.000166320574510048 8.6218364283869e-05 0.00013351612650394 9.45550417199486e-05 0.000148190884043621 1.74389496444401e-05 0.000156855681935832 -4.01036393684636e-05 4.60475544313621e-05 0.000216379670482083 0.000171416517270351 0.000161228121920799
"255" 0.00024821238477611 0.000275287201411856 0.000301109468765732 0.00028243788296889 0.000169782976259176 9.334316460868e-05 0.000142471587664978 0.000103912807434929 0.000147176069421646 1.70826900353614e-05 0.000153524493243161 -4.03803637122335e-05 3.94257435228686e-05 0.000219141163807409 0.000170255595696105 0.000159074367172589
"256" 0.000256150806988804 0.000278465749208317 0.000307578221911743 0.000284230551422281 0.000173330629023482 0.000100055603962716 0.000151063308320799 0.0001127210421606 0.00014608608615197 1.68242155695725e-05 0.000150129367705824 -4.05277243207884e-05 3.22047190662248e-05 0.000221792043645142 0.000169193853873007 0.000156676250978562
"257" 0.000263761942405656 0.000281242202273423 0.000313730620440347 0.000285599547168891 0.000176897597066815 0.000106285187464992 0.000159187655357887 0.000120879726955032 0.000144897879341954 1.66357334122035e-05 0.000146656831039533 -4.05687174438285e-05 2.43693977153891e-05 0.00022428591434332 0.000168197226861088 0.000154002420002039
"258" 0.000270967321308013 0.000283568613725099 0.000319496757789898 0.00028650544908193 0.000180418536481639 0.000111968460328196 0.00016673526750537 0.000128300659780968 0.000143592110202375 1.64862164426276e-05 0.000143080038397644 -4.05295638685275e-05 1.59049738979595e-05 0.000226580726742769 0.000167227915300178 0.000151023608214622
"259" 0.000277713140475542 0.000285403108859404 0.000324824361312197 0.000286919069330477 0.000183829759438983 0.000117042894890873 0.000173613038083034 0.00013489636424409 0.000142144597082247 1.63519785315237e-05 0.00013938833699945 -4.04297171350834e-05 6.81140989425599e-06 0.000228636316671283 0.000166258648167996 0.000147715330876554
"260" 0.000283934175707892 0.000286709447385794 0.000329662012236906 0.000286810044436782 0.000187076369079854 0.000121449924862502 0.000179725439962257 0.00014058607599529 0.000140538650366714 1.62016346820253e-05 0.000135559896308892 -4.02904692026299e-05 -2.91130079748494e-06 0.000230411293471995 0.000165253783712579 0.00014405519900625
"261" 0.000289578718931576 0.000287460210226793 0.000333959614633398 0.000286156558485097 0.000190090383105164 0.000125142486783611 0.000184985493931601 0.000145300630527309 0.000138753761160949 1.60076095011135e-05 0.000131577127681791 -4.01341645066952e-05 -1.32479239653771e-05 0.000231870517617056 0.000164181737334759 0.00014002795605116
"262" 0.000294597836459741 0.00028762113561389 0.000337674610419979 0.000284935733301266 0.00019281859845821 0.00012807204131248 0.000189314667018986 0.000148972464233397 0.000136775790974543 1.57474719860607e-05 0.000127429416450091 -3.99747290799977e-05 -2.41758709880117e-05 0.000232976151529679 0.000163017016835573 0.000135625624370607
"263" 0.000298949166761659 0.000287178231018419 0.000340766733457683 0.000283135838161602 0.000195205446601013 0.000130207915677774 0.000192639934754909 0.000151550928167011 0.000134586200914829 1.53954516587784e-05 0.000123104664466188 -3.98286255998817e-05 -3.56642201999619e-05 0.00023370055080904 0.000161724278990736 0.000130836207165683
"264" 0.000302598977135303 0.000286117480255525 0.000343209681859119 0.000280750153108304 0.000197204932324342 0.000131519252766384 0.000194901512432636 0.000152989359147456 0.000132177717114049 1.49321197347714e-05 0.000118591316340522 -3.97109686248989e-05 -4.7673299164254e-05 0.000234014317229033 0.00016028227560013 0.000125659081903953
"265" 0.000305522766644434 0.000284434356699576 0.000344975450899995 0.000277773017704364 0.000198767896442237 0.000131983933227479 0.00019604350770792 0.000153257015578087 0.000129537784116504 1.43357927078055e-05 0.000113879810269564 -3.96277783605409e-05 -6.01548290483297e-05 0.000233889203937858 0.000158666303515391 0.000120099633183789
"266" 0.000307695720466449 0.000282119786915053 0.00034604121548058 0.000274208216499525 0.000199851766319376 0.000131588334150413 0.000196025363311854 0.0001523312108676 0.000126659525527216 1.35923892008962e-05 0.000108969201427373 -3.95897484605604e-05 -7.30542026099299e-05 0.000233311570446478 0.000156856593411849 0.000114166001611411
"267" 0.000309105306127453 0.000279183358828007 0.000346396116322123 0.000270063510665013 0.00020042269770705 0.000130321992166502 0.000194809896010609 0.000150196237192595 0.000123537399439205 1.26854912365286e-05 0.000103850813099447 -3.96042797878083e-05 -8.63097130383088e-05 0.000232258633780531 0.000154829400476378 0.000107867814299883
"268" 0.000309741013524398 0.000275633408719772 0.000346028535507476 0.00026534811595927 0.000200451423868936 0.000128189025626806 0.000192371891256329 0.000146848702560229 0.000120164800718045 1.16006588066107e-05 9.85255439437087e-05 -3.96716108491919e-05 -9.98517132151987e-05 0.000230720283011525 0.000152574736897174 0.000101223621472217
"269" 0.000309610208849056 0.000271492143768936 0.000344945912067748 0.000260086947508951 0.000199907754840925 0.000125199576983412 0.000188699277174547 0.000142301300620698 0.000116546337725239 1.03349022668632e-05 9.29990608515653e-05 -3.97950530620645e-05 -0.000113599791613494 0.000228689952099441 0.000150078810852039 9.42599284864727e-05
"270" 0.000308711085523507 0.000266773485311294 0.000343144649045468 0.000254298283379539 0.000198777700790241 0.000121367624220625 0.00018378921703564 0.000136571397916429 0.000112679837764161 8.87762387499814e-06 8.72678457717362e-05 -3.9975901547739e-05 -0.000127479091912582 0.000226163658885412 0.000147330503705864 8.69974763632384e-05
"271" 0.000307065889807844 0.000261514026870046 0.000340637810271699 0.000248017832867901 0.000197044385413491 0.000116713676868439 0.000177648777846758 0.000129692844288106 0.000108576136452154 7.23281054506506e-06 8.134941153771e-05 -4.02038881824426e-05 -0.000141398376913201 0.000223148189336473 0.00014432887651525 7.947523349142e-05
"272" 0.000304690243495994 0.000255738877219403 0.000337441204541111 0.000241270724732315 0.000194702478965152 0.000111275113773496 0.000170294942977811 0.00012170555523147 0.000104239259849085 5.39889721947641e-06 7.52457730640735e-05 -4.04777226934987e-05 -0.000155269704328026 0.000219639870885636 0.00014106597619357 7.17195478565082e-05
"273" 0.000301606013345455 0.000249485438199982 0.000333574544853199 0.000234094882197034 0.00019175024862299 0.000105075846904812 0.0001617471733744 0.000112652642430406 9.9674363193386e-05 3.37559938244512e-06 6.89687995472796e-05 -4.07918456828255e-05 -0.000169002709736877 0.000215656855798667 0.000137543806845901 6.37742375102127e-05
"274" 0.000297846573365405 0.000242798536657193 0.000329066509093455 0.000226531597565902 0.000188191583445501 9.81660862464348e-05 0.000152046082570055 0.000102602497801819 9.48989679379326e-05 1.17512574752166e-06 6.25333592504935e-05 -4.113718353622e-05 -0.000182500399182798 0.000211209838131511 0.000133765844624041 5.56771602030332e-05
"275" 0.000293448729270895 0.000235718526000368 0.000323943217521641 0.000218626487727629 0.000184034918549305 9.059195457933e-05 0.000141235579989231 9.16167052341979e-05 8.99240756724979e-05 -1.19383247068505e-06 5.59561689257909e-05 -4.15010962121467e-05 -0.000195668702039105 0.000206320950072252 0.000129738824961752 4.74689966074515e-05
"276" 0.000288444391545398 0.000228287061714292 0.000318235881119007 0.000210420651032216 0.000179298268533937 8.24019501725878e-05 0.000129362896653936 7.97759678344868e-05 8.47647203842807e-05 -3.71942961990687e-06 4.92561521154592e-05 -4.18764151502933e-05 -0.000208414089004285 0.000201008906046195 0.00012547024833247 3.91975737875854e-05
"277" 0.000282881408786306 0.000220558996899726 0.000311980535940158 0.000201962356423522 0.000174000827843331 7.36532129069501e-05 0.000116488051073712 6.71551231290928e-05 7.9437781220835e-05 -6.38810387786566e-06 4.24493842900183e-05 -4.22477128712947e-05 -0.000220645937585566 0.000195301408083458 0.000120969679928039 3.09052787385579e-05
"278" 0.00027680114879562 0.000212577283687719 0.000305219540686567 0.000193301122788006 0.000168166373513786 6.44080183109846e-05 0.000102679678999263 5.38507236795363e-05 7.39668583479189e-05 -9.17934020240759e-06 3.55617064889869e-05 -4.26065760450029e-05 -0.000232267378275677 0.0001892310177765 0.000116258940473139 2.26409423377926e-05
"279" 0.000270251664197249 0.0002043968894665 0.00029799147371025 0.000184486280601684 0.000161825388428092 5.47269725214913e-05 8.80070492758698e-05 3.99499139478394e-05 6.83700348750348e-05 -1.2075611104755e-05 2.86122935971687e-05 -4.29363391463197e-05 -0.000243195340600463 0.000182827427599026 0.0001113467562551 1.44502252545326e-05
"280" 0.000263282660800444 0.000196065537376582 0.000290342004370016 0.000175567848435654 0.000155010606171654 4.46699836011858e-05 7.25442745065214e-05 2.55497656177254e-05 6.26643827169299e-05 -1.5057031127328e-05 2.162502035147e-05 -4.32282476733027e-05 -0.000253346966280746 0.000176124077772535 0.000106253486738961 6.37699208589754e-06
"281" 0.000255942885051198 0.000187630790373464 0.00028230978848326 0.000166593424236694 0.000147755532930831 3.43099787566371e-05 5.6373399562634e-05 1.07549973515535e-05 5.68770860210993e-05 -1.80998979889906e-05 1.46252271755633e-05 -4.3467263833838e-05 -0.000262641804676535 0.000169162251084693 0.000100998664786591 -1.53369335583322e-06
"282" 0.000248275916974415 0.000179142943059415 0.000273938845239304 0.000157612246409062 0.000140103020611073 2.37108661593032e-05 3.95806160871554e-05 -4.33736145333762e-06 5.10281191964932e-05 -2.1180954454219e-05 7.63627535032406e-06 -4.36460674496029e-05 -0.00027101329471048 0.000161977176795088 9.55994760548468e-05 -9.24260528973532e-06
"283" 0.000240339256526751 0.000170648599578426 0.000265274460395029 0.000148671495676574 0.000132094799659899 1.29407517232927e-05 2.22498434489082e-05 -1.96186216343441e-05 4.51458340115042e-05 -2.42768362938628e-05 6.84833992854003e-07 -4.37494330701788e-05 -0.000278390329149633 0.000154615205507197 9.00834692867734e-05 -1.67051420567578e-05
"284" 0.000232180100535616 0.000162194641699403 0.000256364612971345 0.00013981992876098 0.000123773240011411 2.06795370491121e-06 4.47188218998401e-06 -3.49899948007498e-05 3.92490270685293e-05 -2.73589234152881e-05 -6.20427196113273e-06 -4.37706970322357e-05 -0.000284717639790607 0.000147115508358207 8.44691206725406e-05 -2.38826023157788e-05
"285" 0.000223839349128672 0.000153821021490399 0.000247244425449086 0.000131093249330286 0.000115180078990944 -8.84558305577161e-06 -1.36652506934536e-05 -5.03452756777527e-05 3.33609182037443e-05 -3.04086869929251e-05 -1.30071008032836e-05 -4.37036311795671e-05 -0.000289949955336187 0.000139518301421032 7.8778319685858e-05 -3.07454377174448e-05
"286" 0.000215363408184867 0.000145563737631792 0.000237956550522072 0.000122535088501593 0.000106362171141612 -1.97343016471332e-05 -3.20728439009506e-05 -6.55843547821655e-05 2.7505568943629e-05 -3.33980171084612e-05 -1.96990034357782e-05 -4.35374699290135e-05 -0.000294046206583602 0.000131868440577878 7.30334497767548e-05 -3.72593459050466e-05
"287" 0.000206798429554604 0.000137468182421376 0.000228547477458371 0.000114186880883388 9.73684766138749e-05 -3.05286871363386e-05 -5.06574689760787e-05 -8.06075948824611e-05 2.17104120289121e-05 -3.63012048582787e-05 -2.62531431494478e-05 -4.32663446721904e-05 -0.000296972282172073 0.000124210843848955 6.72606660558253e-05 -4.33958588636174e-05
"288" 0.000198180549673112 0.00012955627173539 0.000219047460178188 0.000106074975359693 8.82402117693511e-05 -4.11768289826491e-05 -6.93328255144469e-05 -9.53236867533096e-05 1.59915567970793e-05 -3.90984231365529e-05 -3.26532749948993e-05 -4.2889223387545e-05 -0.0002987115949419 0.000116583896454174 6.14799914120696e-05 -4.91360854931576e-05
"289" 0.000189547791198664 0.000121862445632725 0.000209494941122751 9.82337029448161e-05 7.90257247862394e-05 -5.16141872030533e-05 -8.8014037633874e-05 -0.000109634618493934 1.0373100471141e-05 -4.17627137349864e-05 -3.88690038883735e-05 -4.24051975281639e-05 -0.000299247201679052 0.000109030019888036 5.57148271242263e-05 -5.44552247145134e-05
"290" 0.00018093379231016 0.000114411981591257 0.000199926764881034 9.06899805246591e-05 6.97668235708242e-05 -6.17939729916845e-05 -0.000106615043515352 -0.000123458881429393 4.87376675219809e-06 -4.42770670368037e-05 -4.48832505165576e-05 -4.18138729184949e-05 -0.000298583038036436 0.000101593071715487 4.9982764729227e-05 -5.93445994977477e-05
"291" 0.00017236563098993 0.000107220332636783 0.000190368656298721 8.34643337519905e-05 6.05075430196415e-05 -7.16573243104761e-05 -0.000125051885759643 -0.000136715618096894 -4.83033959387084e-07 -4.66204550437725e-05 -5.06781939769552e-05 -4.11142961988174e-05 -0.000296723981740401 9.43080761796689e-05 4.43069654107194e-05 -6.37922756625828e-05
"292" 0.000163875199695189 0.000100311557534602 0.000180855219561717 7.65797911203862e-05 5.12851401722344e-05 -8.11636718622275e-05 -0.000143253314465867 -0.00014932859355766 -5.68576172738716e-06 -4.87746126681961e-05 -5.62350926588815e-05 -4.03189135022231e-05 -0.000293694002027202 8.72141385449888e-05 3.87035658104247e-05 -6.77923015170387e-05
"293" 0.000155473883542787 9.36863690781912e-05 0.000171404228728351 7.00409298197834e-05 4.21407673219662e-05 -9.0269442301399e-05 -0.000161143557488315 -0.00016123060806121 -1.07163600488939e-05 -5.07286744497408e-05 -6.15392547242277e-05 -3.94247421074839e-05 -0.000289519305658299 8.03422128123137e-05 3.31915872523755e-05 -7.1348380068487e-05
"294" 0.000147189940391602 8.73641935374673e-05 0.000162045157031986 6.38690369658229e-05 3.3105288637333e-05 -9.89334179112536e-05 -0.000178650742993779 -0.000172362531399188 -1.5557346145836e-05 -5.24626337149901e-05 -6.65741754149936e-05 -3.84429228858985e-05 -0.000284235290307308 7.37303158359828e-05 2.77840160789596e-05 -7.44614301342128e-05
"295" 0.000139032611957966 8.13413478314819e-05 0.000152795562673401 5.80636604442925e-05 2.4217871181552e-05 -0.000107125859063376 -0.000195712740486958 -0.000182666727512713 -2.02006471226966e-05 -5.39705947507512e-05 -7.13301804303407e-05 -3.73874603316057e-05 -0.000277897374994517 6.74038272026272e-05 2.2496069011573e-05 -7.71404525774456e-05
"296" 0.000131020385770339 7.56224078381618e-05 0.000143673459138165 5.26326607917307e-05 1.55079485719483e-05 -0.000114812989194935 -0.00021226619787247 -0.000192096288209385 -2.46275534394862e-05 -5.52398106446474e-05 -7.57919067458673e-05 -3.62618719601445e-05 -0.000270553116411228 6.13915747062197e-05 1.73415689220328e-05 -7.94004916472045e-05
"297" 0.000123153251926677 7.02037620406374e-05 0.000134696852911797 4.75725777632174e-05 7.00153779869032e-06 -0.000121971133771026 -0.000228261098070311 -0.000200616987715415 -2.88340355146645e-05 -5.62671798642662e-05 -7.99571428391975e-05 -3.5083651083657e-05 -0.000262273299702805 5.57186220031436e-05 1.23309683394789e-05 -8.12579476311432e-05
"298" 0.000115437452339318 6.50747105492628e-05 0.000125874481705242 4.28783955454384e-05 -1.28134115504212e-06 -0.000128580718058457 -0.00024364435860745 -0.000208196162124718 -3.28088498460326e-05 -5.70490246404633e-05 -8.38149380303513e-05 -3.38645951856369e-05 -0.000253127210527158 5.04086809625042e-05 7.47329909395597e-06 -8.27333791842169e-05
"299" 0.000107874476530106 6.02253716474298e-05 0.000117220771698912 3.85420878826177e-05 -9.31166845028576e-06 -0.000134625597609856 -0.000258373887286718 -0.000214807676855902 -3.65489827729735e-05 -5.75835670003604e-05 -8.73621679877804e-05 -3.26195646242432e-05 -0.0002431933086444 4.54753271613917e-05 2.77556002039021e-06 -8.38538605332613e-05
"300" 0.000100465458472382 5.56456395155871e-05 0.000108743129282298 3.45546495178735e-05 -1.70791024210939e-05 -0.000140092701804931 -0.000272408114138667 -0.000220438253096915 -4.00503463042135e-05 -5.78721758929972e-05 -9.0599487452625e-05 -3.13663587954124e-05 -0.000232557636957305 4.09349921003646e-05 -1.7566927097733e-06 -8.46476095807046e-05
"301" 9.32044230314404e-05 5.1320863000716e-05 0.00010044809475299 3.09047128658607e-05 -2.45585753644529e-05 -0.000144974652439463 -0.000285713673054358 -0.00022507944925046 -4.33066918530768e-05 -5.79178698369116e-05 -9.35196988204954e-05 -3.01178526534828e-05 -0.000221307528454289 3.68055213281685e-05 -6.1142969207868e-06 -8.51407148986158e-05
"302" 8.60842583839025e-05 4.72313002627006e-05 9.23435372651698e-05 2.75771514521152e-05 -3.17495753511989e-05 -0.000149268553927809 -0.000298264690413343 -0.00022872885090126 -4.63181626564066e-05 -5.77298981035854e-05 -9.61312593906692e-05 -2.88938951597728e-05 -0.000209539266658929 3.30901996366119e-05 -1.03010917859865e-05 -8.53710907079145e-05
"303" 7.90926928183948e-05 4.33594385521417e-05 8.44307719792716e-05 2.45485409685416e-05 -3.86361421989261e-05 -0.000152978214523145 -0.000310036725309048 -0.000231397944105879 -4.90890639167664e-05 -5.7318497851131e-05 -9.84338865815355e-05 -2.77086501274169e-05 -0.000197349177783365 2.9797165110752e-05 -1.43121832412148e-05 -8.53710470112193e-05
"304" 7.22280667301923e-05 3.96872837809461e-05 7.6715913218853e-05 2.18066940469685e-05 -4.52147070479192e-05 -0.000156102098632546 -0.000321009468463445 -0.000233095607925902 -5.16172811192785e-05 -5.66918592762127e-05 -0.000100433055408124 -2.65819901088254e-05 -0.000184836344375752 2.69282021168733e-05 -1.81489164512972e-05 -8.51792472385952e-05
"305" 6.54740061509749e-05 3.61895084782384e-05 6.92009456115926e-05 1.93317270120625e-05 -5.14827296676029e-05 -0.000158650441970284 -0.000331170890224612 -0.000233844154803584 -5.39051244313367e-05 -5.58591671843114e-05 -0.000102133905267593 -2.55247942649568e-05 -0.000172099697242135 2.44866509304302e-05 -2.18095152230363e-05 -8.48265350986247e-05
"306" 5.88197921905885e-05 3.28481336927498e-05 6.18850728285416e-05 1.7099607616227e-05 -5.74353211833878e-05 -0.000160636189006813 -0.000340511742333995 -0.000233669502195039 -5.59607426927531e-05 -5.4842456202736e-05 -0.000103545327787792 -2.45552908403745e-05 -0.000159242289148792 2.24662752737513e-05 -2.52957392828327e-05 -8.43567087594675e-05
"307" 5.2254709014463e-05 2.96400472764527e-05 5.47704946124933e-05 1.5089421034402e-05 -6.30755303365865e-05 -0.000162069656258104 -0.000349029479277475 -0.000232605064804531 -5.77900718282883e-05 -5.36547777994266e-05 -0.000104675246461152 -2.36868161894491e-05 -0.00014636187535869 2.0865537893982e-05 -2.86116934040015e-05 -8.38051798978472e-05
"308" 4.57618830436163e-05 2.65431046572824e-05 4.78577981465858e-05 1.32811665393402e-05 -6.84073338666464e-05 -0.000162969152226553 -0.000356721046294842 -0.000230683887822305 -5.93978690010216e-05 -5.23126880773653e-05 -0.000105536197474414 -2.29348958267918e-05 -0.000133557483081531 1.96738918948336e-05 -3.17599195851555e-05 -8.3205693685379e-05
"309" 3.93360721981072e-05 2.35414685098936e-05 4.11539526657607e-05 1.16572952305615e-05 -7.34322897285839e-05 -0.000163350828402609 -0.000363589925846176 -0.000227948239699799 -6.0792823069655e-05 -5.08357692291685e-05 -0.000106137794341321 -2.23063186007783e-05 -0.00012092290228308 1.88845552741438e-05 -3.4740437399722e-05 -8.25965736721518e-05
"310" 3.29630393520423e-05 2.06136109547778e-05 3.46548983834443e-05 1.01933655134548e-05 -7.81600229623844e-05 -0.000163237722189375 -0.000369644481729013 -0.000224446200238528 -6.19827180136032e-05 -4.92427506918021e-05 -0.000106491505176304 -2.18169380628301e-05 -0.000108549481900287 1.84851203334518e-05 -3.7563304236938e-05 -8.20119319751908e-05
"311" 2.66301775710227e-05 1.77367514197899e-05 2.8361596658338e-05 8.8706872222499e-06 -8.25969321341662e-05 -0.000162649723759034 -0.00037489394369417 -0.000220224703845237 -6.29771874067151e-05 -4.75575398534676e-05 -0.000106612258906224 -2.14716348092703e-05 -9.65234364560746e-05 1.84599143648883e-05 -4.02280688390628e-05 -8.14825817241648e-05
"312" 2.03326070166211e-05 1.49045776335439e-05 2.22828474278146e-05 7.67464917091692e-06 -8.67486191341615e-05 -0.000161613570767922 -0.000379348278969935 -0.000215336393907913 -6.37868758869719e-05 -4.57973459765622e-05 -0.00010651290636224 -2.1278747857912e-05 -8.49252419856545e-05 1.87940357029025e-05 -4.27399525078315e-05 -8.10376780407446e-05
"313" 1.40577299432371e-05 1.20937700081017e-05 1.64131707155193e-05 6.58560659385418e-06 -9.06263370989248e-05 -0.000160150983000354 -0.000383028845113816 -0.000209835551799615 -6.44220606951347e-05 -4.3983830621987e-05 -0.000106205324852699 -2.12395785016873e-05 -7.3830393570038e-05 1.94735889237838e-05 -4.51013598718086e-05 -8.070338775513e-05
"314" 7.80336888737898e-06 9.29734820082043e-06 1.07618513092302e-05 5.58935607906393e-06 -9.42400274321149e-05 -0.000158288926567092 -0.000385951381666205 -0.000203781864029949 -6.48922694273226e-05 -4.21375643486611e-05 -0.000105705826933427 -2.13619439400859e-05 -6.33089557463289e-05 2.04775422161358e-05 -4.73215690639696e-05 -8.05059380344076e-05
"315" 1.56133730096257e-06 6.50388773042147e-06 5.33100323798536e-06 4.67276795800724e-06 -9.75962068534965e-05 -0.000156056612351162 -0.000388134850400531 -0.000197229203218316 -6.52074259953884e-05 -4.02787559685653e-05 -0.000105028702191958 -2.16421308498085e-05 -5.3420344957614e-05 2.17859064202019e-05 -4.93995881929677e-05 -8.04620834797469e-05
"316" -4.66822112748028e-06 3.7030698086796e-06 1.25964019152746e-07 3.82559600952172e-06 -0.0001007057130005 -0.000153478061180647 -0.000389599160933777 -0.000190237810994758 -6.5380479900791e-05 -3.84286819189919e-05 -0.000104186240289567 -2.20812338904908e-05 -4.42133766194138e-05 2.33836790812921e-05 -5.13370463052374e-05 -8.05933052481596e-05
"317" -1.08853772595627e-05 8.93499623207161e-07 -4.84767780877798e-06 3.03888936996889e-06 -0.000103577859093218 -0.000150579157481497 -0.000390371180894107 -0.000182865208030151 -6.54179680465729e-05 -3.66027761515357e-05 -0.000103194839264286 -2.26731869893924e-05 -3.57382766801099e-05 2.52461945835802e-05 -5.31367554634023e-05 -8.09083006183265e-05
"318" -1.70910340533834e-05 -1.93113467998606e-06 -9.58314574113123e-06 2.30633124721795e-06 -0.00010622036307693 -0.000147392250069553 -0.000390476919058692 -0.000175171821835553 -6.5335772676019e-05 -3.48236389595154e-05 -0.000102067382223575 -2.34159185401107e-05 -2.80286304442061e-05 2.73509882185626e-05 -5.48075303281519e-05 -8.14194097809578e-05
"319" -2.32779896167146e-05 -4.7706968532535e-06 -1.40780327253928e-05 1.62347870396673e-06 -0.000108642230307761 -0.000143939828737497 -0.000389936944835827 -0.000167213415987351 -6.51383949660046e-05 -3.31002512322641e-05 -0.000100816059838169 -2.42977016341935e-05 -2.11113334574921e-05 2.96815695115255e-05 -5.63419591820473e-05 -8.21305858121835e-05
"320" -2.94460999448606e-05 -7.62464908437716e-06 -1.83211717355759e-05 9.82223710325016e-07 -0.000110851350877076 -0.000140252473747861 -0.000388781805289622 -0.000159046682542846 -6.48400864751922e-05 -3.14578435622185e-05 -9.94582847775983e-05 -2.53111521417272e-05 -1.50060137801454e-05 3.22115525448992e-05 -5.77481374224826e-05 -8.30451351948139e-05
"321" -3.55825488728014e-05 -1.04858758058208e-05 -2.23071457338754e-05 3.88551785323556e-07 -0.000112854154527791 -0.000136354693031136 -0.000387039636958737 -0.000150729648446458 -6.44479841106623e-05 -2.99044447796357e-05 -9.80063236775277e-05 -2.64467240878632e-05 -9.72335717174899e-06 3.49230052137233e-05 -5.90230812213042e-05 -8.41616877620372e-05
"322" -4.16804199019535e-05 -1.33509481593482e-05 -2.60239980304923e-05 -1.57404484260171e-07 -0.000114657442204585 -0.00013227603926194 -0.000384737828553581 -0.000142314014491032 -6.39725973716733e-05 -2.84537505440918e-05 -9.64681728232331e-05 -2.7690340837397e-05 -5.26560294158568e-06 3.77923756918002e-05 -6.01665498208782e-05 -8.54722945278023e-05
"323" -4.77261169719057e-05 -1.62126600303849e-05 -2.94712536694263e-05 -6.55861227436281e-07 -0.000116261388164339 -0.000128040707862071 -0.000381902811073776 -0.000133850806475266 -6.34237361511083e-05 -2.71186027507541e-05 -9.48599173651681e-05 -2.90296102890529e-05 -1.62755178526692e-06 4.07998442660615e-05 -6.11809312158954e-05 -8.69684566309766e-05
"324" -5.37075171490943e-05 -1.90604635970312e-05 -3.2639082865484e-05 -1.09857256281138e-06 -0.000117678395864251 -0.000123669556290067 -0.000378563154015057 -0.000125384941435083 -6.2805245204977e-05 -2.59039343756644e-05 -9.31906287008152e-05 -3.04461959705799e-05 1.20741340900782e-06 4.39226099293497e-05 -6.20620883691631e-05 -8.86404273462159e-05
"325" -5.96117166854568e-05 -2.18802890307623e-05 -3.55195455820953e-05 -1.48016800289607e-06 -0.0001189035559934 -0.000119193579175225 -0.000374750780312262 -0.000116967671028916 -6.21288741638847e-05 -2.48188121667568e-05 -9.14702721515949e-05 -3.19290348366374e-05 3.25890223777067e-06 4.71454133488674e-05 -6.28106668917381e-05 -9.04688851600361e-05
"326" -6.5421441366056e-05 -2.46681718780657e-05 -3.81092439840287e-05 -1.79576123888522e-06 -0.000119942556137771 -0.000114631566717157 -0.000370492289384393 -0.000108638612698754 -6.13985033744278e-05 -2.38681214875265e-05 -8.97090383248065e-05 -3.34546830384085e-05 4.5554169229044e-06 5.04469606247806e-05 -6.34230123119936e-05 -9.24395640637429e-05
"327" -7.1120930230822e-05 -2.74066610032915e-05 -4.040006516058e-05 -2.03545077183888e-06 -0.000120800101955599 -0.000110010921628721 -0.000365819645543069 -0.000100437492556024 -6.0626043726922e-05 -2.30602079760408e-05 -8.79192555301152e-05 -3.50160784769951e-05 5.12897461048218e-06 5.38035070126327e-05 -6.39008829267727e-05 -9.45301159845137e-05
"328" -7.66908273405344e-05 -3.00812216319764e-05 -4.23849147192283e-05 -2.18819867740289e-06 -0.000121470510210078 -0.000105351301091349 -0.000360758057512255 -9.24032536055171e-05 -5.98141471914373e-05 -2.2392422334419e-05 -8.61059937233526e-05 -3.65887877635255e-05 5.02276216432503e-06 5.72040128427059e-05 -6.42413412861574e-05 -9.67171272630218e-05
"329" -8.21142808015298e-05 -3.26778328189146e-05 -4.40690367590945e-05 -2.24793809177048e-06 -0.000121956393748269 -0.000100676017373603 -0.000355338380723579 -8.45638610102498e-05 -5.89693123615779e-05 -2.18633148580676e-05 -8.4276749022595e-05 -3.81573626014124e-05 4.2790384263558e-06 6.06286352926377e-05 -6.4440752364405e-05 -9.89753186460524e-05
"330" -8.73712272730288e-05 -3.5183484699636e-05 -4.54457947432525e-05 -2.2049973618225e-06 -0.000122259961734256 -9.60042479831786e-05 -0.000349588002738769 -7.69521400317407e-05 -5.81010012882176e-05 -2.14790639946163e-05 -8.244234373036e-05 -3.97059765182495e-05 2.94778238055406e-06 6.40572938497402e-05 -6.4504037163832e-05 -0.000101283981312268
"331" -9.24494917469794e-05 -3.75878508326563e-05 -4.65165268910424e-05 -2.04877179033272e-06 -0.000122378874461151 -9.1358802101433e-05 -0.000343540497721579 -6.95982131975143e-05 -5.72060115254078e-05 -2.12285880395383e-05 -8.06033821004219e-05 -4.12158081849971e-05 1.08162385694674e-06 6.7480246251777e-05 -6.44193465877766e-05 -0.000103609501984891
"332" -9.73220959774846e-05 -3.98725689125205e-05 -4.7281893080376e-05 -1.77063541476764e-06 -0.00012230890429551 -8.6757694660631e-05 -0.000337219697558307 -6.25177733594027e-05 -5.6296624003021e-05 -2.11164346257991e-05 -7.87733275306249e-05 -4.26742201445862e-05 -1.26356425941138e-06 7.08773976215684e-05 -6.41963531105023e-05 -0.00010593287187733
"333" -0.000101972679764038 -4.20261591497414e-05 -4.77434966755655e-05 -1.35947070709576e-06 -0.000122047648500568 -8.22168169845937e-05 -0.000330654822279084 -5.57367427911873e-05 -5.53732873765981e-05 -2.11273851630806e-05 -7.69502306948073e-05 -4.4065044955526e-05 -4.0306764673616e-06 7.42413150123349e-05 -6.38297627034195e-05 -0.000108219069021445
"334" -0.000106388192669939 -4.40397953599066e-05 -4.79085584325737e-05 -8.11101780959126e-07 -0.000121601064761203 -7.77601737712897e-05 -0.000323874323498412 -4.9269240791652e-05 -5.44429292095488e-05 -2.12632244610417e-05 -7.51439616006662e-05 -4.53766261502114e-05 -7.1631260079809e-06 7.75516102855924e-05 -6.3319273017012e-05 -0.000110444169677451
"335" -0.000110550004193704 -4.59038502109662e-05 -4.77839893521082e-05 -1.18597465655775e-07 -0.000120961947945261 -7.34008312299054e-05 -0.000316907088681693 -4.31316993902704e-05 -5.35077960242276e-05 -2.15089889094957e-05 -7.33553353802841e-05 -4.65917880652306e-05 -1.05979385264665e-05 8.08033303632314e-05 -6.26709779054642e-05 -0.000112580339886408
"336" -0.000114442249875929 -4.7604717506778e-05 -4.73772765243989e-05 7.24491295084142e-07 -0.000120132566380839 -6.91565380532201e-05 -0.000309778426252953 -3.73313270883844e-05 -5.2574059663175e-05 -2.1861377031283e-05 -7.15904362348963e-05 -4.77056089158601e-05 -1.42785248595035e-05 8.39785013874564e-05 -6.18835772802271e-05 -0.000114604556833994
"337" -0.000118051237151634 -4.91426178651956e-05 -4.6700690712113e-05 1.72170324855184e-06 -0.000119106644275347 -6.50422931531437e-05 -0.000302520201702971 -3.18826079062544e-05 -5.16388795566876e-05 -2.23076287473807e-05 -6.98508468331273e-05 -4.8704866939304e-05 -1.81460195424853e-05 8.70719550782031e-05 -6.09558430538796e-05 -0.000116487682638066
"338" -0.000121359953067732 -5.05044345721088e-05 -4.57651550702494e-05 2.87692788555637e-06 -0.000117888208685458 -6.10738768195188e-05 -0.000295153128197883 -2.67875020872861e-05 -5.07124773431657e-05 -2.28417925879686e-05 -6.81404598355391e-05 -4.95836703632162e-05 -2.21404478412954e-05 9.00684963194867e-05 -5.99015597464524e-05 -0.000118210413516203
"339" -0.000124363620687752 -5.16898722434132e-05 -4.45875456213803e-05 4.18818401013439e-06 -0.000116479081231569 -5.72682559860655e-05 -0.000287711039762293 -2.20539498116719e-05 -4.97973822139708e-05 -2.3447786781384e-05 -6.64597321004066e-05 -5.03359541303866e-05 -2.62109489986696e-05 9.29620299224586e-05 -5.87197122333845e-05 -0.000119751347305493
"340" -0.000127041536695734 -5.26951594239964e-05 -4.31809229082828e-05 5.65861683454053e-06 -0.000114878093768344 -5.36321182220394e-05 -0.000280213759255592 -1.76772909296405e-05 -4.88916512750152e-05 -2.41180246489932e-05 -6.48127783129993e-05 -5.09579345384178e-05 -3.03002258090695e-05 9.57455373480955e-05 -5.74175349115506e-05 -0.000121090783714362
"341" -0.000129397928127916 -5.35266898309947e-05 -4.15689608760966e-05 7.28208761758035e-06 -0.000113083929390816 -5.01797937812171e-05 -0.000272685819213396 -1.36613038249147e-05 -4.80004391655103e-05 -2.48354738461556e-05 -6.31978195180916e-05 -5.14452021989115e-05 -3.43574425710903e-05 9.84128198012994e-05 -5.60012703942906e-05 -0.000122210509420071
"342" -0.000131416003960608 -5.41805607757933e-05 -3.97660708669807e-05 9.05655950892675e-06 -0.000111101292541943 -4.69245286730075e-05 -0.00026515956247759 -1.00036195468309e-05 -4.7127997948282e-05 -2.5593667189e-05 -6.16190375208686e-05 -5.17978014058473e-05 -3.83388679283225e-05 0.000100954694811825 -5.44794407870753e-05 -0.000123097839881663
"343" -0.000133097243201194 -5.46601794163359e-05 -3.77951373607137e-05 1.09731356769847e-05 -0.000108937554604679 -4.38762940678862e-05 -0.000257652208705981 -6.70253396059992e-06 -4.62781120650829e-05 -2.63831915446761e-05 -6.00773835265346e-05 -5.20211508059753e-05 -4.22003294393018e-05 0.00010336487005651 -5.28643223198043e-05 -0.000123742749791916
"344" -0.00013443037102398 -5.49728490840698e-05 -3.56761054732689e-05 1.30294226698297e-05 -0.000106591115065163 -4.10395590019832e-05 -0.000250189088153686 -3.74730116976289e-06 -4.5449234182129e-05 -2.71853180046641e-05 -5.85695319752341e-05 -5.21117278865554e-05 -4.58979547213368e-05 0.000105641667494576 -5.11607245219437e-05 -0.000124131998160556
"345" -0.000135418055954627 -5.51255558130225e-05 -3.34313029400705e-05 1.5209527563955e-05 -0.000104068265962905 -3.84247322743492e-05 -0.000242791891386422 -1.13931863739585e-06 -4.46442797470091e-05 -2.79939636073228e-05 -5.70976191689983e-05 -5.20794790061657e-05 -4.94013342890247e-05 0.000107779239805667 -4.93840355503218e-05 -0.000124260050312608
"346" -0.000136065013360015 -5.51307995498318e-05 -3.10910581095218e-05 1.75037766526733e-05 -0.000101378951248217 -3.60398456457862e-05 -0.000235483181632067 1.13386300698518e-06 -4.38687448630829e-05 -2.87978457118196e-05 -5.56623350682344e-05 -5.19277948959484e-05 -5.26766720516605e-05 0.000109771463091304 -4.75463187494932e-05 -0.000124126600050164
