"V1" "V2" "V4" "V5" "V7" "V8" "V10" "V11" "V13" "V14" "V15" "V17" "V18" "V20" "V21" "V23"
"1" 0.000881625351621401 0.000902731743746792 0.000988650480220668 0.000785493951597594 0.0010269862105379 0.000993036032609237 0.00125783758906729 0.000375057490061521 -0.000305875324261726 -3.77944862568439e-06 -0.000156802659476585 0.000122172308858198 -0.000263398431261296 0.000338669281581054 1.39278393641182e-07 0.00132020634849521
"2" 0.000855586643756442 0.000907623917601799 0.000996730309969253 0.000808960924746853 0.00101925159940458 0.00102009789844555 0.0013074439255387 0.00033936344382692 -0.000310230991632181 -1.18268567764455e-05 -0.000154568410119393 0.000110727045005165 -0.000267340718100357 0.000341041972284174 -9.80749137658829e-06 0.00135240594920961
"3" 0.000828238756082365 0.000912247272715099 0.00100389597149134 0.000831920713467493 0.00101030043374224 0.00104544719543303 0.00135554655072706 0.000303735736087091 -0.000315109983784621 -2.00777549736431e-05 -0.000152729943184741 9.96675166558805e-05 -0.000271378008446889 0.000341529587780722 -2.10834562449573e-05 0.00138505655304086
"4" 0.000799757669429791 0.000916562953806981 0.00101001264913156 0.000854213316409482 0.00100019068924827 0.00106882143294291 0.00140179255193145 0.000268345030644712 -0.000320560153158265 -2.85236177093235e-05 -0.000151309031908306 8.90266723194192e-05 -0.000275505295450201 0.000339976912036371 -3.36306990983586e-05 0.00141784805991567
"5" 0.000770304570183417 0.000920517455675419 0.00101494510162997 0.000875665335295033 0.000988970314504033 0.0010899569709867 0.00144581204966675 0.000233367471440349 -0.000326603387628686 -3.71475954419312e-05 -0.000150311818238933 7.88293407782179e-05 -0.000279711716198716 0.00033624307895612 -4.73654379276803e-05 0.0014504437391751
"6" 0.000740040213151877 0.000924042241284335 0.00101855733449778 0.000896090619341187 0.000976685757193797 0.00110858752621847 0.00148722763625228 0.000198965814980705 -0.000333259515232049 -4.59360575594995e-05 -0.000149747624380772 6.90933740596529e-05 -0.00028398796619268 0.000330211604789982 -6.21899991447711e-05 0.00148247800591738
"7" 0.00070912079043693 0.000927052487737388 0.00102069588118198 0.000915306563221427 0.000963364419932888 0.00112445737753169 0.00152565381353601 0.00016529024827064 -0.000340530871256871 -5.48650264401593e-05 -0.000149616948255881 5.98225766358256e-05 -0.000288324447527955 0.000321784394670322 -7.80014280192297e-05 0.00151356384683801
"8" 0.000677680917858043 0.000929459153549903 0.00102122233433619 0.000933110277374467 0.00094903772178718 0.00113730720498926 0.00156069872522141 0.000132482153055494 -0.000348407839915476 -6.39186580417171e-05 -0.000149917861445913 5.1013010404244e-05 -0.000292715924889086 0.000310890867587936 -9.46717701915366e-05 0.00154329060595109
"9" 0.000645855732269282 0.000931161852653585 0.00101998761206441 0.000949303792432445 0.000933726017556826 0.00114689990714416 0.00159197499838288 0.000100665087863042 -0.00035687011353594 -7.30726610947477e-05 -0.000150640549263762 4.2652279769755e-05 -0.000297155762192071 0.000297487682314758 -0.000112072706814957 0.00157123266967171
"10" 0.000613764055138955 0.000932044993622459 0.00101684287109969 0.000963687289773843 0.000917430862639066 0.00115300343032243 0.00161909759849293 6.99532691225948e-05 -0.000365877793253083 -8.23046771100609e-05 -0.000151769821522697 3.47134975231321e-05 -0.00030163883800177 0.000281559820360899 -0.000130060347431806 0.00159695392439478
"11" 0.000581518172311709 0.00093199317912057 0.00101164934139826 0.000976056189078694 0.00090015843510905 0.00115540646093804 0.00164170033455296 4.0441980816249e-05 -0.000375394246057735 -9.1594308453665e-05 -0.000153289889569164 2.7159056364526e-05 -0.000306161225904872 0.000263115601372547 -0.000148489099466062 0.00162000855933557
"12" 0.000549221737263744 0.000930876240453651 0.00100426754200475 0.000986208821054896 0.00088190075677213 0.00115391755543461 0.00165941882273088 1.2210305865442e-05 -0.000385358913757425 -0.000100921027192605 -0.000155182726271244 1.99425158756538e-05 -0.000310720816626351 0.00024218417480604 -0.000167202378874522 0.00163995302648713
"13" 0.000516963755303441 0.00092857528918848 0.000994571403868955 0.000993953848243601 0.000862644577593274 0.00114836484505016 0.00167192414146501 -1.46741325763014e-05 -0.000395709914540476 -0.000110269829840098 -0.000157419117791931 1.30079466137193e-05 -0.000315323134489448 0.000218830444545645 -0.000186040991956311 0.00165634547181028
"14" 0.000484835471812256 0.000924956224600241 0.000982436990519626 0.000999101885308414 0.000842373292199333 0.00113859988199563 0.00167890676424175 -4.01714636936706e-05 -0.000406381230119366 -0.000119625470723888 -0.000159981309670907 6.28688398579027e-06 -0.000319974813544737 0.000193133766424618 -0.000204851497327193 0.00166875261581926
"15" 0.000452907765722509 0.000919899934869276 0.000967758372474942 0.00100147890310589 0.000821055714980919 0.00112451195449495 0.00168008703174873 -6.42516829745102e-05 -0.000417292328330512 -0.000128975632475914 -0.000162839793944397 -2.92911690159966e-07 -0.000324680973743556 0.000165202710918472 -0.000223470220498352 0.00167676499752065
"16" 0.000421254442440315 0.000913279407955942 0.00095043503735836 0.00100092063725003 0.000798667688391211 0.00110601128014868 0.0016752243186056 -8.69028584759925e-05 -0.000428362127651492 -0.000138313711659547 -0.000165966730665551 -6.81914985568739e-06 -0.000329456771542407 0.000135170149586426 -0.000241744268882408 0.001679986438415
"17" 0.00038993537081689 0.000904977433467197 0.000930390653949962 0.000997281096220809 0.00077517577309717 0.00108304230340399 0.00166411809072482 -0.000108134566332492 -0.000439507435287475 -0.000147632466429028 -0.000169333485561129 -1.33771819867823e-05 -0.000334315113931911 0.000103181346386162 -0.000259521605671668 0.0016780602278314
"18" 0.000359011798336654 0.000894892163797949 0.000907559454081064 0.000990430609569741 0.000750548823630666 0.00105558342761342 0.00164661194896242 -0.000127972704971723 -0.000450641643087202 -0.000156931004176877 -0.000172915891475181 -2.00592569809859e-05 -0.000339277945978067 6.94043240132594e-05 -0.000276657411537318 0.00167065628844707
"19" 0.000328529859564792 0.000882921011074353 0.000881893916875232 0.00098025904777579 0.00072474933782212 0.001023644692451 0.0016225982495092 -0.000146452421654967 -0.000461671799041273 -0.00016621064664192 -0.000176685675971042 -2.69651072614508e-05 -0.000344362067776168 3.40311051230602e-05 -0.000293011347936341 0.00165749294314149
"20" 0.000298540201538091 0.000868979035225904 0.00085337309340958 0.000966686276930524 0.000697747475400583 0.000987278017323346 0.00159201744860766 -0.000163626372727386 -0.00047251232354211 -0.00017547307774414 -0.000180613329926848 -3.41874183447888e-05 -0.000349591342616747 -2.74474233634273e-06 -0.000308457203096136 0.0016383306125421
"21" 0.000269086568637752 0.00085299803572366 0.000821990181892497 0.000949649450245726 0.000669515085724789 0.000946562415769573 0.00155486264729671 -0.000179570034227067 -0.000483076750546487 -0.000184724613912386 -0.000184678842134802 -4.18200825395842e-05 -0.000354993337434769 -4.07095878573921e-05 -0.000322875355221448 0.00161297796281331
"22" 0.000240203694201931 0.000834919028520805 0.000787765163343945 0.000929118003337825 0.000640028535972015 0.000901617432328154 0.00151118672189131 -0.000194351583413775 -0.00049327519186171 -0.000193968924972854 -0.000188853709965396 -4.99575447899393e-05 -0.000360590496145434 -7.96399200606447e-05 -0.000336154409477706 0.00158130237538701
"23" 0.000211924226751302 0.000814709710697981 0.000750742911577152 0.000905087033693437 0.000609270222874436 0.000852594339381665 0.00146108742298654 -0.000208064568478226 -0.000503021942771907 -0.000203209100715689 -0.000193115253328965 -5.86849995195102e-05 -0.000366406998275238 -0.000119302738288344 -0.000348196953966483 0.00154322722508203
"24" 0.000184279407079841 0.000792343901294588 0.000710987615102831 0.000877579356062155 0.000577231811475993 0.00079968116438929 0.001404728400217 -0.000220801174670709 -0.000512235633404413 -0.000212450273086008 -0.000197440951688615 -6.80780563271629e-05 -0.000372468599413709 -0.00015945897753647 -0.000358920226887125 0.00149873229188413
"25" 0.00015729823565719 0.000767831611718958 0.000668596705403072 0.0008466543890854 0.000543918495568127 0.000743092140596073 0.00134231938514044 -0.000232663299283729 -0.00052084046661638 -0.000221694055946751 -0.000201810868875262 -7.82085607086164e-05 -0.000378797567901082 -0.000199873238661274 -0.00036825276611712 0.00144785927508247
"26" 0.000130997683797341 0.000741182812061529 0.000623681414186859 0.000812391003477897 0.000509337449854637 0.000683076758795334 0.00127412672811249 -0.000243754073522422 -0.000528760276440783 -0.000230937819170981 -0.000206202581131168 -8.91342831649855e-05 -0.000385411393337352 -0.00024029908486257 -0.000376134526778738 0.00139070794833988
"27" 0.00010539808330748 0.000712445544293138 0.000576387282352259 0.000774906186766901 0.000473516471506249 0.000619908989372126 0.00120046457365705 -0.000254172589268101 -0.000535920040697997 -0.000240174152693053 -0.000210596904412762 -0.000100898144624602 -0.000392327172702411 -0.000280492650704435 -0.000382512871283589 0.00132743832300009
"28" 8.0510985066616e-05 0.00068167624538735 0.000526874284686118 0.000734343923104323 0.000436488169740358 0.000553890769088156 0.00112169130120445 -0.000264023776617415 -0.000542258181366333 -0.000249392611809814 -0.000214973059658891 -0.000113533472739307 -0.000399556468189311 -0.000320214947476125 -0.000387359627543375 0.00125826792801744
"29" 5.63484004159807e-05 0.000648961931622245 0.000475335236978117 0.000690874427208824 0.000398311915025101 0.000485347073348284 0.00103821400829944 -0.000273406263430852 -0.000547710849047133 -0.000258578349405851 -0.000219309171644871 -0.000127057562452464 -0.000407106176419975 -0.000359228819865072 -0.000390644745305251 0.00118346500700771
"30" 3.29128972275991e-05 0.000614399786383689 0.000421973311365715 0.000644692676514461 0.00035904697412858 0.000414619281052313 0.00095047467103039 -0.000282409488635691 -0.000552216461601604 -0.000267704706085302 -0.000223582804569479 -0.000141472490275058 -0.000414973877594995 -0.000397299463456249 -0.000392360772287286 0.00110334922525522
"31" 1.02074926167663e-05 0.000578109802447127 0.000367022255800081 0.000596024702281931 0.000318778896158015 0.000342070698056016 0.000858951366394232 -0.000291117715584671 -0.000555725606376559 -0.000276747761458535 -0.000227775847663539 -0.00015676286598404 -0.000423154357183589 -0.00043420629514068 -0.000392504291753669 0.00101829131832862
"32" -1.17740382362712e-05 0.000540231727314501 0.000310723933861433 0.000545109656295576 0.000277597093059067 0.000268070632593087 0.00076414674292698 -0.00029960552868567 -0.000558187130530714 -0.000285672400450916 -0.000231857394487767 -0.000172903621893824 -0.000431632174454677 -0.000469727814894198 -0.000391084827248283 0.000928697033392091
"33" -3.30364542616159e-05 0.000500917045989524 0.000253340141924958 0.000492215945181945 0.000235616624654428 0.000193008163711031 0.000666594236626284 -0.000307941951952832 -0.000559558283424812 -0.00029443388801441 -0.000235809147187832 -0.00018985068091932 -0.00044038913793547 -0.000503657249096495 -0.000388122784506869 0.000835010048168484
"34" -5.3596197046792e-05 0.000460339882622744 0.00019514320289013 0.000437619983587842 0.000192957433665149 0.000117274676848908 0.000566839493363118 -0.000316173524338271 -0.000559794740051261 -0.000302991811358872 -0.00023960020186796 -0.000207549044150485 -0.000449394027195784 -0.000535798997130989 -0.00038364098847973 0.000737713557855675
"35" -7.34670719772571e-05 0.000418676695168525 0.000136415153853318 0.00038161800483708 0.000149754834275145 4.12638321350061e-05 0.000465443655206538 -0.000324345638175792 -0.000558862928447746 -0.000311289791261381 -0.000243201732780617 -0.000225929338984669 -0.000458610505298686 -0.000565962415175488 -0.000377678558988915 0.000637309850793247
"36" -9.26693013694962e-05 0.000376120375869308 7.74426301165651e-05 0.000324510478853771 0.000106152681699509 -3.46302020180647e-05 0.000362975640706885 -0.000332483259561276 -0.000556730126535768 -0.000319277221530615 -0.000246584230647037 -0.000244909777300294 -0.000467995164252459 -0.000593974536672451 -0.000370274736968245 0.000534320176202115
"37" -0.000111228692302626 0.000332875884094431 1.85199827550164e-05 0.00026661317954876 6.23068425537918e-05 -0.000110012200814539 0.000260000931571242 -0.000340602303764552 -0.000553372775830409 -0.000326894644294341 -0.000249713495540349 -0.000264402862816801 -0.000477498415097948 -0.000619673890015441 -0.00036147767567268 0.000429289908129495
"38" -0.000129166273084536 0.000289151324044302 -4.0057153739746e-05 0.000208239966633369 1.83792978100889e-05 -0.000184501109385241 0.000157087295953615 -0.000348704479495581 -0.000548770110994562 -0.000334080569563723 -0.000252555308926666 -0.000284306580780209 -0.000487063727229745 -0.000642912806264669 -0.000351345694702559 0.000322762987394927
"39" -0.000146511793074064 0.000245158272069572 -9.79986234958936e-05 0.000149707739083716 -2.54549100853026e-05 -0.000257716591465396 5.479340854252e-05 -0.000356782220529586 -0.000542906264845993 -0.000340775994444804 -0.000255073839395192 -0.00030451955958254 -0.000496628882409326 -0.000663560826307996 -0.000339938460508031 0.000215293925257903
"40" -0.000163295408068679 0.000201118288529737 -0.000155020005441783 9.13338189697793e-05 -6.90288206597046e-05 -0.000329294668386658 -4.6340407308991e-05 -0.000364814623926318 -0.000535773190324301 -0.000346919526643028 -0.000257234206699739 -0.000324929194390477 -0.000506125772300282 -0.000681496245774963 -0.000327317908287485 0.000107437767707824
"41" -0.000179544941924714 0.000157245947354019 -0.000210842893204469 3.34280209620275e-05 -0.000112163963336863 -0.000398887114476643 -0.000145786231822785 -0.0003727705428851 -0.000527370322847777 -0.000352452642311179 -0.000259001657348431 -0.000345421505371371 -0.000515483465874621 -0.000696619227671855 -0.000313558408192563 -2.61050290010524e-07
"42" -0.000195290421579396 0.000113756542877409 -0.000265199866518174 -2.37046411995574e-05 -0.000154679612272557 -0.000466157228557209 -0.000243037619060795 -0.000380609951443329 -0.000517698741601916 -0.000357318016144837 -0.000260334118152808 -0.000365883963339294 -0.000524627178609851 -0.000708844648283931 -0.00029873510039661 -0.000107258759952861
"43" -0.000210562220743046 7.08625068234613e-05 -0.000317840057624021 -7.97746404658688e-05 -0.000196407350520589 -0.000530798698132227 -0.000337620681568384 -0.000388290696847063 -0.0005067718064423 -0.000361463748480497 -0.000261199595010045 -0.000386198258225113 -0.000533484575822978 -0.000718101179356422 -0.000282919880718982 -0.000213035225031324
"44" -0.000225382582905195 2.87741834809137e-05 -0.000368524037984268 -0.000134500575017602 -0.000237173404241797 -0.000592516226109409 -0.00042907969669998 -0.000395751894815805 -0.000494610586458394 -0.000364844366453703 -0.000261564544146224 -0.000406253387073046 -0.000541976942721004 -0.000724344453893887 -0.000266201654091797 -0.000317082837796818
"45" -0.000239781561464113 -1.23159474096326e-05 -0.000417033694092336 -0.000187617984605047 -0.000276808551899629 -0.000651043556297665 -0.000516999285238308 -0.000402944080524182 -0.000481241974043587 -0.000367418135373933 -0.000261395207545475 -0.000425936650361603 -0.000550026309411135 -0.00072754164156496 -0.000248661874437586 -0.000418914479585888
"46" -0.000253776256827776 -5.22118803983443e-05 -0.000463171495122415 -0.000238876040883576 -0.000315159604333189 -0.000706143074397085 -0.000600994839812531 -0.000409808836218303 -0.000466703867722996 -0.000369151211795188 -0.000260665246796242 -0.000445143276670217 -0.000557564972687804 -0.0007276776270387 -0.000230390492998381 -0.000518068088540831
"47" -0.000267386207475584 -9.07340325935244e-05 -0.000506755085571815 -0.00028804463786021 -0.00035207384198302 -0.000757594245760826 -0.000680714605229641 -0.000416281287720817 -0.000451040197689846 -0.000370015889427834 -0.000259346220448252 -0.000463768554634147 -0.000564511514292587 -0.000724763737180649 -0.000211479921988201 -0.000614110156832682
"48" -0.000280628610913596 -0.000127715015494314 -0.000547627987698762 -0.000334915280087723 -0.000387410947824525 -0.000805210898697378 -0.000755849562659882 -0.000422303340483876 -0.000434307347650488 -0.000369998866490308 -0.00025741624561105 -0.000481718605825327 -0.000570808148709738 -0.000718822170339052 -0.000192024119034384 -0.000706629199223198
"49" -0.000293510087485 -0.00016300026871999 -0.000585663393139748 -0.000379296648685966 -0.000421048085109188 -0.000848840836692401 -0.000826125368242147 -0.000427820762886917 -0.000416567915391639 -0.000369085783621412 -0.000254863559484098 -0.000498903985587582 -0.000576384442752738 -0.000709903332793563 -0.000172119927338108 -0.000795256975143762
"50" -0.000306036998600199 -0.000196451289192106 -0.00062074961291737 -0.000421022048813173 -0.000452867317769025 -0.000888349091775957 -0.000891314370254263 -0.000432778006206799 -0.000397897119574999 -0.000367278404863717 -0.000251669760556131 -0.000515239692406698 -0.000581186843462328 -0.000698069619226495 -0.000151862405938153 -0.000879644344874433
"51" -0.000318209986808215 -0.000227941397605198 -0.000652803257306914 -0.000459943684190977 -0.000482766966429815 -0.000923642234885893 -0.000951224565368747 -0.000437126003361535 -0.000378376915332647 -0.000364586579406009 -0.000247837290413441 -0.000530652284518107 -0.000585162249385188 -0.00068341398098129 -0.000131357411884277 -0.000959486902034446
"52" -0.000330026663352037 -0.000257364146151828 -0.000681768438775205 -0.000495944636825743 -0.000510663815288496 -0.000954651103473727 -0.0010057063844704 -0.000440826821425165 -0.000358095113505838 -0.000361027683306611 -0.00024336009500293 -0.00054507702728551 -0.000588262979878202 -0.000666037876087278 -0.000110702377943804 -0.00103450916259641
"53" -0.000341479924951476 -0.000284625403427104 -0.000707613030433461 -0.000528923383398599 -0.000536490849438369 -0.000981339591987893 -0.00105465372908735 -0.000443839930521427 -0.000337153649457534 -0.000356627453465277 -0.000238249501630777 -0.000558455017307857 -0.000590459957320426 -0.000646071357080003 -9.00004394626092e-05 -0.00110447666758457
"54" -0.000352556801334211 -0.000309655277564525 -0.000730328316422681 -0.000558807736446722 -0.00056018636469676 -0.00100369964323987 -0.00109799883219901 -0.00044614177057671 -0.000315657787765674 -0.000351420435187721 -0.000232515776622112 -0.000570735779730742 -0.000591713127172495 -0.000623649691792269 -6.9350602939459e-05 -0.00116918444046779
"55" -0.000363242185113962 -0.000332393677153615 -0.000749930263849113 -0.000585547024036881 -0.000581720644774937 -0.00102175853700996 -0.00113571813898299 -0.000447715347027632 -0.000293723877242582 -0.000345450419573218 -0.000226182967383806 -0.000581878099629586 -0.000592011151219685 -0.000598945718441173 -4.88558163992415e-05 -0.00122847597240042
"56" -0.00037351444770485 -0.000352802609660195 -0.000766459146575437 -0.000609119497446927 -0.000601066023651727 -0.00103556770937868 -0.00116782764411603 -0.000448547494071079 -0.00027146775641502 -0.000338766583230105 -0.000219273220337313 -0.000591848613750605 -0.000591337529340816 -0.000572129471009558 -2.86109145569589e-05 -0.00128222179425864
"57" -0.000383354473011347 -0.000370865001742334 -0.000779977334829356 -0.000629516915010228 -0.000618218725379688 -0.00104520872430146 -0.00119438205424034 -0.000448639409962129 -0.000249018546470239 -0.000331425540413678 -0.000211822057814634 -0.000600623739254025 -0.000589686322417716 -0.000543401886487178 -8.71661306854702e-06 -0.00133033632538919
"58" -0.00039274023198422 -0.000386576197178039 -0.000790571651889032 -0.000646766915795628 -0.000633188520539076 -0.00105079443513341 -0.00121547743490182 -0.000447999063674412 -0.000226499137629552 -0.000323488288908095 -0.000203861418305028 -0.000608187285436649 -0.000587061792172475 -0.000512963681639727 1.07387302467877e-05 -0.00137276649138723
"59" -0.000401637741191174 -0.000399950063320103 -0.000798346748450579 -0.000660906515233295 -0.000646001637436554 -0.00105245878874278 -0.00123124597035733 -0.00044664852349045 -0.000204045693678957 -0.000315021775008919 -0.000195446398618668 -0.000614533510354308 -0.000583477045760941 -0.000481046641962971 2.96610533315913e-05 -0.001409503389491
"60" -0.000410027961190857 -0.00041102172005363 -0.00080342654966351 -0.000672004014601895 -0.000656698123641322 -0.00105036877885382 -0.0012418508959874 -0.000444612886507535 -0.000181790066609154 -0.000306099494110937 -0.000186616282702268 -0.000619657635886887 -0.000578955160124266 -0.000447875202593565 4.79673707140771e-05 -0.00144056533699069
"61" -0.000417879870031287 -0.000419841406122427 -0.000805954081550186 -0.00068014871861119 -0.000665333235329864 -0.00104470690673176 -0.00124749638249967 -0.000441930652663797 -0.000159862108465088 -0.000296792620883556 -0.000177429206286224 -0.000623570351057072 -0.000573516773494675 -0.00041369393591848 6.55812112395588e-05 -0.00146601313739959
"62" -0.000425168726472727 -0.000426468774148302 -0.000806089436214626 -0.00068544232917741 -0.000671977486844772 -0.00103568741348107 -0.00124841399446158 -0.000438648488200301 -0.00013839811276134 -0.000287179523704908 -0.000167940406174557 -0.000626287705395857 -0.000567202505436013 -0.000378752345539 8.24271599895824e-05 -0.00148594015378493
"63" -0.000431865325312381 -0.000430988359182679 -0.000804004838885051 -0.000688014842463307 -0.000676708141531185 -0.00102353871191912 -0.00124486648681481 -0.000434821189861204 -0.000117523831442122 -0.000277337405601431 -0.000158215181554789 -0.000627828605626237 -0.000560051830224733 -0.000343303572621362 9.84374910502702e-05 -0.00150047212751882
"64" -0.000437948959977314 -0.000433493789486178 -0.00079988637792403 -0.000688008854287706 -0.000679622731845989 -0.00100850900638258 -0.00123714569359194 -0.00043050597278277 -9.73647062358585e-05 -0.000267344368326469 -0.000148313369739505 -0.000628224808202497 -0.000552115600725724 -0.000307603838112875 0.000113558278162135 -0.00150976822426562
"65" -0.000443390308694047 -0.000434093062811583 -0.000793932268435006 -0.000685580594053311 -0.00068082536545352 -0.000990866104086046 -0.00122556271007533 -0.000425773774716615 -7.8044078512045e-05 -0.000257278175426439 -0.000138307560388142 -0.000627508484483091 -0.000543445003307534 -0.000271916734515278 0.000127730514714926 -0.00151402432381831
"66" -0.000448174406533472 -0.000432907766100995 -0.000786349566120699 -0.000680908722537516 -0.000680429386112535 -0.000970889857770686 -0.0012104575188616 -0.000420700235078713 -5.96706828681564e-05 -0.000247214614229175 -0.000128255512053074 -0.000625724248571711 -0.000534098806889186 -0.00023648906295034 0.000140918937964872 -0.00151345130672548
"67" -0.000452282548955719 -0.000430067000113246 -0.000777346244295702 -0.000674178441376034 -0.000678557368168632 -0.000948872034873687 -0.00119217912988163 -0.000415362735618975 -4.23543478888929e-05 -0.000237229378704315 -0.000118235442834623 -0.000622917570330107 -0.000524144170516043 -0.0002015819307498 0.000153085271939103 -0.00150830337754339
"68" -0.000455700523516751 -0.000425711972286737 -0.000767147380028463 -0.000665592752635564 -0.000675342884523344 -0.000925111248827481 -0.00117110343496212 -0.000409846909531539 -2.61888882869535e-05 -0.000227395309139254 -0.000108306540809324 -0.000619141067341964 -0.000513644435844732 -0.000167436425914622 0.000164204511863623 -0.00149885089861215
"69" -0.000458416784046626 -0.00041999372471466 -0.000755972802830057 -0.000655357503793858 -0.000670922089227818 -0.000899919935677942 -0.00114760553348508 -0.000404241007471198 -1.12608065076265e-05 -0.000217778877993125 -9.85409011261929e-05 -0.000614451498703324 -0.0005026698679909 -0.000134287310844575 0.000174260358354307 -0.00148538955913108
"70" -0.000460427926928695 -0.000413064812131644 -0.000744045713129097 -0.000643691349717115 -0.000665433268224666 -0.000873605923743947 -0.00112207858781526 -0.000398631056252728 2.353477008169e-06 -0.000208445220219672 -8.90032073344494e-05 -0.000608912448721575 -0.000491294521836909 -0.000102360899613603 0.000183245377853254 -0.00146823766913787
"71" -0.000461730081576518 -0.000405091437301113 -0.000731581312123754 -0.00063081533854639 -0.000659026932049818 -0.000846484378938675 -0.0010949152213234 -0.000393112394480027 1.45858593472207e-05 -0.000199453791438646 -7.97561071942354e-05 -0.000602587762357232 -0.000479592240427855 -7.1874140611618e-05 0.00019116027933184 -0.00144772948083092
"72" -0.00046232912320528 -0.000396237476945489 -0.000718809516344158 -0.000616958066977377 -0.000651851875343246 -0.000818860987027491 -0.00106650984346513 -0.000387779006556034 2.5392191006655e-05 -0.000190861131612367 -7.08565089622286e-05 -0.000595545770122274 -0.000467635800247778 -4.30170030512494e-05 0.000198018427926333 -0.00142421529114745
"73" -0.000462233574878345 -0.000386669681050616 -0.000705934459413304 -0.000602349485637685 -0.000644052949546018 -0.000791046656371597 -0.00103725201837755 -0.000382713805629488 3.47292671035229e-05 -0.000182717416348233 -6.2364091344892e-05 -0.000587865264047002 -0.00045550128931396 -1.59730012051242e-05 0.000203837509106856 -0.00139805910432234
"74" -0.000461456392042567 -0.000376557811026945 -0.000693170864020447 -0.000587214027582738 -0.000635784353697315 -0.000763337280193041 -0.00100752631156781 -0.00037801437832218 4.25730349729735e-05 -0.000175062839996749 -5.43275244687877e-05 -0.000579614051259575 -0.000443263248065876 9.10342070917469e-06 0.000208643706499431 -0.00136963205946706
"75" -0.000460015890559231 -0.000366069108027146 -0.000680712500001678 -0.000571780226278919 -0.000627193878216387 -0.000736015833270396 -0.000977705237711414 -0.000373763932901353 4.89120838826405e-05 -0.000167941537372512 -4.67930041179505e-05 -0.000570869689770727 -0.000430994053594936 3.20760062218004e-05 0.00021247417062974 -0.00133931201561614
"76" -0.000457936381956777 -0.0003553683402351 -0.000668747867187317 -0.000556264314558495 -0.000618420492649891 -0.000709359219955128 -0.00094814507632239 -0.000370047947642635 5.37479779222233e-05 -0.000161382605036301 -3.98052378347215e-05 -0.00056171347559755 -0.000418760252924894 5.28211208979338e-05 0.000215371455033132 -0.00130748164456637
"77" -0.000455251016663315 -0.000344618725280189 -0.000657459925547358 -0.000540883062706032 -0.000609611233752288 -0.000683620293186016 -0.000919183915357401 -0.000366945359805682 5.70985637087343e-05 -0.000155411037886796 -3.33939848606919e-05 -0.000552222109505957 -0.000406631577475942 7.12519503119812e-05 0.000217383192598872 -0.00127451800885801
"78" -0.000451992339438739 -0.000333977290492185 -0.000647004057438757 -0.000525838767376479 -0.000600898531516801 -0.000659043113592852 -0.000891142647204745 -0.00036452401347087 5.89895753422309e-05 -0.000150049386613957 -2.75951718608258e-05 -0.000542474367982647 -0.000394671984855901 8.73013270290925e-05 0.000218568424420653 -0.00124079660563126
"79" -0.000448202390072179 -0.000323589433730867 -0.000637529801724313 -0.000511325634034116 -0.000592409251096912 -0.000635839518717925 -0.000864308414656781 -0.00036285580494502 5.94671662194961e-05 -0.000145308081223677 -2.24213428539334e-05 -0.000532546917658333 -0.000382939334062729 0.000100923406397012 0.000218990453406735 -0.00120668556415173
"80" -0.000443930091735851 -0.000313599362378053 -0.000629168785656167 -0.00049752395999122 -0.000584268033062608 -0.000614204786480433 -0.000838946583750699 -0.000361994677183923 5.85849924038871e-05 -0.000141193335776964 -1.78944422685874e-05 -0.000522516064157878 -0.000371486098208575 0.000112099986193159 0.000218709449173277 -0.00117253835775843
"81" -0.000439225669782427 -0.000304136186851047 -0.00062203574312374 -0.000484596292480168 -0.000576578394518548 -0.00059431172124911 -0.000815294528312344 -0.000361993340641343 5.64095920416775e-05 -0.000137707668061901 -1.40226825877289e-05 -0.000512456364011664 -0.000360362756840745 0.000120840638320029 0.000217803812547821 -0.00113869622735473
"82" -0.000434150947340715 -0.000295321706328863 -0.000616228047320575 -0.000472695508911914 -0.00056944896172026 -0.000576299420450563 -0.000793547126104472 -0.000362892695488364 5.30194235038225e-05 -0.000134841543335703 -1.08020144796636e-05 -0.000502434477248668 -0.000349611782158294 0.00012717654486932 0.000216344289650987 -0.00110547898937528
"83" -0.000428765752449936 -0.000287267597087476 -0.000611818131184958 -0.00046194996020705 -0.000562961762867127 -0.000560288153328815 -0.000773877371525453 -0.000364720922921416 4.85010388147661e-05 -0.000132583054068648 -8.22899873994548e-06 -0.000492520426298756 -0.000339268075339802 0.000131159657031976 0.000214409493621248 -0.001073187396606
"84" -0.000423138305868597 -0.000280068798166328 -0.000608865416340864 -0.000452471354364543 -0.000557197814707512 -0.000546362291017261 -0.000756410662889828 -0.000367503069540879 4.29535647850163e-05 -0.000130911490353947 -6.29119252794866e-06 -0.000482772498704804 -0.000329361479609104 0.000132868932442442 0.000212078632500492 -0.00104209685115532
"85" -0.000417345135888148 -0.000273809080099975 -0.000607404603317066 -0.000444353483281972 -0.000552219792065269 -0.000534582246198387 -0.00074124588086984 -0.000371242241623026 3.64851829004235e-05 -0.000129801883294242 -4.96471096858177e-06 -0.000473249445147851 -0.000319914095912152 0.000132403924651968 0.000209433812040411 -0.00101245584215898
"86" -0.000411460599346425 -0.000268557677738518 -0.000607453991504028 -0.000437666637265487 -0.000548077745652046 -0.000524976264081654 -0.000728438789068821 -0.000375941632843671 2.9206534523658e-05 -0.000129219717398814 -4.22770369534232e-06 -0.000463996857780265 -0.000310942029611065 0.000129881424651535 0.000206549200090329 -0.000984484493718143
"87" -0.000405569062586314 -0.000264370888683537 -0.000609007770656983 -0.000432460062172584 -0.0005448061454503 -0.00051755345637765 -0.000718013248855625 -0.000381583977956317 2.12368220564579e-05 -0.000129128791637626 -4.04134249372186e-06 -0.000455059268945381 -0.000302449604786512 0.000125440737839999 0.000203511800429405 -0.000958370560294759
"88" -0.000399752490785697 -0.000261290653445549 -0.000612041355034819 -0.000428764734397433 -0.000542428348392932 -0.000512281628806906 -0.000709952767840367 -0.000388144035667765 1.26993783980357e-05 -0.000129481498495162 -4.37139871911544e-06 -0.000446466985991738 -0.000294440553866918 0.000119234096461352 0.000200398528491492 -0.000934270940878767
"89" -0.000394106236280316 -0.000259344149627955 -0.000616512360760538 -0.000426587260266807 -0.000540946378104658 -0.000509113811509061 -0.00070421223008576 -0.000395587220985578 3.72589742787765e-06 -0.000130227993203647 -5.16694727493137e-06 -0.000438252209754199 -0.000286904328589472 0.00011142638195548 0.000197286893004355 -0.000912306601471298
"90" -0.000388715564961365 -0.000258544547246294 -0.00062236013706676 -0.000425913680801518 -0.000540356794725016 -0.000507967663737236 -0.000700708180358153 -0.000403859808259311 -5.55784709421624e-06 -0.00013131227083071 -6.38373028358871e-06 -0.000430427875828339 -0.000279829103119626 0.000102199535706971 0.000194249268069978 -0.000892566877126896
"91" -0.000383673037418655 -0.000258887231862662 -0.000629497496795504 -0.000426708698133187 -0.000540630551518509 -0.000508744180677999 -0.00069932984063155 -0.000412903775227719 -1.50210103678715e-05 -0.00013267500684451 -7.9633880857069e-06 -0.000423001863301047 -0.000273192046409275 9.17372125478024e-05 0.00019135664022551 -0.000875110077743092
"92" -0.000379078712629042 -0.000260358032611523 -0.000637832822545479 -0.00042891961269285 -0.000541736607025821 -0.000511317779442415 -0.000699934474682407 -0.000422646741295473 -2.45303672410228e-05 -0.000134246632649525 -9.84712801731208e-06 -0.000415976307895111 -0.000266964856226687 8.02357866506506e-05 0.000188678176409232 -0.000859951792377315
"93" -0.00037502010322473 -0.000262932039801204 -0.000647252649030609 -0.000432473927892419 -0.000543615576627515 -0.000515547008131766 -0.000702356486579598 -0.000433006706248873 -3.39595292795453e-05 -0.000135960635662312 -1.1978316954085e-05 -0.000409338714789329 -0.000261113595381204 6.7892214690901e-05 0.000186275872703579 -0.000847086183223393
"94" -0.000371595474582538 -0.000266564992672864 -0.0006576282653691 -0.000437278895971909 -0.000546209404413013 -0.000521268491054694 -0.00070640383572791 -0.000443891552138072 -4.31787532414361e-05 -0.000137740229763932 -1.42852276778981e-05 -0.000403070018974186 -0.000255596502816312 5.49138906583382e-05 0.000184206606710353 -0.000836469287023877
"95" -0.000368898965492089 -0.000271205520775028 -0.000668823482131035 -0.000443232797126031 -0.000549436222995222 -0.000528299814184306 -0.000711866285020725 -0.00045519850344619 -5.20663278959583e-05 -0.000139509298050942 -1.67065900990804e-05 -0.000397145210393227 -0.000250370083320782 4.14960554320485e-05 0.000182522816800824 -0.000828025760318304
"96" -0.000367017270386539 -0.000276790657906623 -0.000680681938198166 -0.000450213079451471 -0.000553210335986531 -0.000536457345984204 -0.000718517767654622 -0.000466825442119117 -6.05065434941106e-05 -0.000141189538727135 -1.91740942421109e-05 -0.000391526051552225 -0.000245382609569139 2.78359328171579e-05 0.000181269561418978 -0.000821661468424741
"97" -0.000366039073980409 -0.000283247729666226 -0.000693051868441823 -0.000458088061071918 -0.000557437774997728 -0.000545536614491838 -0.000726116674117753 -0.000478649686859506 -6.83831205341386e-05 -0.000142699744066948 -2.16180594055149e-05 -0.000386168268518532 -0.000240581420645722 1.41328644974705e-05 0.000180487980840674 -0.000817246592330959
"98" -0.000366046462315503 -0.000290496929388078 -0.000705766628944435 -0.000466714730342987 -0.000562001266767326 -0.000555327788346528 -0.00073441554990082 -0.000490555386618348 -7.55921082482241e-05 -0.000143958393706837 -2.39722813772194e-05 -0.000381020181634431 -0.0002359092371859 5.72125802048499e-07 0.000180207759863859 -0.000814635019449547
"99" -0.00036712121428427 -0.000298454703040593 -0.000718651005662381 -0.000475939976447285 -0.000566795671897933 -0.000565616278694079 -0.000743155566050721 -0.000502414283347202 -8.20342857324843e-05 -0.000144881860436682 -2.61699949509161e-05 -0.000376026933311953 -0.000231304172606732 -1.26673531041027e-05 0.000180460571092002 -0.000813660257085036
"100" -0.000369330396924356 -0.000307019245454989 -0.000731537683279738 -0.000485606442890999 -0.000571699159438432 -0.000576184943956919 -0.000752075999060121 -0.000514101063613148 -8.76182739578553e-05 -0.000145394016135177 -2.81436691968653e-05 -0.000371126584284336 -0.000226708039382548 -2.54159952095339e-05 0.000181262418110839 -0.000814137179829077
"101" -0.00037274321291321 -0.000316099367445035 -0.000744250771269031 -0.000495551792271136 -0.000576583701701241 -0.000586818778923296 -0.000760920915161552 -0.000525486844488006 -9.22644374615039e-05 -0.000145411305126596 -2.98307387515385e-05 -0.000366249764585095 -0.000222058395791259 -3.75124721177305e-05 0.000182622967493079 -0.000815867012246983
"102" -0.000377413439915308 -0.000325591774350179 -0.000756623112720471 -0.00050560971848852 -0.000581330590085483 -0.00059729833503478 -0.00076943633961235 -0.00053644134864081 -9.58984263968979e-05 -0.000144860752434425 -3.11717231247647e-05 -0.00036132977457764 -0.000217291428808837 -4.88166501586965e-05 0.000184556066756094 -0.00081864381072884
"103" -0.00038339226887581 -0.000335390011942636 -0.00076848028668606 -0.000515614593296552 -0.000585807511881156 -0.000607417743026597 -0.000777372491579659 -0.000546833302339605 -9.84616349247594e-05 -0.000143670325401592 -3.21085767912488e-05 -0.00035629536208435 -0.000212348050038916 -5.91966051819127e-05 0.000187052489660809 -0.000822249369833905
"104" -0.000390717892107905 -0.000345394046288495 -0.000779662157901284 -0.000525403017236392 -0.000589888515107938 -0.000616973147734732 -0.000784490129471116 -0.00055654477329263 -9.98994085844834e-05 -0.000141771872067576 -3.25908471941682e-05 -0.000351073089658807 -0.000207169189092503 -6.85312128392563e-05 0.000190107332401223 -0.000826464713573137
"105" -0.000399421775716436 -0.000355499484938507 -0.00079001282698087 -0.000534810886727686 -0.000593452345950338 -0.000625770486885609 -0.000790565592480144 -0.000565450188234433 -0.000100172061664996 -0.000139103827820994 -3.25644207288621e-05 -0.000345593204217047 -0.000201698627325983 -7.67268046786956e-05 0.000193705941382226 -0.000831070501583273
"106" -0.000409521575628696 -0.000365600391174468 -0.000799383502641782 -0.000543684392656041 -0.000596378031622967 -0.000633627940257901 -0.00079538889677326 -0.000573436571001417 -9.92480291854292e-05 -0.000135613167876606 -3.19902499332514e-05 -0.000339786956022512 -0.000195882555004376 -8.36960962908218e-05 0.000197824218225544 -0.000835849305996593
"107" -0.000421025603512255 -0.000375598055739031 -0.000807641793937431 -0.000551876853044327 -0.000598553098915577 -0.000640376187592966 -0.000798770364946936 -0.000580397526348683 -9.71117517260084e-05 -0.000131249639000543 -3.08307888036489e-05 -0.000333586676626488 -0.000189674322821673 -8.93718551552387e-05 0.000202436327870167 -0.000840585774979967
"108" -0.000433929171269114 -0.00038539783264811 -0.000814657103578513 -0.000559241976858623 -0.000599865697527115 -0.000645862401932089 -0.000800528954502505 -0.000586232579184809 -9.3756171507886e-05 -0.000125975649790171 -2.90528302450617e-05 -0.000326931124418661 -0.000183029741938302 -9.37058275711145e-05 0.000207506132243956 -0.000845076333045153
"109" -0.000448222502467001 -0.000394903144266854 -0.000820319544355617 -0.000565648324157282 -0.000600223207851863 -0.000649945572554621 -0.000800518371268207 -0.000590851952408564 -8.91807931173732e-05 -0.000119759663915712 -2.66302825905245e-05 -0.00031976530762686 -0.000175908553335132 -9.66652035150038e-05 0.000212993115120924 -0.000849125717108229
"110" -0.000463875303846179 -0.000404030441802843 -0.000824528247009763 -0.000570977851878134 -0.000599530633930023 -0.000652506927404707 -0.000798606152710813 -0.000594176484376496 -8.34053405927616e-05 -0.000112579353322321 -2.35440583049221e-05 -0.000312037158308767 -0.000168280549187072 -9.82368881352538e-05 0.000218852225735978 -0.000852551604247908
"111" -0.00048085515292795 -0.000412697825686509 -0.000827203731217063 -0.000575120651814359 -0.000597713895401399 -0.000653442330329894 -0.000794685651005761 -0.000596142294757674 -7.64527537658029e-05 -0.0001044238685966 -1.97818980283752e-05 -0.000303702809205029 -0.000160119559059068 -9.84193423265106e-05 0.000225035887414431 -0.00085518382122399
"112" -0.000499108323642878 -0.000420832486686041 -0.000828276947776929 -0.000577976642423278 -0.000594701174259984 -0.000652669253811855 -0.000788676557778806 -0.000596690498961145 -6.83604987506773e-05 -9.5294046818518e-05 -1.53368646314619e-05 -0.000294730616004172 -0.000151406990445966 -9.72323382361795e-05 0.000231484277846407 -0.00085687371722115
"113" -0.000518581405968924 -0.000428364168007519 -0.000827689698299404 -0.000579467403732051 -0.00059043815687577 -0.000650121061792195 -0.000780518846587572 -0.000595776923590476 -5.91755982162828e-05 -8.51934612960391e-05 -1.02113535955572e-05 -0.000285090480929138 -0.000142130252601117 -9.47113934039594e-05 0.000238144829985504 -0.000857487402532608
"114" -0.000539205540371909 -0.000435232121954078 -0.00082541485943454 -0.000579523399833817 -0.000584884050974789 -0.00064575683019695 -0.000770184987414766 -0.000593371711049012 -4.89536769980367e-05 -7.41440594982211e-05 -4.41237966480738e-06 -0.000274769159141465 -0.000132286222660831 -9.09052814674352e-05 0.000244954852081105 -0.000856906225894787
"115" -0.000560901116126916 -0.000441388307073564 -0.00082142647466412 -0.000578090159584365 -0.000578006683933797 -0.000639551427289276 -0.0007576663410511 -0.000589463619467034 -3.77606310531202e-05 -6.2176241449643e-05 2.04615788553383e-06 -0.000263758749317556 -0.000121878033516943 -8.58810476980728e-05 0.000251850036249504 -0.000855040223168365
"116" -0.000583579511636313 -0.000446787314054185 -0.000815724127609849 -0.000575129495870721 -0.000569788365869878 -0.000631501873748178 -0.00074298162176815 -0.0005840468007106 -2.56719198503531e-05 -4.93284731295913e-05 9.14237581990918e-06 -0.000252058792650184 -0.000110919231348001 -7.9716810812751e-05 0.000258762071358997 -0.000851813483871841
"117" -0.000607150655020381 -0.00045139236352955 -0.000808320018121832 -0.000570614325633938 -0.000560230082906021 -0.000621623938417117 -0.00072617309674892 -0.000577136803617637 -1.27686814733027e-05 -3.5654979507253e-05 1.68512362957097e-05 -0.000239689146123329 -9.94247419219828e-05 -7.25022378024157e-05 0.000265626952739744 -0.000847173085678248
"118" -0.000631510443554345 -0.000455177105303426 -0.000799244463094788 -0.000564541494815012 -0.000549341242775942 -0.000609955406022079 -0.000707310899595934 -0.000568753951649024 8.58023398177563e-07 -2.12128432801586e-05 2.51382880662091e-05 -0.000226670631460131 -8.74234160496169e-05 -6.43432040627077e-05 0.00027237839689198 -0.000841087992693275
"119" -0.000656552014252867 -0.000458124247511097 -0.000788539867555493 -0.000556911830535389 -0.000537146591248012 -0.000596550919558076 -0.00068648181842552 -0.000558941603372003 1.51160868196355e-05 -6.07601633620105e-06 3.39651230294624e-05 -0.000213039582175726 -7.49485066536063e-05 -5.5347156766287e-05 0.000278946341094384 -0.000833546930569024
"120" -0.000682159129799495 -0.000460223504088592 -0.000776269607897566 -0.000547750436138037 -0.000523678757089958 -0.00058148351713719 -0.000663802112039944 -0.0005477468996836 2.99000151909789e-05 9.67785370042836e-06 4.3288753618508e-05 -0.000198841380016258 -6.20411679252473e-05 -4.56427589396069e-05 0.00028526223978407 -0.000824562901877711
"121" -0.000708219815294534 -0.000461471224806587 -0.000762502910845102 -0.000537092850282554 -0.000508991661823023 -0.000564844819248401 -0.000639402579552721 -0.000535238173047972 4.51072982184286e-05 2.59603390913527e-05 5.30566071021419e-05 -0.000184135516307318 -4.87477492254176e-05 -3.53560146267269e-05 0.000291267709438095 -0.000814165847129977
"122" -0.000734612166983307 -0.000461873728608384 -0.000747328396451048 -0.000524987700934052 -0.000493149972567148 -0.000546741868273541 -0.000613435246274158 -0.000521490664002351 6.06246215496414e-05 4.26749391625683e-05 6.32184548173897e-05 -0.000168982358054165 -3.51216299748419e-05 -2.46244223534285e-05 0.000296893620820325 -0.000802406593737163
"123" -0.000761216593129942 -0.00046144704347074 -0.000730849457149415 -0.000511503676706994 -0.000476226055087854 -0.000527297730448987 -0.000586066384164539 -0.000506593504107121 7.63472490445245e-05 5.97182805616867e-05 7.37179415735821e-05 -0.000153461318049903 -2.12208059872983e-05 -1.35849651369786e-05 0.000302083854580341 -0.000789356217439767
"124" -0.000787914213638085 -0.000460213621859145 -0.000713175654007465 -0.000496712215393093 -0.000458302735540631 -0.000506649621097824 -0.000557485174098274 -0.000490636548845599 9.21584048716928e-05 7.69825512267038e-05 8.44946409150601e-05 -0.000137657583979963 -7.10660788644064e-06 -2.37991889523959e-06 0.000306786267397302 -0.000775095982243789
"125" -0.000814586949814414 -0.000458201583666669 -0.000694424630215141 -0.000480704413927207 -0.000439477734658184 -0.000484944983901472 -0.000527884310823199 -0.000473735811533563 0.000107946434730609 9.43507575987878e-05 9.54887470211684e-05 -0.000121662427089354 7.15171469829982e-06 8.84770550251232e-06 0.000310941945541817 -0.000759732768202711
"126" -0.000841110328927358 -0.000455444029015639 -0.000674728232555265 -0.000463580425663385 -0.000419854793065815 -0.000462345258886937 -0.000497476196399017 -0.00045599968566637 0.000123598170013101 0.000111705938043506 0.000106632642065621 -0.000105573290494747 2.14805321001405e-05 1.9951725767338e-05 0.000314510140419701 -0.000743385444420321
"127" -0.000867374583712185 -0.000451988174221648 -0.000654225405795892 -0.000445451059049819 -0.000399544742798858 -0.00043901652249181 -0.000466477122674778 -0.000437549350786159 0.000139005582928735 0.000128928249454873 0.00011786560128837 -8.95015628733901e-05 3.58110721631348e-05 3.07956246209355e-05 0.000317450955650956 -0.000726178008103929
"128" -0.00089326988881983 -0.000447875689908081 -0.000633060843279753 -0.000426436588205955 -0.000378668506239844 -0.000415135077614451 -0.000435106347802754 -0.000418515444102413 0.000154062073094526 0.000145892655631461 0.000129117613805785 -7.35534073634415e-05 5.00643890963788e-05 4.12446644104343e-05 0.000319722681977496 -0.00070825508327961
"129" -0.00091868933080428 -0.000443162272876963 -0.000611387538278028 -0.000406660038451201 -0.000357355957554668 -0.000390882528068964 -0.000403596076835197 -0.00039903004911984 0.00016866257964516 0.000162476548356778 0.000140329004925396 -5.78438492471998e-05 6.41654377171114e-05 5.11670696869677e-05 0.000321302182614807 -0.00068976445997544
"130" -0.000943535502910771 -0.000437905797966152 -0.000589351117529237 -0.000386260931994922 -0.000335729127146572 -0.000366444796218193 -0.000372174824936915 -0.000379221506123675 0.000182708247577491 0.000178558320450803 0.000151432930139921 -4.24928180608751e-05 7.80359553079078e-05 6.04360631725356e-05 0.000322163999527906 -0.000670862826188632
"131" -0.000967717462713204 -0.000432170331953169 -0.000567114417273848 -0.000365376141220221 -0.000313931496894309 -0.000342008202049421 -0.000341067961403573 -0.000359234096126126 0.000196112871581923 0.00019401888324037 0.000162368551080096 -2.76146302724027e-05 9.16032967972713e-05 6.89410108649108e-05 0.000322294432851328 -0.000651711319669043
"132" -0.000991148613684012 -0.000426021528526391 -0.000544830619579744 -0.000344150511418906 -0.00029209469542987 -0.00031775529116427 -0.000310505697625198 -0.000339200320706128 0.000208785030112112 0.000208738701607132 0.000173073159195773 -1.33290634331226e-05 0.000104789179741119 7.65757658848351e-05 0.000321679450401207 -0.000632474788515457
"133" -0.00101375700317035 -0.000419528107382511 -0.000522657989896617 -0.000322730825922255 -0.000270360187418587 -0.000293873884482737 -0.000280704773153771 -0.000319260271497167 0.000220648592779948 0.000222604851897742 0.000183488190247096 2.47703897272764e-07 0.000117520807512468 8.32447510626784e-05 0.000320317548263621 -0.000613317119698999
"134" -0.00103547311535721 -0.000412760079604385 -0.000500749933362154 -0.000301264941318668 -0.000248868436713955 -0.000270539580143378 -0.000251876053040573 -0.000299547114354864 0.000231639072939997 0.000235517081189137 0.000193563138556201 1.30030349833749e-05 0.00012973071255604 8.88665743756388e-05 0.000318217699804309 -0.000594404246400323
"135" -0.00105624084382444 -0.00040579197774841 -0.000479257213235648 -0.000279899821646509 -0.000227752864011556 -0.000247929062433916 -0.000224226027812113 -0.000280189581969871 0.000241688699395744 0.000247371728171329 0.000203241330766788 2.48306406858993e-05 0.000141351397814134 9.33737263799398e-05 0.000315386694078926 -0.000575892810462987
"136" -0.00107601456781236 -0.000398701813305388 -0.000458324364792089 -0.000258783052542412 -0.000207158783288607 -0.000226210438413896 -0.000197941965374322 -0.000261322566047548 0.000250752113844511 0.000258082624728828 0.000212479516158796 3.56287511332302e-05 0.000152323377056973 9.67096895996758e-05 0.000311841871382447 -0.000557941491850777
"137" -0.0010947563014826 -0.000391559697321168 -0.000438096152771997 -0.000238059778774292 -0.000187208616040847 -0.000205531796377974 -0.000173196376905737 -0.000243058471766546 0.000258785783685601 0.000267566036231081 0.000221231894194184 4.53032789726376e-05 0.000162590048556067 9.8832437643642e-05 0.000307606427993121 -0.000540694735833204
"138" -0.00111243738676388 -0.00038444604941917 -0.000418703407560617 -0.000217869151188736 -0.000168041012763322 -0.000186047504687129 -0.000150155057250854 -0.000225519745097889 0.000265761218054404 0.000275753912268265 0.000229464224962498 5.37706994210302e-05 0.000172098884125479 9.97180271129698e-05 0.00030271239397387 -0.000524293158116553
"139" -0.00112904386375292 -0.000377431168680174 -0.00040027376315986 -0.00019834402323882 -0.00014977268002757 -0.000167888284998431 -0.000128961207944119 -0.000208811897044193 0.000271653257243852 0.000282587270368889 0.000237138692790552 6.09541213101465e-05 0.000180807940148779 9.93489934364513e-05 0.000297191397289982 -0.000508865255178682
"140" -0.00114456632883865 -0.00037059233147324 -0.000382919876095871 -0.000179616375424901 -0.000132527686416409 -0.000151176705557806 -0.000109743405967924 -0.000193032664719473 0.000276451022437801 0.00028801937048089 0.000244230482914446 6.67933583660368e-05 0.000188675854562172 9.77300896637327e-05 0.000291080210556756 -0.000494529441412003
"141" -0.00115901240584938 -0.00036400243454512 -0.000366754263218277 -0.000161808296942104 -0.000116410568093048 -0.000136016466518022 -9.26059256550625e-05 -0.000178274525229729 0.000280158082452069 0.000292015242417823 0.000250715277837674 7.12338415416101e-05 0.00019567870238742 9.48857296910995e-05 0.000284432854236491 -0.000481382956293504
"142" -0.00117238979317172 -0.000357728348023674 -0.000351867255918237 -0.000145030536533371 -0.000101526908968197 -0.000122503135448999 -7.76438311805219e-05 -0.000164618109562071 0.000282778380802542 0.000294552322845641 0.000256572666597609 7.42397032931319e-05 0.000201782706182534 9.08365520305666e-05 0.000277287668545257 -0.000469522224951373
"143" -0.00118472693500212 -0.000351838211605053 -0.000338347316581644 -0.000129388382039118 -8.79713266506147e-05 -0.000110709976110939 -6.49218657360447e-05 -0.000152128758105597 0.000284333987785439 0.000295625694518614 0.000261793311814562 7.57842037142812e-05 0.000206980021122774 8.56359718307501e-05 0.000269704974091319 -0.000459016698655275
"144" -0.00119604657311264 -0.00034639710853319 -0.000326264543345805 -0.000114975797374627 -7.58267271912479e-05 -0.000100700901777306 -5.44916780918962e-05 -0.00014087083980971 0.000284852179320225 0.000295237469410259 0.000266368586903256 7.58553038941759e-05 0.000211258105246984 7.93397277332096e-05 0.000261731821865464 -0.000449925284049933
"145" -0.00120639686051643 -0.000341461478373657 -0.000315684866537928 -0.000101881854234807 -6.51705177878808e-05 -9.25168667051284e-05 -4.63856532455934e-05 -0.000130891427480551 0.000284369667340218 0.000293403294591017 0.000270297391435974 7.44517974681097e-05 0.0002146138163696 7.20202002832744e-05 0.000253434573566782 -0.000442289549926951
"146" -0.00121581727006254 -0.000337091104853912 -0.000306650738024045 -9.0173819215997e-05 -5.6062516346687e-05 -8.61912877292304e-05 -4.06187780326218e-05 -0.000122222536055043 0.000282929752768491 0.000290155677091608 0.000273581830409978 7.15923613708635e-05 0.000217055267987004 6.37576737644772e-05 0.000244865734868349 -0.000436134838560571
"147" -0.00122436619798316 -0.000333334408451859 -0.000299202422000635 -7.99224307250938e-05 -4.85616811125878e-05 -8.17311532953945e-05 -3.71820832485324e-05 -0.000114891076403719 0.000280584979018951 0.000285536715698808 0.000276227225900622 6.73045120493063e-05 0.000218592284777676 5.46526880904501e-05 0.000236090706456382 -0.000431472030530335
"148" -0.00123210228294991 -0.000330240469746391 -0.000293366223048642 -7.11738244148929e-05 -4.2706165507161e-05 -7.91408992916249e-05 -3.60528445749852e-05 -0.000108908169089546 0.00027739811942378 0.000279595938243367 0.000278252680023625 6.16250392135075e-05 0.000219248282172359 4.4802146275282e-05 0.000227172832157198 -0.000428288882758395
"149" -0.00123909403271304 -0.000327848796899323 -0.000289151102967114 -6.39725847232522e-05 -3.853161899731e-05 -7.83990564591333e-05 -3.7195282130198e-05 -0.000104275279420335 0.000273430512194195 0.000272399634530566 0.000279668349307366 5.46076433744088e-05 0.000219048153999435 3.43184532198416e-05 0.000218174366743984 -0.000426565113519122
"150" -0.00124540858675536 -0.000326197187366564 -0.000286559885642947 -5.83533293584905e-05 -3.60544839753274e-05 -7.94778175205208e-05 -4.05576968934367e-05 -0.000100983751407464 0.000268751552791201 0.000264020819097399 0.000280496696309189 4.63153750657242e-05 0.000218024049093337 2.33201343572934e-05 0.000209158097786585 -0.000426260229452637
"151" -0.00125111732747358 -0.000325310573238512 -0.000285584354316877 -5.43317353622643e-05 -3.52902563141554e-05 -8.23366807679515e-05 -4.607250592565e-05 -9.90135213043291e-05 0.000263436715703675 0.000254540447335154 0.000280762744973773 3.68238685940956e-05 0.000216210561623484 1.19299521370001e-05 0.000200184869540179 -0.000427328403711534
"152" -0.00125630357279708 -0.000325221505748974 -0.000286206131948545 -5.1922850401085e-05 -3.6232697518297e-05 -8.69154199298508e-05 -5.36616884353622e-05 -9.83307834885215e-05 0.000257565990567114 0.000244047290354314 0.000280494758175044 2.6208157940938e-05 0.000213653454989028 2.78606463174212e-07 0.000191319648607349 -0.000429694527739957
"153" -0.00126104272345644 -0.000325946172063258 -0.000288391483802982 -5.11243524895878e-05 -3.88775386725835e-05 -9.31506124177193e-05 -6.32439503936803e-05 -9.88997482663057e-05 0.000251218846360974 0.000232636642492206 0.000279719603389468 1.45658056090423e-05 0.000210398429927598 -1.1503841271838e-05 0.00018262468859562 -0.00043328751912817
"154" -0.00126541288407543 -0.000327498290192655 -0.000292104471269369 -5.19321802121048e-05 -4.31999826873832e-05 -0.000100968586420919 -7.47195855414025e-05 -0.000100665843951464 0.00024447499335911 0.00022040926588944 0.00027847565745146 1.9863430297511e-06 0.000206497022151834 -2.32895691973726e-05 0.000174152605410778 -0.000438016390823515
"155" -0.00126949148606951 -0.000329883019311778 -0.000297297298264134 -5.43261743462668e-05 -4.91706262171457e-05 -0.000110281436567578 -8.79883350373648e-05 -0.000103578651257105 0.000237415531810507 0.00020747209167012 0.000276793462345044 -1.14239732721704e-05 0.000202002889819638 -3.49419356280213e-05 0.000165965357655512 -0.000443784949876171
"156" -0.00127335901091986 -0.000333103898171692 -0.000303916080319104 -5.82834095391889e-05 -5.67546593610925e-05 -0.000121002358308976 -0.000102940973905334 -0.000107568750265827 0.000230124211301959 0.000193930818965056 0.000274707139551423 -2.55606243537894e-05 0.000196971709213627 -4.63294445815313e-05 0.000158110583662006 -0.000450486717996323
"157" -0.00127708785710576 -0.000337156289383564 -0.000311903335445782 -6.37696166054225e-05 -6.59018386305299e-05 -0.000133034028691978 -0.000119469821435903 -0.000112571419989169 0.000222681039011797 0.000179894443545661 0.000272258975997724 -4.03131652494079e-05 0.000191463000353167 -5.73289638309896e-05 0.000150637674037678 -0.000458014704490787
"158" -0.00128074483567714 -0.000342030300134313 -0.000321186161898178 -7.07423581905121e-05 -7.6562188429554e-05 -0.000146271369847905 -0.000137459099171136 -0.000118510121190455 0.000215160865234564 0.000165471817130746 0.000269481855161721 -5.55706151779266e-05 0.000185531952284045 -6.78203530209741e-05 0.00014359496946329 -0.000466251910439234
"159" -0.00128440326542105 -0.000347712502924355 -0.000331700893014088 -7.91601042044403e-05 -8.86772081635431e-05 -0.000160614928017664 -0.000156797154731584 -0.000125306141106074 0.000207642591657376 0.000150770929479223 0.000266414430724183 -7.12234628603184e-05 0.000179241233584883 -7.76746963114913e-05 0.000137020352697129 -0.000475079533355183
"160" -0.00128811937414936 -0.000354181203387317 -0.000343367984323531 -8.89681127088251e-05 -0.00010218023538669 -0.000175953468325893 -0.000177371800226318 -0.000132884350274159 0.000200194148989162 0.000135902945233377 0.000263093027185876 -8.71561214595758e-05 0.000172647978435874 -8.67910409434533e-05 0.000130954483194368 -0.000484382284475565
"161" -0.00129194877232351 -0.000361412806573494 -0.000356112398017749 -0.000100110114127856 -0.000117003926920174 -0.00019218282013512 -0.000199072465164509 -0.000141155567351726 0.000192880444780173 0.000120965266457929 0.000259552456709031 -0.00010326300609154 0.000165810427394733 -9.50685673607208e-05 0.000125422422387848 -0.000494041335287505
"162" -0.00129593609846354 -0.00036937729248685 -0.000369850600651487 -0.000112519245745454 -0.000133072465890296 -0.000209191974987392 -0.000221791484398452 -0.000150043226823787 0.000185762053128978 0.000106063842608173 0.000255823309872418 -0.000119436697140113 0.000158782962203722 -0.000102406598709332 0.00012045290045613 -0.000503941268727972
"163" -0.00130012092621038 -0.000378035642444955 -0.000384500323240255 -0.000126133268364094 -0.000150312855336155 -0.000226875095415975 -0.000245421887309106 -0.000159464040217488 0.000178893348353717 9.12885977815419e-05 0.000251939200698476 -0.000135568154036136 0.000151617513757286 -0.00010872942170363 0.000116059987870645 -0.000513973639735998
"164" -0.00130453099091575 -0.000387354487239207 -0.000399977111941926 -0.000140875842796626 -0.00016864160245731 -0.000245124765027572 -0.000269862059659538 -0.000169336854723506 0.00017232069903208 7.67331548205367e-05 0.000247928665044104 -0.000151558216712262 0.000144367610857494 -0.000113964045421788 0.000112257673076151 -0.000524028927811138
"165" -0.00130918545872902 -0.000397285702218689 -0.00041620247783097 -0.00015668008792222 -0.000187982815895856 -0.000263839891790795 -0.000295020616001411 -0.000179583303961052 0.000166083599493743 6.24788934745327e-05 0.000243814577556159 -0.00016731462099335 0.000137076804453044 -0.000118048341421778 0.000109055964721996 -0.000534010134887108
"166" -0.00131409410314464 -0.000407783621531829 -0.000433083156186765 -0.000173458275187586 -0.000208253123515463 -0.000282921823372945 -0.000320800752598459 -0.000190130755443192 0.000160212872093404 4.86053236601224e-05 0.000239620020321238 -0.000182743789680031 0.000129788318570849 -0.000120943680561598 0.00010644633591629 -0.000543823176478413
"167" -0.00131925359299669 -0.000418796175610347 -0.000450544151429278 -0.000191138802649078 -0.000229373183849727 -0.000302273236862225 -0.000347122998890404 -0.000200908422180568 0.000154733893454314 3.51767978810769e-05 0.000235362752464612 -0.000197762917064082 0.000122539505989548 -0.000122606985861259 0.00010442575110898 -0.000553386745002082
"168" -0.00132465210207624 -0.000430271852381724 -0.00046849631535153 -0.000209633299745834 -0.000251260803397104 -0.000321802559197113 -0.000373904305312567 -0.000211848127799192 0.000149662312293673 2.22561347380992e-05 0.000231058348846135 -0.00021229342852414 0.000115367249107189 -0.000123027081638905 0.000102976406163806 -0.00056262372054915
"169" -0.0013302665575278 -0.000442151492943076 -0.000486862224400094 -0.000228862081238813 -0.000273835714907555 -0.000341426272543051 -0.000401075659103666 -0.000222891039373737 0.000145002920501438 9.8961469489584e-06 0.000226714504654135 -0.000226266129159655 0.000108295144151202 -0.000122193761458121 0.000102073803975065 -0.000571472792525364
"170" -0.00133606297188154 -0.000454375572503837 -0.000505560630712177 -0.000248740318479224 -0.000297016712045288 -0.000361060720232242 -0.000428568186693597 -0.000233979717547893 0.000140753499501962 -1.85975792121651e-06 0.000222338758211934 -0.000239620255523077 0.000101351266541047 -0.000120116516523431 0.000101694503856391 -0.000579877717757757
"171" -0.00134199506453354 -0.000466880760893295 -0.000524513197417277 -0.000269177433427116 -0.000320725679482217 -0.000380631176585603 -0.000456316478054217 -0.000245061574220614 0.000136906009787009 -1.2980605582601e-05 0.000217933355842238 -0.00025229995283229 9.45485130549968e-05 -0.00011682080847306 0.000101797533157436 -0.000587794097055809
"172" -0.00134800674890881 -0.00047960658327952 -0.000543642347349017 -0.000290088775063778 -0.000344889232467978 -0.00040006792210252 -0.000484266316579253 -0.000256096008611347 0.000133437717268032 -2.34354415056389e-05 0.000213494844322565 -0.000264255216926517 8.79025722187357e-05 -0.000112343156945944 0.000102340900637624 -0.000595192338019038
"173" -0.0013540378845129 -0.000492487615764359 -0.00056288160281354 -0.0003113887316299 -0.000369434680659665 -0.000419308381555053 -0.000512365441613642 -0.000267038747881459 0.000130328763730367 -3.32112979137862e-05 0.000209020497016721 -0.000275453352328752 8.14219945859983e-05 -0.000106729827115521 0.000103278965725578 -0.000602043221469321
"174" -0.00136000554419545 -0.000505457025960718 -0.000582152272199316 -0.00033299155454427 -0.000394285679087825 -0.000438293757286138 -0.000540572404940461 -0.000277861419487822 0.000127539484919412 -4.23016848335566e-05 0.000204493560189193 -0.000285864644249359 7.51071158545783e-05 -0.000100047215764653 0.000104553941070152 -0.000608339406714143
"175" -0.0013658357944426 -0.000518447886667535 -0.000601390350299662 -0.000354809188366953 -0.000419375217245632 -0.00045697135244178 -0.000568837684951207 -0.000288528901694693 0.00012503009505219 -5.07081795185853e-05 0.00019990842697955 -0.000295465743219104 6.89577849423145e-05 -9.2373288073735e-05 0.000106108325467804 -0.000614074968752792
"176" -0.00137143684559534 -0.000531394537297746 -0.00062052473138594 -0.000376759441581988 -0.000444631880182228 -0.000475295036667036 -0.000597125521185517 -0.000299017167100549 0.00012275311526222 -5.84405608964848e-05 0.000195241894960768 -0.000304248723799043 6.29674312937493e-05 -8.37931878455553e-05 0.000107880600978693 -0.000619257745848289
"177" -0.00137670985444137 -0.000544233103036126 -0.000639498716464074 -0.000398757626967158 -0.000469995364262841 -0.000493222790754371 -0.00062540292685336 -0.0003093094147369 0.000120651762982896 -6.55197752410995e-05 0.000190481291730946 -0.000312208193119143 5.71226196668657e-05 -7.44041443066637e-05 0.000109803299857641 -0.000623900875397838
"178" -0.00138155431667151 -0.000556894001114098 -0.000658248180392841 -0.000420719280628576 -0.000495399511367627 -0.00051072164329906 -0.000653635999514683 -0.000319385834328017 0.000118669420013072 -7.19747631656479e-05 0.000185600835615257 -0.000319349739030643 5.14085697405411e-05 -6.4324860012262e-05 0.000111803827079006 -0.000628028557756874
"179" -0.00138587074779994 -0.000569318804839912 -0.000676717191515829 -0.000442573668316829 -0.000520784246701496 -0.000527758012673376 -0.000681794747789711 -0.00032923416407797 0.000116742775121137 -7.78350330278621e-05 0.000180577386038989 -0.000325691336623705 4.58116731150487e-05 -5.36626016021286e-05 0.000113813977868805 -0.000631667172641867
"180" -0.00138954666276389 -0.000581444081674354 -0.000694847783778705 -0.000464237915520512 -0.000546088799523783 -0.000544307667836092 -0.000709853285601044 -0.000338844310020872 0.000114802396995426 -8.31483364090678e-05 0.000175387072701759 -0.00033125349382409 4.03055297482593e-05 -4.25450892575961e-05 0.000115754299019898 -0.000634852860932526
"181" -0.00139247378330639 -0.000593208002341695 -0.000712592005671556 -0.000485638649187653 -0.000571253111294981 -0.000560347328934928 -0.000737783214532857 -0.000348205746618975 0.000112779391953817 -8.79611798481449e-05 0.000170005303705389 -0.000336063756210853 3.48707934114867e-05 -3.11113845490352e-05 0.000117557719836721 -0.000637626132302889
"182" -0.00139454634141378 -0.00060455160175114 -0.000729898092137404 -0.000506703916215201 -0.000596225026842912 -0.000575863002243598 -0.000765559829227371 -0.000357311066103305 0.000110597661556813 -9.23285388296582e-05 0.000164400741289249 -0.000340165486774369 2.9480112125669e-05 -1.94985170915597e-05 0.000119146856434015 -0.000640031512216099
"183" -0.00139565965426037 -0.000615427713745462 -0.000746721421695023 -0.000527372919580592 -0.000620944368822566 -0.000590839130650261 -0.000793157714427072 -0.00036615036562358 0.000108189848598196 -9.63090379525807e-05 0.000158552846004547 -0.00034360011448533 2.41126698706789e-05 -7.84153964957289e-06 0.000120450702848 -0.000642110932215419
"184" -0.00139570574030563 -0.00062577676393369 -0.000763013919001996 -0.000547573614690817 -0.000645357527465043 -0.00060526590831428 -0.000820549551526708 -0.000374716470445464 0.000105473980136599 -9.99654552422506e-05 0.000152433637476937 -0.000346415725887044 1.87333780388048e-05 3.70577268580734e-06 0.000121395063452085 -0.000643917321731278
"185" -0.00139458718443154 -0.000635557497172644 -0.000778740773952098 -0.000567250316739063 -0.000669414313522904 -0.000619133967241619 -0.00084771162471418 -0.000383004133260071 0.000102388380953085 -0.000103365721102244 0.000146018481370976 -0.000348671286079323 1.3322350447812e-05 1.50019897055719e-05 0.000121918559447364 -0.000645495929994963
"186" -0.00139220786354003 -0.000644721213753961 -0.000793857522473165 -0.000586345017370032 -0.000693057215809366 -0.000632443610096405 -0.000874618205578915 -0.000391003030126589 9.88532123340188e-05 -0.000106578858409523 0.000139284520591684 -0.000350426919029817 7.84862312710668e-06 2.58996038243781e-05 0.000121949739108291 -0.000646897436184891
"187" -0.00138848309412879 -0.000653229226581786 -0.000808331742332208 -0.000604804611486403 -0.000716236168455918 -0.000645186902423239 -0.00090123572685665 -0.000398700477229457 9.48042022786975e-05 -0.000109673103697789 0.000132212515362723 -0.000351743701264442 2.29058976809209e-06 3.62553321380669e-05 0.00012143128289081 -0.000648168027939762
"188" -0.00138333173564533 -0.000661052714048017 -0.000822132358425224 -0.000622583049929984 -0.00073889998187784 -0.0006573649570616 -0.000927541591328902 -0.000406087475101195 9.01786235295242e-05 -0.000112719537516814 0.000124782115699641 -0.000352691313918302 -3.37554667805015e-06 4.59262905953541e-05 0.000120309366640292 -0.000649350809579953
"189" -0.00137668386209898 -0.000668149543198418 -0.000835220411276025 -0.000639630832140168 -0.000760993104695822 -0.000668979185741236 -0.000953494526941967 -0.000413147456601035 8.49106124347579e-05 -0.000115788631686846 0.000116977422765955 -0.000353334933802015 -9.17539841923033e-06 5.47723964304749e-05 0.000118534274716165 -0.000650490586875978
"190" -0.00136847398814637 -0.000674499113885545 -0.000847575706168069 -0.000655908472853053 -0.000782471354693016 -0.000680030176937468 -0.000979066885672222 -0.000419863574029813 7.89513000226169e-05 -0.00011894590423421 0.000108786414838609 -0.000353741717679212 -1.51242295000818e-05 6.26658546303609e-05 0.000116057174030083 -0.00065162802843668
"191" -0.00135865742696737 -0.000680081042775877 -0.000859168570256082 -0.000671382419854729 -0.00080328060969564 -0.000690518820859023 -0.00100421983348159 -0.000426216091940928 7.22495185289667e-05 -0.000122258351469999 0.000100203169990746 -0.000353983326612981 -2.12375260022705e-05 6.94823150938316e-05 0.000112844889418243 -0.000652794810693985
"192" -0.00134718579587785 -0.000684870582568409 -0.000869976783800234 -0.000686010027119067 -0.000823368949795132 -0.000700450147641836 -0.00102891447569774 -0.000432188521772409 6.47585125240558e-05 -0.00012578482674675 9.1215114761793e-05 -0.000354120894124853 -2.75336405200399e-05 7.51005274988592e-05 0.000108864134093057 -0.000654024268023414
"193" -0.00133403318484193 -0.000688858158193694 -0.000879976767550288 -0.000699766706799666 -0.000842692431280132 -0.000709828270776291 -0.00105310733329311 -0.00043775477403927 5.64444952465996e-05 -0.000129587701561519 8.18243399236637e-05 -0.000354219759733418 -3.40192675503311e-05 7.94194467075427e-05 0.000104088764156466 -0.000655342482548065
"194" -0.0013191787650804 -0.000692031446714979 -0.000889149774099026 -0.000712621387098812 -0.00086119661696818 -0.00071865373687407 -0.00107675282408487 -0.000442891399937351 4.72802631480725e-05 -0.000133712518661828 7.20271980567003e-05 -0.000354342130999664 -4.07013326250357e-05 8.23367510168092e-05 9.85008818056884e-05 -0.000656770471308615
"195" -0.0013026184355302 -0.000694385098739108 -0.000897475877109606 -0.000724551720085221 -0.000878838527093101 -0.000726930942323493 -0.00109980613799842 -0.000447572423195676 3.72450161051171e-05 -0.0001382098406753 6.1835047470492e-05 -0.000354537934464074 -4.75818684205363e-05 8.37656024308263e-05 9.20930187528744e-05 -0.00065832409145061
"196" -0.00128434992890002 -0.000695915818819611 -0.000904943230523109 -0.000735534464309104 -0.00089557100804367 -0.000734660415677945 -0.00112221363793172 -0.000451770124327515 2.63208480759224e-05 -0.00014311690082801 5.12471736977772e-05 -0.000354860345173935 -5.46617264159874e-05 8.36343287388928e-05 8.48579722618352e-05 -0.000660018093877147
"197" -0.00126439086329746 -0.000696623417339098 -0.000911530815948463 -0.000745547400278736 -0.000911345295136207 -0.000741845169322941 -0.00114392640149327 -0.000455458057546429 1.45062785220484e-05 -0.000148465150805595 4.02790815912365e-05 -0.00035535333991594 -6.193359133202e-05 8.18841574036673e-05 7.68025356174728e-05 -0.000661856802182952
"198" -0.00124276925466003 -0.000696509288395678 -0.000917231009582887 -0.000754576263638571 -0.000926119876584774 -0.000748486816826749 -0.00116488819330667 -0.000458606755736725 1.8047376456523e-06 -0.00015428007293593 2.89479401119677e-05 -0.000356051237559551 -6.93915367861233e-05 7.84636090562528e-05 6.79320041165781e-05 -0.000663843331670707
"199" -0.00121951933562698 -0.000695583561420821 -0.000922033152309164 -0.000762602526584868 -0.000939852974789825 -0.000754585058791555 -0.00118504150636754 -0.000461187678523062 -1.17704113070578e-05 -0.000160577254020211 1.72695297630001e-05 -0.000356982280284537 -7.702017133913e-05 7.33454979764885e-05 5.82695656673095e-05 -0.000665971867350211
"200" -0.00119468895040154 -0.000693849244114146 -0.000925922186228719 -0.000769616153749287 -0.000952500025772962 -0.000760138648859079 -0.00120432762840581 -0.000463172302406336 -2.62001249218198e-05 -0.000167366342152541 5.26953185844152e-06 -0.000358174990157291 -8.48034496329385e-05 6.65065497241352e-05 4.78368315014919e-05 -0.000668236863291411
"201" -0.0011683333076425 -0.000691321188080449 -0.000928896736036267 -0.000775605317011568 -0.000964029095579994 -0.00076514493358459 -0.0012226869003701 -0.000464533730279152 -4.1453770459313e-05 -0.000174647685079438 -7.03261932644427e-06 -0.00035963997027202 -9.27229785476179e-05 5.79461533455441e-05 3.66624017190962e-05 -0.000670624426893765
"202" -0.00114051804806001 -0.000688008132581269 -0.000930941895324472 -0.000780559187997223 -0.000974400839415977 -0.000769605448220696 -0.00124006029284657 -0.000465244649883627 -5.74959858864846e-05 -0.000182413631320286 -1.96034544589302e-05 -0.000361382036218054 -0.000100753343578595 4.76760216479062e-05 2.47894067707828e-05 -0.000673120438477113
"203" -0.0011113154659178 -0.000683925062021396 -0.000932057594843392 -0.000784471476880905 -0.000983579191827843 -0.00077351202255285 -0.0012563834738746 -0.000465282988523403 -7.42798532586808e-05 -0.000190644795706507 -3.24160576804204e-05 -0.000363402322850523 -0.000108870607373074 3.57241441513893e-05 1.22558801448209e-05 -0.000675703263931303
"204" -0.00108080599513278 -0.000679083252301939 -0.000932237795489579 -0.000787334815569363 -0.000991533306415242 -0.000776862476968119 -0.00127159936096923 -0.000464622026022161 -9.17533746791466e-05 -0.000199322249500689 -4.54366123202315e-05 -0.000365694515825392 -0.000117042313629675 2.21302254790849e-05 -8.87033666616024e-07 -0.000678352151349859
"205" -0.00104908054734563 -0.000673499916291991 -0.000931479563362282 -0.000789149923785339 -0.000998236107492972 -0.000779651229751252 -0.00128564433738939 -0.000463242876739618 -0.000109856222903981 -0.000208413282660621 -5.86257758414577e-05 -0.000368240853534226 -0.00012523789037995 6.95615927502241e-06 -1.45857121123727e-05 -0.00068103603645611
"206" -0.00101622895209753 -0.000667187906111405 -0.000929778680555451 -0.000789911203020419 -0.00100366365602682 -0.000781870969657083 -0.00129845957510991 -0.000461127431622185 -0.000128522027588587 -0.00021788111164266 -7.19508852571525e-05 -0.000371020105708226 -0.000133422048425753 -9.72707238120461e-06 -2.87776686899681e-05 -0.000683730223133761
"207" -0.000982351113951165 -0.000660163352247078 -0.000927137470012634 -0.000789619810392976 -0.00100778792883853 -0.00078351539096537 -0.00130998340563276 -0.000458256887998514 -0.000147679707165296 -0.000227680365264711 -8.53681111353135e-05 -0.000374000261667107 -0.000141559758113074 -2.7834562426129e-05 -4.3405765656274e-05 -0.000686403549575399
"208" -0.000947553097400213 -0.00065244356615926 -0.000923554168529119 -0.00078827741714678 -0.0010105953197015 -0.000784574193564409 -0.00132016227855396 -0.000454622453342752 -0.000167246907226655 -0.000237760065681423 -9.88346434563301e-05 -0.000377151840526236 -0.000149610120672172 -4.72693462461652e-05 -5.83949618089527e-05 -0.000689019537018472
"209" -0.000911938816643893 -0.000644042790798584 -0.000919034468312534 -0.00078589144667663 -0.00101206380066867 -0.000785037930849378 -0.00132894137903054 -0.00045020687697976 -0.000187140451077043 -0.000248066064373722 -0.000112309517499661 -0.000380432655890134 -0.000157534804962871 -6.79155342488614e-05 -7.36757028768704e-05 -0.00069154634532256
"210" -0.000875616702432358 -0.000634971821242471 -0.000913575266712763 -0.000782465271162514 -0.00101218201623468 -0.0007848958367807 -0.00133626387777446 -0.000445007643464946 -0.000207274652004366 -0.000258540161517686 -0.000125748831467581 -0.000383800317683514 -0.000165295688529425 -8.96513226609941e-05 -8.9176638194456e-05 -0.000693946661916053
"211" -0.000838696782392349 -0.000625247073763544 -0.000907185617205658 -0.000778009164063078 -0.00101094073630354 -0.000784139169975154 -0.00134208542817817 -0.000439016465517945 -0.000227556909816193 -0.000269117944534102 -0.000139105014483008 -0.000387205439754324 -0.000172848648311563 -0.000112346299542588 -0.000104814369614906 -0.000696186151885783
"212" -0.000801290379219341 -0.000614881452334997 -0.000899868148902974 -0.000772534272097254 -0.00100833398305875 -0.000782755093813731 -0.00134635974486824 -0.000432234948753346 -0.000247892028345599 -0.000279732469141783 -0.000152334320522674 -0.000390600003334062 -0.000180152638199731 -0.000135852798724595 -0.00012051586294963 -0.000698226325576991
"213" -0.000763507564046066 -0.00060388483459838 -0.000891633132424783 -0.000766052092467864 -0.00100435829200664 -0.000780730192590162 -0.00134904068723055 -0.000424662091068948 -0.000268183151102949 -0.000290312661559308 -0.00016539033163785 -0.000393930311007994 -0.000187167967224935 -0.000160023711238163 -0.00013619592273491 -0.000700034599375647
"214" -0.000725457646426709 -0.000592272560935705 -0.000882484983602599 -0.00075858394887162 -0.000999012506174256 -0.000778050528286565 -0.00135009415576218 -0.000416304031426814 -0.000288334766790623 -0.00030079414989466 -0.000178222635981571 -0.000397141911627835 -0.000193853941617962 -0.000184700086042263 -0.000151776008134174 -0.00070157384264749
"215" -0.000687251339429437 -0.000580050997715977 -0.000872439538254145 -0.000750143209079013 -0.000992307220428207 -0.000774703527995502 -0.00134948277202719 -0.000407168338535247 -0.000308246344619641 -0.000311099607837092 -0.000190791852200137 -0.000400182189486173 -0.000200170498453547 -0.000209717400070396 -0.000167172278079622 -0.000702809870712446
"216" -0.000648986857715908 -0.000567232437282197 -0.000861503308040378 -0.000740754861389841 -0.000984246868099545 -0.000770676583826459 -0.00134718106238272 -0.000397265587829402 -0.000327821962856509 -0.00032116278846987 -0.000203048046924111 -0.00040299498320172 -0.0002060814700418 -0.000234914131735761 -0.000182306396982852 -0.000703712935071687
"217" -0.000610766305968774 -0.000553821072042043 -0.000849692692007567 -0.000730437101353393 -0.000974848485940508 -0.000765954177380484 -0.00134316229855354 -0.000386613364997292 -0.000346968174082193 -0.000330914310599917 -0.000214951443216011 -0.000405525429856137 -0.000211548096885649 -0.000260123866738597 -0.000197103569315158 -0.000704253734982429
"218" -0.000572690473232101 -0.000539829410683944 -0.000837021842127208 -0.000719221641793687 -0.000964124420451464 -0.000760521591188412 -0.0013374091647714 -0.000375223763113136 -0.000365582980957936 -0.000340282281965165 -0.000226455280207726 -0.000407725100490002 -0.00021654005432456 -0.000285174019089431 -0.00021147993379303 -0.000704401116573594
"219" -0.000534847640470556 -0.000525262424466907 -0.000823505586149799 -0.000707133309576921 -0.00095209855062092 -0.000754365410150336 -0.00132990212713167 -0.000363119544543699 -0.000383579727303444 -0.000349201702430386 -0.000237519618265454 -0.000409539174351005 -0.000221022095706429 -0.000309896948120283 -0.00022536605826733 -0.000704134948099571
"220" -0.000497323556868736 -0.000510125896153671 -0.000809166729167603 -0.000694201379712648 -0.000938795473250751 -0.000747473164918845 -0.00132063621887892 -0.000350324378824976 -0.00040086860352336 -0.000357611610290168 -0.000248102780221302 -0.00041092422839701 -0.000224965963304356 -0.000334128058857383 -0.000238689427823396 -0.000703431617828711
"221" -0.000460198685273756 -0.000494426560785932 -0.000794025796927527 -0.000680459642605879 -0.000924248979738572 -0.000739827216930734 -0.00130960566918467 -0.00033686764521921 -0.000417366713004628 -0.000365448544511967 -0.000258169822581362 -0.00041182902303906 -0.000228347378954133 -0.00035770591182004 -0.000251381133257045 -0.000702274027556224
"222" -0.000423547452412457 -0.000478169644928712 -0.000778105912391802 -0.000665942940901851 -0.000908493281609706 -0.000731419294153065 -0.00129681374049139 -0.000322771608729532 -0.000432992225466656 -0.000372660324813755 -0.000267686222093292 -0.000412217914245346 -0.00023114032745883 -0.000380474810100178 -0.000263381989065844 -0.000700650320477618
"223" -0.00038743436596833 -0.000461363138681959 -0.000761428342539369 -0.000650683611955657 -0.000891567496072882 -0.000722238734080645 -0.00128226451592119 -0.000308073942506538 -0.000447677497929537 -0.000379194378432713 -0.000276621883485146 -0.000412051998712035 -0.000233328190502881 -0.000402289437744623 -0.000274638100596784 -0.000698550020465836
"224" -0.000351922463380222 -0.000444014542841241 -0.000744029348120295 -0.000634725719870641 -0.000873517902109292 -0.000712271612537613 -0.00126597510701847 -0.000292802425080415 -0.000461346017416243 -0.000385004153232087 -0.000284939922766294 -0.000411296980461477 -0.000234892979349262 -0.000423002216806074 -0.000285093185958083 -0.000695965015166822
"225" -0.000317062686816368 -0.000426133042662198 -0.000725934370999391 -0.000618105178941239 -0.000854394056359599 -0.000701511858105743 -0.00124796041622885 -0.000276998326627216 -0.000473940077601371 -0.000390049504072931 -0.000292620729293547 -0.000409929140497804 -0.000235821719022249 -0.000442483270705602 -0.000294705158132482 -0.000692897611941382
"226" -0.000282903017790821 -0.000407724498700058 -0.000707179479433158 -0.000600863029954664 -0.000834253585663091 -0.000689951583684399 -0.00122824874554018 -0.000260692684324013 -0.000485404059609129 -0.000394293278483956 -0.000299634618611558 -0.000407920345995927 -0.000236104048970959 -0.000460608757382203 -0.000303431396245126 -0.000689345954829373
"227" -0.000249480934204884 -0.000388802806373026 -0.000687798519138092 -0.000583042007966868 -0.000813149389732835 -0.000677585834578829 -0.00120686570865053 -0.000243930416666646 -0.000495693646740384 -0.000397711112179696 -0.000305969336554704 -0.000405254340515167 -0.000235739228297024 -0.000477270013761817 -0.000311245191503192 -0.000685322686013615
"228" -0.000216830164025121 -0.000369378652579956 -0.000667826985617558 -0.000564686724943204 -0.000791149769480755 -0.000664408358411418 -0.00118384980310585 -0.000226743158239636 -0.000504762310595174 -0.000400274755415924 -0.000311599459231194 -0.00040192217068066 -0.000234720324193118 -0.000492366910259492 -0.000318117245623506 -0.000680833162457391
"229" -0.000184975101194823 -0.000349469369618468 -0.000647309799431606 -0.000545838327449021 -0.000768326033883414 -0.000650425629656524 -0.00115924596381746 -0.000209176835836368 -0.000512579567056431 -0.000401972360063279 -0.000316515615554217 -0.00039791636140682 -0.000233049819246373 -0.000505813600213623 -0.000324033710675912 -0.000675895248142814
"230" -0.000153935252711135 -0.000329092203686417 -0.000626285878154744 -0.0005265477246177 -0.000744742956146785 -0.000635634416150095 -0.00113309372231221 -0.000191266744870545 -0.000519122002543216 -0.000402791324973568 -0.00032070475477301 -0.000393233003846957 -0.000230733257176592 -0.000517534736789295 -0.000328980636308446 -0.000670525347312179
"231" -0.000123729483714004 -0.000308269751870339 -0.000604803323957074 -0.000506855940001829 -0.000720482085457446 -0.00062004255443643 -0.00110545356079338 -0.000173052059396455 -0.000524368495375854 -0.000402728570931215 -0.000324162041504138 -0.000387880360876141 -0.000227777192547038 -0.000527470233045478 -0.000332958344290811 -0.000664744804615178
"232" -9.43607910037582e-05 -0.000287023952917681 -0.00058290584080705 -0.000486812552137793 -0.000695619182604197 -0.00060366053258131 -0.00107638518904505 -0.000154569196929361 -0.00052831159800747 -0.000401784706263941 -0.000326881995460807 -0.000381866675935083 -0.000224193878450796 -0.000535579919023081 -0.000335963584950251 -0.000658578843538952
"233" -6.58371298802143e-05 -0.000265386508187319 -0.000560645269475823 -0.000466465764612294 -0.000670238851717829 -0.000586497110905121 -0.00104595126124205 -0.000135852410225991 -0.000530950536468205 -0.000399972438156679 -0.000328866790075714 -0.000375209064008984 -0.000219996458037435 -0.000541831464425153 -0.000338015627762668 -0.000652054297909077
"234" -3.81595149935358e-05 -0.000243387487016261 -0.000538066755426686 -0.000445863315622565 -0.000644423944157393 -0.000568570912618349 -0.00101422289652337 -0.000116938766438924 -0.0005322858695654 -0.00039730360624435 -0.000330115845099509 -0.000367927737984407 -0.000215200565270046 -0.000546203359624537 -0.000339127524636804 -0.000645197387663935
"235" -1.13268708702789e-05 -0.000221065091068245 -0.00051522629570907 -0.000425054009903815 -0.000618264600892686 -0.000549903233843123 -0.000981279947518282 -9.78565003650387e-05 -0.000532333602389611 -0.000393798939273128 -0.000330633429218059 -0.000360051632259061 -0.000209826645008141 -0.000548701440497478 -0.000339322668520801 -0.000638041805803023
"236" 1.46667360593876e-05 -0.000198463127670058 -0.00049217771329219 -0.000404086128072805 -0.000591844782452167 -0.000530516803049136 -0.000947204322154626 -7.86323633129171e-05 -0.00053111036593108 -0.000389485948337033 -0.000330426156302215 -0.000351611258334272 -0.000203892723044776 -0.000549331882453487 -0.000338632444216888 -0.000630615456973938
"237" 3.98259167674592e-05 -0.000175630396987983 -0.000468973059871821 -0.000383008834276863 -0.000565253909092318 -0.000510440431727293 -0.000912088542651606 -5.92919092299793e-05 -0.000528643341888333 -0.000384391937619551 -0.000329509141815659 -0.000342638303135702 -0.000197420168187933 -0.000548122501108106 -0.00033708922024019 -0.00062295348148598
"238" 6.41574429106041e-05 -0.00015261374289082 -0.000445665423032509 -0.000361875069819155 -0.000538582922932085 -0.000489710093842502 -0.000876025269263478 -3.98512996676621e-05 -0.000524961923286049 -0.000378556078064443 -0.000327888902615376 -0.000333177195156898 -0.000190436434117659 -0.000545113468879379 -0.000334736222924306 -0.000615082855578032
"239" 8.76648347558214e-05 -0.000129477687656338 -0.000422313181932571 -0.000340733126481144 -0.000511920514025994 -0.000468359054359186 -0.000839114443140171 -2.03297408429879e-05 -0.000520105407530856 -0.000372015082585704 -0.000325584485875753 -0.000323269678755376 -0.000182962217740406 -0.000540356591887889 -0.000331616295435762 -0.000607040663258567
"240" 0.000110358739160045 -0.000106278163489158 -0.000398969645612469 -0.000319631809274166 -0.00048535326514559 -0.000446437457028916 -0.000801466795650168 -7.34679467725407e-07 -0.000514115108022629 -0.000364813217914052 -0.000322609649985678 -0.000312965330164686 -0.00017502466956287 -0.000533916198945954 -0.00032777751448803 -0.000598853535830982
"241" 0.00013223945328541 -8.3087946322976e-05 -0.000375689543137245 -0.000298619505193941 -0.000458969736073196 -0.000423984671605269 -0.000763191557101573 1.89243298024963e-05 -0.000507037737218778 -0.000356995687389525 -0.000318983109190047 -0.00030230741947094 -0.000166647824198855 -0.000525871265942441 -0.000323276663834644 -0.000590553779817089
"242" 0.000153309716338634 -5.99803586949905e-05 -0.000352529673000949 -0.000277751887536201 -0.000432851320383997 -0.000401059108145228 -0.000724404684654366 3.86478006472799e-05 -0.000498924283680048 -0.000348610610331498 -0.000314725656890038 -0.000291352893433096 -0.000157856900259035 -0.000516307272620044 -0.000318162207735135 -0.000582167347757155
"243" 0.000173569911429771 -3.70324786528263e-05 -0.000329540815712494 -0.000257075261279741 -0.000407083969517069 -0.000377714418429283 -0.000685229906249421 5.84358814107684e-05 -0.000489827851192189 -0.000339709852265592 -0.000309855863796292 -0.000280152879658568 -0.000148681504854207 -0.000505320109604256 -0.000312496249915379 -0.000573721314786362
"244" 0.000193015393010525 -1.43267221772519e-05 -0.000306779147654503 -0.000236639215791741 -0.000381744243536643 -0.000354013893103471 -0.000645792282231928 7.82950953010091e-05 -0.000479806577948526 -0.000330342896043958 -0.000304394487783693 -0.000268758216464625 -0.00013914127523241 -0.000493017488142657 -0.000306336895963372 -0.000565238491537387
"245" 0.000211640371025397 8.0521529842094e-06 -0.000284296570943074 -0.00021649068094011 -0.000356907191628081 -0.000330022555977682 -0.000606222055021794 9.82370983472699e-05 -0.000468916433045673 -0.000320563145715029 -0.000298369622597793 -0.000257227550348082 -0.000129262112789207 -0.000479509989385164 -0.000299742576979084 -0.000556744036556954
"246" 0.000229435674602057 3.00108463287213e-05 -0.00026214124243299 -0.000196678201706894 -0.000332644336831508 -0.00030581037282044 -0.000566647482889739 0.000118274228023175 -0.00045721986115441 -0.000310420705356591 -0.000291800464578726 -0.000245614713073701 -0.00011906890839862 -0.000464920313472371 -0.000292771846334252 -0.000548254398801277
"247" 0.000246388353359141 5.14592900070983e-05 -0.000240359887445881 -0.000177248331629896 -0.00030902099912171 -0.000281452500504857 -0.000527208292770899 0.000138426666767324 -0.000444776809189201 -0.000299967365072178 -0.000284711292921399 -0.000233969513232098 -0.00010858283149003 -0.000449373912228814 -0.000285488946977844 -0.000539785361204103
"248" 0.000262478446901732 7.2302881345798e-05 -0.000219005523258106 -0.000158245470242611 -0.000286100972655047 -0.00025702139937022 -0.000488038639054087 0.00015871107940966 -0.000431645931242896 -0.000289253096788789 -0.000277122149561512 -0.000222344179821571 -9.78234488396848e-05 -0.000432994642741675 -0.000277946959911579 -0.000531352240653117
"249" 0.000277687381284255 9.24437271859505e-05 -0.000198114302132587 -0.00013971465680499 -0.000263939324554431 -0.000232601302134624 -0.000449276168258826 0.000179145786349352 -0.000417890903420719 -0.000278327670121227 -0.000269063577037134 -0.000210791421550953 -8.68127138650896e-05 -0.00041592035538783 -0.000270207333946237 -0.00052296548237575
"250" 0.000291993672607229 0.000111787954911251 -0.00017772702094249 -0.000121697005816962 -0.000242583000649612 -0.000208273334867687 -0.000411057036063805 0.000199756172479365 -0.0004035689257177 -0.000267237645906814 -0.000260556898726996 -0.00019935431438697 -7.55688035869927e-05 -0.000398282113250984 -0.000262323879613962 -0.0005146322197976
"251" 0.000305364623333271 0.000130236216931489 -0.000157890695168273 -0.000104231678410939 -0.000222082164043149 -0.000184123174819303 -0.000373518425518011 0.000220564069084699 -0.000388738887848726 -0.000256023480852155 -0.000251624175957805 -0.000188079057580309 -6.41071567678897e-05 -0.000380209937068392 -0.000254346000408066 -0.000506360618495869
"252" 0.000317775953373642 0.000147693060381498 -0.000138632163442876 -8.73548919379012e-05 -0.000202473207112873 -0.000160234042931578 -0.00033679321712946 0.000241590923616746 -0.000373454414727178 -0.000244727445409332 -0.000242290590591855 -0.000177005090206417 -5.24431441176987e-05 -0.000361840996440874 -0.000246327371847258 -0.000498148563244893
"253" 0.000329195813286376 0.000164068859666373 -0.000119984479499728 -7.1102717131993e-05 -0.00018378382432591 -0.000136691799902499 -0.000301011718366608 0.000262857497678189 -0.000357770633027072 -0.000233386800180966 -0.000232577224473081 -0.000166168547329026 -4.05901707764403e-05 -0.000343303488608639 -0.000238313227025749 -0.000490001393211059
"254" 0.000339589459604277 0.000179271377979256 -0.000101979882888088 -5.55061279198558e-05 -0.000166041976068382 -0.000113585111658609 -0.000266299308891807 0.000284385618213368 -0.000341736038595523 -0.000222033288651416 -0.000222508282494542 -0.00015560397593455 -2.85620610288427e-05 -0.00032472186715634 -0.000230346488329872 -0.000481911475762154
"255" 0.000348922465364421 0.000193215065489011 -8.46388163554529e-05 -4.05921512233237e-05 -0.000149265160660314 -9.09967101260212e-05 -0.000232778506378322 0.000306185123107479 -0.000325396314566099 -0.000210694818933252 -0.000212106914753158 -0.000145331762128044 -1.63671693583705e-05 -0.000306217952800622 -0.000222461670151951 -0.000473879116527864
"256" 0.000357161936511827 0.000205824486233913 -6.79837567860451e-05 -2.63897941584574e-05 -0.000133464525968194 -6.90067012596725e-05 -0.000200560490747624 0.000328274002367195 -0.000308791220315691 -0.000199395049857358 -0.000201390213043084 -0.000135375178079215 -4.01458826879514e-06 -0.000287904859891292 -0.000214692465485794 -0.000465894949786743
"257" 0.000364274541989546 0.000217024156363818 -5.20265678709134e-05 -1.29149164003685e-05 -0.000118641163759999 -4.76976308208896e-05 -0.00016975118997904 0.000350656335253533 -0.000291966883746837 -0.000188154541888092 -0.000190384454656372 -0.000125752393913707 8.48403193437975e-06 -0.000269893829123637 -0.000207073364965847 -0.000457950980988279
"258" 0.000370229768836682 0.000226750002759779 -3.67851792196581e-05 -1.83707482485663e-07 -0.000104792159648036 -2.71397453331866e-05 -0.000140441030702776 0.000373340978065095 -0.00027495308132389 -0.000176986952141574 -0.000179105579980183 -0.000116473494072733 2.11258987059052e-05 -0.000252283138290432 -0.000199623197895408 -0.000450036400012211
"259" 0.000374998928261816 0.000234945776312126 -2.22593993542239e-05 1.17859089463049e-05 -9.19073482838144e-05 -7.40890392188285e-06 -0.000112719210298287 0.000396324169093607 -0.00025778123007042 -0.000165901737361169 -0.00016757509922984 -0.000107537246822328 3.38994975492214e-05 -0.000235167579788436 -0.000192361685368902 -0.000442141125665625
"260" 0.000378558509175661 0.000241564733750696 -8.45057847256421e-06 2.29915346133823e-05 -7.99646624756837e-05 1.14362737002155e-05 -8.66567992969299e-05 0.000419597560445244 -0.000240476034951879 -0.00015490436893119 -0.000155811311226777 -9.89448390543455e-05 4.68029823694524e-05 -0.000218623499049233 -0.000185304389166754 -0.000434250758684463
"261" 0.000380880687364331 0.000246568162391097 4.64517043580538e-06 3.34277534628097e-05 -6.89390732286304e-05 2.93343157285488e-05 -6.23077008612301e-05 0.000443144839324454 -0.00022306392337545 -0.000143994033821249 -0.000143835660579923 -9.06888194017411e-05 5.98288497948825e-05 -0.000202727121129284 -0.000178458961360061 -0.000426350814820677
"262" 0.000381958266692622 0.000249935909313235 1.70350499922912e-05 4.30996402172827e-05 -5.87919183630968e-05 4.62373632145271e-05 -3.97228605949461e-05 0.000466947457416317 -0.000205564660569419 -0.000133166901425264 -0.00013166823877461 -8.27516464980175e-05 7.29699439356707e-05 -0.000187538312590372 -0.000171830222646482 -0.000418430331191888
"263" 0.000381775861798585 0.000251655599546005 2.87407121318316e-05 5.20115680348409e-05 -4.94890131563208e-05 6.21019917473969e-05 -1.89247706100225e-05 0.000490977152985233 -0.000187990325362842 -0.000122416661689601 -0.000119325735389114 -7.51154213115473e-05 8.62199249964359e-05 -0.000173109460920245 -0.000165420773960396 -0.00041047289401822
"264" 0.000380334497923895 0.000251725881580419 3.97788633673716e-05 6.01809405880102e-05 -4.09766329631988e-05 7.69027786888851e-05 6.80055743163205e-08 0.000515195893427616 -0.000170354199844376 -0.000111725123907363 -0.000106826998903951 -6.77550356880613e-05 9.95741016286308e-05 -0.00015947987608108 -0.000159224206642385 -0.000402463691033658
"265" 0.000377637118025489 0.000250160371339342 5.01757148650008e-05 6.7622354480758e-05 -3.31987834133725e-05 9.06118747288815e-05 1.72690389245734e-05 0.000539559846544242 -0.000152665338906831 -0.000101080148122189 -9.41909073698111e-05 -6.06341532903665e-05 0.00011302205034829 -0.000146674411076159 -0.000153235267043923 -0.000394388927386772
"266" 0.000373701763715629 0.000246993723888478 5.99714603676007e-05 7.43632332028593e-05 -2.60892378173546e-05 0.000103222236386977 3.26910811809188e-05 0.000564018388666521 -0.000134935691458743 -9.04631324908079e-05 -8.1439511404024e-05 -5.37196598880281e-05 0.000126556062333434 -0.00013471816219074 -0.000147435992210659 -0.000386234785548312
"267" 0.000368552090683659 0.000242261509455757 6.9201952716981e-05 8.04317732214744e-05 -1.9587900314063e-05 0.000114734708362272 4.63831664299231e-05 0.000588506348578057 -0.000117165365048888 -7.98496068855596e-05 -6.85953671210401e-05 -4.69678435270326e-05 0.000140163273343909 -0.000123613931754491 -0.000141819575542146 -0.000377987728657453
"268" 0.000362218951015169 0.00023602463294111 7.79150398605363e-05 8.58634726645044e-05 -1.36101984462195e-05 0.000125157552357834 5.84030234815987e-05 0.000612961953473684 -9.93622261001371e-05 -6.92158431850398e-05 -5.56742583315245e-05 -4.03385660351576e-05 0.000153832086740088 -0.000113360653979643 -0.000136360486745184 -0.000369636999382816
"269" 0.000354749118116379 0.000228352528936908 8.61559517702148e-05 9.06982407333498e-05 -8.08254773031132e-06 0.000134520173066654 6.88272252717401e-05 0.000637303341016904 -8.15251498929157e-05 -5.85366007750749e-05 -4.27006265682564e-05 -3.3776262318122e-05 0.000167550357179543 -0.000103937607137966 -0.000131041894197738 -0.000361171624263469
"270" 0.000346193647469039 0.000219331780800446 9.3982894817358e-05 9.49877536760128e-05 -2.91790596773256e-06 0.000142858557609715 7.77520489924689e-05 0.000661451294884111 -6.36537842690548e-05 -4.77847901807489e-05 -2.96965542212492e-05 -2.72346459859748e-05 0.000181299029331277 -9.53248442923748e-05 -0.000125839736537755 -0.000352580353339503
"271" 0.000336619573834431 0.000209061519939361 0.000101457243498589 9.87771937420443e-05 1.97262856341404e-06 0.000150218597441976 8.52970841168964e-05 0.000685306875921316 -4.57545766550365e-05 -3.69316410327205e-05 -1.66843490393066e-05 -2.06572375253818e-05 0.000195060026516425 -8.74921314433894e-05 -0.000120733195055317 -0.000343858506620205
"272" 0.000326104561989636 0.000197653248699149 0.000108644821756594 0.000102125106845984 6.67905542977926e-06 0.000156660074860637 9.15910323753831e-05 0.00070877558805166 -2.78281670618704e-05 -2.59539963776646e-05 -3.68878826228142e-06 -1.39887925133343e-05 0.000208810826911927 -8.03930681963404e-05 -0.000115694894110006 -0.000335002572816137
"273" 0.000314732604142111 0.000185232553560109 0.000115608766288057 0.000105096101977663 1.12946548971457e-05 0.000162257014027344 9.67877929496536e-05 0.000731750641504937 -9.8733875742139e-06 -1.4825048641522e-05 9.26557539092319e-06 -7.176670269698e-06 0.000222527262511358 -7.39778249578509e-05 -0.000110698372548702 -0.000326005982422283
"274" 0.000302600502439033 0.000171931605001024 0.000122422397772442 0.000107748623375971 1.59139684942932e-05 0.000167091482077286 0.000101050904968376 0.000754115999169465 8.10295157364089e-06 -3.51932769855069e-06 2.2152424480853e-05 -1.65551971023664e-07 0.000236182960073825 -6.81888566015219e-05 -0.000105718362589435 -0.000316870602830468
"275" 0.000289815696328835 0.000157902030202961 0.000129152609317661 0.000110155650800386 2.06287855824199e-05 0.000171256169566818 0.000104561858427229 0.00077575455128368 2.60999927125047e-05 7.98217562991231e-06 3.49448507815965e-05 7.09455647442264e-06 0.000249748784010929 -6.29590623768551e-05 -0.000100730234080172 -0.000307597835489251
"276" 0.000276493568241926 0.00014329787132542 0.000135880701954543 0.000112387857989469 2.55305444772266e-05 0.000174855160464259 0.000107515833473026 0.000796540016887234 4.41093200871839e-05 1.97008399872724e-05 4.76161318274391e-05 1.46556184240176e-05 0.000263192798111656 -5.82173958554132e-05 -9.57100917041206e-05 -0.000298190888388081
"277" 0.000262755452386139 0.000128281592763923 0.000142673312578793 0.000114521246332407 3.07133763876654e-05 0.00017799812477535 0.000110120209755178 0.000816349666123489 6.21230012018155e-05 3.16457803551783e-05 6.0136107345856e-05 2.25618474318026e-05 0.000276479948877154 -5.38952391589842e-05 -9.0634224495698e-05 -0.000288660030989912
"278" 0.000248731578949252 0.000113021964006308 0.000149602631202896 0.000116627450150793 3.62624833505473e-05 0.000180807071956408 0.000112594226532053 0.000835048909939506 8.01337085271067e-05 4.38322351877584e-05 7.24847919503109e-05 3.08553683383528e-05 0.000289575805327257 -4.98994701453489e-05 -8.54771070439217e-05 -0.000279007916170564
"279" 0.000234556850023278 9.76949295804128e-05 0.00015673456794359 0.000118787586072531 4.22554270702322e-05 0.000183410374208535 0.000115163509986323 0.000852506375337797 9.813366517366e-05 5.62648356832388e-05 8.46295947753935e-05 3.95675368563806e-05 0.000302441587957286 -4.61490989767461e-05 -8.02195040625468e-05 -0.000269247143737065
"280" 0.000220377996742143 8.24764420547291e-05 0.000164146186700235 0.000121077860547086 4.87775743897e-05 0.000185935311592464 0.000118060395208987 0.000868587249121209 0.000116100455073221 6.89417574537594e-05 9.65443684100531e-05 4.87315322373459e-05 0.000315037885772782 -4.2561472875455e-05 -7.48440154026874e-05 -0.000259395280716615
"281" 0.000206326811406641 6.75460033525751e-05 0.000171892264997613 0.000123571346259119 5.58884203307061e-05 0.000188522985945493 0.000121523127409389 0.000883161252923639 0.000134028933927348 8.18611449098786e-05 0.000108204501141396 5.83662380806276e-05 0.00032732506152302 -3.90390183901123e-05 -6.93305464982952e-05 -0.000249461024589226
"282" 0.000192559179327778 5.30795375573398e-05 0.000180030180830309 0.000126348474735721 6.36578546272259e-05 0.000191312616943774 0.00012579079155576 0.000896096373048008 0.000151893043158399 9.50098142059551e-05 0.000119582763858398 6.84855949053702e-05 0.0003392599985817 -3.54975897160007e-05 -6.36700512248499e-05 -0.000239463506902544
"283" 0.000179211690012849 3.92511947818511e-05 0.000188612557765242 0.000129478789386136 7.21373180746677e-05 0.00019444918868442 0.000131104806543509 0.00090726709539089 0.000169675474048138 0.000108370621332305 0.000130654483619748 7.90945817620959e-05 0.000350803555911471 -3.18423561175887e-05 -5.78434473234046e-05 -0.000229415954847584
"284" 0.000166433395259987 2.62326995935544e-05 0.000197682456119982 0.000133029072166026 8.13734069814283e-05 0.000198068841403767 0.000137700156170341 0.000916552329694375 0.000187352271238882 0.000121921416735022 0.000141399169282116 9.01875116380676e-05 0.000361912288571539 -2.79837752248375e-05 -5.18420896739145e-05 -0.000219339035962791
"285" 0.000154363181576639 1.41849562780925e-05 0.000207280934701663 0.000137073764905864 9.14016792009772e-05 0.00020232115833896 0.000145813700601212 0.000923839634524117 0.000204898951281738 0.000135635116842921 0.00015179142306102 0.000101750644729184 0.000372546151888599 -2.38336172103016e-05 -4.56631807549808e-05 -0.000209246063377135
"286" 0.000143130893738135 3.26641702865416e-06 0.000217435188497466 0.000141665176388993 0.000102248856964353 0.000207341839025146 0.000155667348835079 0.000929024229471655 0.000222288754489932 0.000149475908453084 0.000161815205512964 0.000113767230825762 0.0003826666940558 -1.93045009648395e-05 -3.93011150491396e-05 -0.000199158001731976
"287" 0.000132869554123153 -6.37759089090506e-06 0.000228167142442223 0.000146862521733409 0.000113931117930795 0.000213266196331384 0.000167480470186981 0.000932013138147331 0.000239488747679427 0.000163403495346424 0.000171452285510427 0.000126202146197683 0.000392234363153702 -1.43234717964361e-05 -3.27517645749873e-05 -0.000189089524620716
"288" 0.000123698562300147 -1.4616111142045e-05 0.000239488677370371 0.000152715616964092 0.000126462353885934 0.000220228408988916 0.000181458214432671 0.00093272982817033 0.000256471126327883 0.000177375321655965 0.000180685133789823 0.000139015114490964 0.000401213945656365 -8.80440961104392e-06 -2.60145803993612e-05 -0.000179055744134691
"289" 0.000115729802641309 -2.1326499772849e-05 0.000251407899213805 0.000159262762261974 0.000139833680736295 0.00022835132018942 0.000197788972559263 0.000931104094646637 0.000273191983801068 0.00019133751174694 0.000189501028882479 0.000152160759489036 0.000409567898542176 -2.68936512240417e-06 -1.91013907103476e-05 -0.000169071970930963
"290" 0.000109064223725315 -2.64017675237928e-05 0.000263914558773002 0.00016654126430244 0.000154036932635327 0.000237752609002028 0.000216648944355282 0.000927082653383942 0.000289619351642274 0.000205240001774289 0.00019788770737705 0.000165582346231604 0.000417270107113332 4.08866927757753e-06 -1.20130819936177e-05 -0.000159151666876791
"291" 0.000103791331167418 -2.97520233161695e-05 0.000277000412596376 0.000174579064249917 0.000169051205659982 0.000248539119469377 0.000238193084776195 0.000920633653921264 0.000305708032108661 0.000219022221853597 0.000205829234330741 0.000179219800557659 0.000424287420037401 1.15784358551508e-05 -4.76317684063755e-06 -0.000149307742080844
"292" 9.99822392112578e-05 -3.13001131774796e-05 0.000290644060735205 0.000183390651802783 0.000184844662257644 0.000260810428248771 0.000262557641140666 0.00091173957682785 0.00032141341529463 0.000232626363297513 0.000213322857408564 0.000193006632026988 0.000430597870478149 1.98225873923161e-05 2.63462905335904e-06 -0.000139550347211959
"293" 9.77088633733887e-05 -3.09902808788875e-05 0.000304815741576794 0.000192986613006629 0.000201383751434355 0.000274645977616001 0.000289854393562716 0.000900403001002208 0.000336687275285022 0.000245987521438147 0.000220357069826864 0.000206869328041645 0.000436176416281379 2.88489236736485e-05 1.01594315936063e-05 -0.000129888162839767
"294" 9.70132437320019e-05 -2.87863040647456e-05 0.000319475798165478 0.000203368938957472 0.000218619910338861 0.000290124807139151 0.000320172982733824 0.000886642824733078 0.000351482264969716 0.000259045966967848 0.000226925956623241 0.000220733225687282 0.000441007304349834 3.86807136262702e-05 1.77935616201775e-05 -0.000120327379485134
"295" 9.79312038179608e-05 -2.46640097859843e-05 0.000334589588245783 0.000214525040871365 0.000236506856824528 0.000307301929741271 0.000353578649511356 0.000870506004223795 0.000365739889593696 0.000271732120360825 0.000233023472845779 0.000234521857747421 0.000445075580392177 4.93195927130183e-05 2.55099574364856e-05 -0.000110873484389263
"296" 0.000100485384862006 -1.86174201280959e-05 0.000350105811950099 0.000226442307296593 0.000254980931902028 0.000326219325998051 0.000390100938318922 0.000852043150309106 0.000379405523275612 0.000283981033383625 0.000238639672345024 0.000248155170108735 0.00044836782958744 6.07563950171123e-05 3.32823827138329e-05 -0.000101536919085374
"297" 0.000104681667692309 -1.06696758569098e-05 0.000365970098729597 0.000239090991481664 0.000273981683096741 0.000346902970216461 0.000429750329410642 0.000831343726478367 0.000392419964817194 0.000295730981646033 0.000243770502234477 0.000261555389578673 0.000450879750260374 7.29716294836803e-05 4.10769592031956e-05 -9.23149094288321e-05
"298" 0.000110513251732196 -8.43348882516444e-07 0.000382126215893828 0.000252434707827607 0.000293443020100559 0.000369358681190961 0.000472500380781389 0.000808497998569606 0.000404714936301751 0.000306914193260327 0.000248410116962927 0.000274640881738201 0.000452602642697665 8.59246682011078e-05 4.88535687812004e-05 -8.32167684309454e-05
"299" 0.000117956503091952 1.08017234624737e-05 0.000398510996618015 0.000266430078789937 0.000313288206653951 0.000393579251107107 0.000518300751453992 0.000783627411485361 0.000416232895000154 0.000317472268559709 0.000252551184176295 0.000287339499045889 0.000453540872380223 9.95671948811923e-05 5.65822129708055e-05 -7.42433885597132e-05
"300" 0.000126973555487202 2.42006036021624e-05 0.000415055719069353 0.000281024766043028 0.00033344570224631 0.000419534274987444 0.00056706418454421 0.000756861296297833 0.000426903697008802 0.000327343757894222 0.000256187277806948 0.000299572737352692 0.000453696674651206 0.000113830168011411 6.42123034874316e-05 -6.53991184199329e-05
"301" 0.000137522244159904 3.92681589311038e-05 0.000431694953348609 0.000296157339408358 0.000353835573713057 0.000447169732753057 0.000618665883966967 0.00072835196381834 0.000436661861916843 0.000336470188704956 0.000259307540757871 0.000311268944533014 0.000453073579422985 0.000128638380827208 7.17066787545423e-05 -5.66871045261262e-05
"302" 0.000149537027890962 5.59039745368322e-05 0.000448361563974949 0.000311757579010582 0.000374374488128053 0.000476419394143752 0.000672957015447683 0.000698258825964725 0.000445436031995653 0.000344798410580987 0.000261906136046163 0.000322361540063836 0.000451684131718776 0.000143898299066997 7.90115725212779e-05 -4.81111933414891e-05
"303" 0.000162943437747448 7.39924910703361e-05 0.000464972785411772 0.000327747704332916 0.000394977026011119 0.000507191013434304 0.000729750258778502 0.000666759360425784 0.000453161457814707 0.0003522774601349 0.000263972506849568 0.000332783051525113 0.000449541567108466 0.000159507674575467 8.60877399093622e-05 -3.96758179786602e-05
"304" 0.00017766561721301 9.34056336260771e-05 0.000481464578690209 0.000344046069875163 0.000415565992146909 0.000539368082684131 0.000788827187593332 0.000634040820209253 0.000459768213693666 0.000358855492399382 0.000265496894108692 0.000342478332118282 0.000446660557462595 0.000175352265167999 9.28760687799748e-05 -3.13853145322107e-05
"305" 0.000193603627417158 0.000113997564893987 0.000497759633785653 0.000360558520959227 0.000436046154787923 0.000572821367643777 0.000849937253604845 0.000600293061429192 0.000465197668305029 0.000364493589811733 0.000266470331512964 0.00035138968852492 0.000443064234417448 0.00019131005846616 9.93353206350705e-05 -2.32480742034113e-05
"306" 0.000210658154215616 0.000135618480353291 0.000513777008860358 0.000377192747382489 0.000456331108485758 0.000607395122349209 0.000912797950975486 0.000565723731507637 0.000469385264682172 0.000369150139962004 0.00026688143805303 0.000359463601548712 0.000438772050455192 0.000207249981855332 0.000105411372456111 -1.52664213281085e-05
"307" 0.000228720172247366 0.000158100468546152 0.000529442900905631 0.000393842676561101 0.000476337316934388 0.000642917561970027 0.000977094819015872 0.000530534385247562 0.000472274675872611 0.000372791243486202 0.000266723550146845 0.000366656473605519 0.000433809647864134 0.0002230402061131 0.000111063452746516 -7.44986335815138e-06
"308" 0.000247671492664223 0.000181271876697322 0.000544681958967937 0.00041040655223903 0.000495970108852423 0.000679192189697657 0.00104248474375364 0.000494937951424566 0.000473814818871384 0.000375385051371732 0.000265984564993927 0.000372927638325354 0.000428207483890401 0.000238539490037698 0.000116240042844618 1.92895548410513e-07
"309" 0.000267387887103021 0.000204956915778617 0.000559415627867867 0.000426767423695449 0.000515144992717141 0.000716011416482829 0.00110859744492763 0.000459138776861606 0.000473963013906729 0.000376906311571808 0.000264657724816947 0.00037824016755148 0.000421994776487549 0.000253604516154292 0.000120899306221556 7.65721378179732e-06
"310" 0.000287740971939216 0.00022896113147129 0.000573568287020334 0.00044281832423662 0.000533772111812145 0.000753149929371629 0.00117504164776794 0.000423349558694747 0.000472681884635274 0.00037733555099699 0.000262738660561817 0.000382562010162876 0.000415207930469829 0.000268101611731299 0.000125006702657781 1.49326549838555e-05
"311" 0.000308601530112406 0.000253096663711456 0.0005870629477117 0.000458439064582044 0.000551760304689285 0.000790365558913786 0.00124139975471993 0.000387771379493997 0.000469941449970219 0.000376657221847586 0.000260222145218059 0.000385864468737204 0.000407885308118962 0.000281892545196198 0.00012852872114083 2.2012301449205e-05
"312" 0.000329826774344522 0.000277166162085865 0.000599825214794468 0.000473511532152529 0.000569025962257871 0.000827405947527687 0.00130723655432292 0.000352607452895925 0.000465727602807451 0.000374864913296668 0.000257110247158889 0.000388125844517055 0.000400065686720613 0.000294847003733286 0.000131431953482996 2.88902925874569e-05
"313" 0.000351285813902484 0.000300974972464038 0.000611782438517704 0.000487922047083763 0.000585485616630769 0.000864008470254609 0.00137210417704851 0.000318049869121863 0.000460025541979889 0.000371951189556208 0.000253401209312051 0.000389330088165356 0.000391789654851627 0.000306835725915076 0.000133695892213398 3.55589754359795e-05
"314" 0.000372839406694647 0.00032433043090374 0.000622862860450189 0.000501550832150381 0.000601056458963744 0.000899903621253427 0.00143554181827382 0.000284283019139488 0.00045284151964315 0.000367921271577994 0.000249099311806113 0.000389464448166333 0.000383104897943194 0.000317743742347264 0.000135304294869217 4.20119715319238e-05
"315" 0.00039434426263937 0.000347030426853753 0.000632993708446878 0.000514288433702335 0.000615652040324754 0.000934816348169558 0.0014970863138923 0.000251479190073696 0.000444190769559355 0.000362783431881896 0.000244215803192346 0.000388520187593552 0.000374060262098947 0.000327465893394911 0.00013624945642462 4.82456845979774e-05
"316" 0.000415668906810999 0.000368890745250909 0.000642112153234775 0.000526013755675352 0.000629203147314186 0.000968471339452195 0.0015562621103495 0.000219805956679523 0.000434095230191101 0.000356552975968323 0.000238762583477764 0.000386495916924673 0.000364702024724295 0.000335909345892897 0.000136522764293119 5.42573840557526e-05
"317" 0.000436670722125326 0.000389718770997167 0.000650148999963811 0.000536628212500336 0.000641627746949425 0.00100059183979526 0.00161260591617969 0.000189415250277387 0.000422596640296762 0.000349251472530351 0.000232755600943112 0.000383391053538865 0.000355083761346866 0.000342989444619334 0.000136131877962604 6.00462833806779e-05
"318" 0.000457225340994308 0.000409341320639205 0.000657047830714134 0.000546024145678773 0.000652865647494612 0.00103090967908611 0.00166566220205684 0.000160439849909294 0.000409735353563036 0.000340905967789468 0.000226214480571485 0.000379213038149738 0.000345259405227379 0.000348640185285559 0.000135090849821298 6.56096746386179e-05
"319" 0.000477205598342066 0.000427585954021402 0.000662750749744387 0.000554107006606891 0.000662847503977109 0.00105915874071598 0.00171498020271883 0.000133006253717589 0.000395574794708508 0.000331552607541816 0.000219162896350576 0.000373979113245711 0.000335279326184114 0.000352803703833887 0.000133411094928639 7.09495074055219e-05
"320" 0.000496484261911374 0.000444290960589109 0.000667208558954102 0.000560788754053397 0.000671514022597273 0.00108508925364123 0.00176013801149262 0.000107223190324463 0.000380188915760634 0.000321227744163631 0.000211630418753236 0.000367701726665467 0.000325203261641687 0.00035544683895663 0.000131122578702185 7.60705737857738e-05
"321" 0.000514949438303419 0.000459307129715599 0.000670376042920916 0.000565987735536536 0.000678812946465249 0.00110846300877907 0.00180072959201082 8.31862698503725e-05 0.000363654586987184 0.000309982576662079 0.000203650290813649 0.000360406243786474 0.000315085151091852 0.000356543522183956 0.000128261530379623 8.09777360930953e-05
"322" 0.000532499322576884 0.00047250186613017 0.000672218365487307 0.000569635501951737 0.000684708176198351 0.00112905638115218 0.00183638077208275 6.09689807110214e-05 0.000346058916973793 0.000297865188280131 0.000195252249233767 0.000352119894236508 0.000304976622810003 0.000356083779792383 0.000124856619696441 8.56741867940578e-05
"323" 0.00054903346078369 0.000483752670337136 0.000672701320704672 0.000571672013279989 0.000689153512259767 0.00114666814017692 0.00186675149209534 4.06351775038202e-05 0.000327502050380189 0.000284933285693372 0.000186479983719856 0.000342877000004774 0.000294935167959529 0.000354078116822924 0.000120955064624458 9.01702002010698e-05
"324" 0.000564461409894478 0.000492958585429091 0.000671802430069714 0.000572047946062485 0.000692122837699558 0.00116111738952433 0.00189153813414231 2.22294474664009e-05 0.000308089642179784 0.000271248561831263 0.000177371580113297 0.000332717447281595 0.000285014867738142 0.00035054995793409 0.0001166100159387 9.44752089051321e-05
"325" 0.000578712016064674 0.000500028790244268 0.000669505356393128 0.000570727165222977 0.000693598603690649 0.00117224699278479 0.00191047761050925 5.77818922600194e-06 0.000287934198339405 0.000256878909005629 0.000167971502649909 0.000321686448659498 0.000275265616546562 0.000345532848487476 0.000111865728522859 9.85970144778717e-05
"326" 0.000591717584636361 0.000504897598436176 0.000665808485947981 0.000567685170100636 0.000693566731182983 0.0011799278453295 0.0019233559245357 -8.70233174761091e-06 0.000267147078213132 0.000241890104963164 0.000158320687110838 0.000309827757275341 0.000265736719478031 0.000339074306605036 0.000106785682537628 0.000102549963833523
"327" 0.000603425027567774 0.00050751606529331 0.000660711792517787 0.000562907830318289 0.000692027128947384 0.00118406087140639 0.00193000979547867 -2.12191571887942e-05 0.000245854687148256 0.000226362092456409 0.000148469801990097 0.000297201171669012 0.000256475923679603 0.000331238568255489 0.000101428183375586 0.00010634273461903
"328" 0.000613800999926586 0.000507855768387579 0.000654232539058953 0.000556402454071898 0.000688991476944381 0.00118457121698036 0.00193032188116874 -3.17858933211731e-05 0.000224170006765349 0.00021036347596335 0.000138460185228975 0.000283862902659999 0.000247523762836027 0.000322095157374445 9.58489084973959e-05 0.00010999052645374
"329" 0.000622809914762481 0.000505908590497842 0.00064638694270324 0.000548184319633732 0.000684476492610774 0.00118141627980722 0.00192422923000597 -4.04379625360246e-05 0.00020222277893749 0.000193975197303687 0.000128343254343515 0.000269875067863828 0.00023892588591622 0.000311727160273589 9.01153649761075e-05 0.000113503727547786
"330" 0.000630448664785324 0.00050168260873776 0.0006372182073108 0.000538278492097275 0.000678509628345879 0.00117458939419797 0.00191172920329679 -4.72218400158262e-05 0.000180135288309429 0.000177277117002652 0.000118163568855683 0.000255305747382914 0.000230714881822653 0.000300228639701323 8.42913814553503e-05 0.000116897703866014
"331" 0.000636715468989678 0.000495216839170361 0.000626761487532852 0.000526731700395296 0.000671132779477961 0.00116410371573162 0.00189286754136627 -5.22008381187668e-05 0.000158023827589642 0.000160348074935139 0.000107962611969542 0.000240226421023816 0.000222921921648609 0.000287691488886615 7.84328351873621e-05 0.000120184517204816
"332" 0.000641625382199654 0.000486561873330331 0.000615075263690001 0.000513596100316245 0.00066239516411813 0.00115001584972852 0.00186774797746854 -5.54464502389268e-05 0.000136008383244753 0.00014326394409271 9.77910077501565e-05 0.000224704215062466 0.000215574985445479 0.000274223528604415 7.26037427405106e-05 0.000123375282498055
"333" 0.000645211258907353 0.000475789988518845 0.000602220892636668 0.000498944112171315 0.000652357978344263 0.00113240560144571 0.00183652876716231 -5.70436714170502e-05 0.000114200231409417 0.000126107021826302 8.76879100819817e-05 0.000208821330109246 0.000208694523707984 0.000259928727881766 6.68653685845323e-05 0.000126483710705944
"334" 0.000647512949884816 0.000462994161649062 0.0005882713195601 0.000482854399222641 0.000641085252872801 0.00111138045628958 0.00179941671033553 -5.70854967991972e-05 9.27132309350876e-05 0.00010895240936178 7.76914119349213e-05 0.000192650732288152 0.000202299768513909 0.000244924903050093 6.12711030734685e-05 0.000129520336158804
"335" 0.000648587661427625 0.000448282445323865 0.000573309165303829 0.000465419032240613 0.000628652494324729 0.00108708210520055 0.00175666683884162 -5.56820873128578e-05 7.1647800757537e-05 9.18749078303764e-05 6.7841504314868e-05 0.000176271870319751 0.000196403404572087 0.000229319928758313 5.58773569540354e-05 0.000132498851166985
"336" 0.000648501988573032 0.000431783995491266 0.000557421828930819 0.000446738094923542 0.000615151796378197 0.00105966980549212 0.00170858691735832 -5.29465702156135e-05 5.10984298743635e-05 7.49433583749627e-05 5.81722662040771e-05 0.000159764513177456 0.000191009497706176 0.000213225741707151 5.07286857253005e-05 0.000135426296474871
"337" 0.000647335692085908 0.000413639253147727 0.000540704485722226 0.000426926800693268 0.000600665236506291 0.00102933777359749 0.00165552299302459 -4.89965759186158e-05 3.11569448450344e-05 5.82320345303313e-05 4.87141462144437e-05 0.00014321008234503 0.000186124205343713 0.000196756639519243 4.5876374365105e-05 0.000138312357478946
"338" 0.000645176080703656 0.000394005894247988 0.000523264542512984 0.000406104804174097 0.000585302007996406 0.000996288128152585 0.00159785444882301 -4.39640533334974e-05 1.19000991342978e-05 4.17984154357042e-05 3.94979391780035e-05 0.000126681088961154 0.000181741727929645 0.000180024308658054 4.13560817878409e-05 0.000141167395071017
"339" 0.000642123963185249 0.000373049607035183 0.000505205104978269 0.000384395450075739 0.000569158632521848 0.000960757999428582 0.00153600555377641 -3.79782152174488e-05 -6.59323076788475e-06 2.57100315943456e-05 3.05502653104657e-05 0.00011026174530016 0.000177856478905749 0.000163136706522702 3.7206930975979e-05 0.000143999575682378
"340" 0.000638283560648369 0.000350950875049399 0.000486643539090869 0.000361936643156699 0.000552348057960116 0.000922989951849552 0.00147041834129334 -3.11792454699287e-05 -2.42640447182126e-05 1.00168067304304e-05 2.18896967073238e-05 9.40231636569887e-05 0.000174457060688249 0.000146196149354619 3.34603494407072e-05 0.000146813871975472
"341" 0.000633767024641518 0.000327893940680321 0.000467688198244548 0.000338864107232982 0.000534979494263646 0.000883246549127967 0.00140156890433929 -2.37002014244193e-05 -4.10564311840481e-05 -5.22478992142373e-06 1.35399739371623e-05 7.80395073917572e-05 0.000171526696154861 0.000129302236374454 3.01380187850883e-05 0.000149615748956104
"342" 0.000628694256539322 0.000304069851867612 0.000448465710143549 0.000315320870243674 0.00051716521780831 0.000841797722496798 0.00132993924044024 -1.56863503881849e-05 -5.69239067732175e-05 -1.99742681190199e-05 5.51304634925784e-06 6.23821898266132e-05 0.000169048325111746 0.000112547887598434 2.72641287926832e-05 0.000152411754915761
"343" 0.000623179068283075 0.000279675786289004 0.000429086357358584 0.000291450176395368 0.000499026794101958 0.000798929234940157 0.00125603932970293 -7.27416672522626e-06 -7.18271472045546e-05 -3.41838789157218e-05 -2.17506426182846e-06 4.71172339682732e-05 0.000166999763561497 9.60220533644401e-05 2.48509839109854e-05 0.000155208916975102
