"V1" "V2" "V4" "V5" "V7" "V8" "V10" "V11" "V13" "V14" "V15" "V17" "V18" "V20" "V21" "V23"
"1" -1.88612993503914e-05 -6.92108609413189e-06 -7.30348372993584e-06 -1.34512049900902e-05 -1.72151448544522e-05 -2.36602081166504e-05 -5.55269113126613e-06 -2.18703161353615e-05 -5.71021111993167e-05 -4.54847057532814e-05 -3.97706609033494e-05 -3.74706904710717e-05 -4.35452281199225e-05 -0.000181590294042909 -7.27301335151468e-05 -3.16189067245337e-05
"2" 9.45437759518123e-06 7.41678902890599e-05 0.000112109619700378 -4.06382591088439e-05 7.44386014186481e-05 2.7009418334837e-05 1.53639934192599e-05 -2.20706375666428e-05 -3.1452349074585e-05 4.89880742460457e-05 1.31451419958351e-05 -2.27737502679975e-05 -3.81422355637409e-05 0.000379614691211464 0.000545543298840241 -1.37319163206822e-05
"3" 3.77664837060719e-05 0.00015534750145851 0.00023192775259377 -6.74174507465601e-05 0.000166196648721449 7.73128440561278e-05 3.62259456627794e-05 -2.23092897235187e-05 -5.71076005989809e-06 0.000143560400513147 6.60859076070372e-05 -8.0364072933568e-06 -3.26098139700024e-05 0.000970672815180416 0.0011803808215059 4.21230194665022e-06
"4" 6.59932410039544e-05 0.000236220993544341 0.000351552210244408 -9.36346472099548e-05 0.000257632643236777 0.000126980271544781 5.69506628276849e-05 -2.27023889563835e-05 2.00319870735232e-05 0.000237798877744824 0.000118850646265936 6.62674035176663e-06 -2.6986034825854e-05 0.00159235227051829 0.00182878471797697 2.21634119685118e-05
"5" 9.40452949913143e-05 0.000316383868573922 0.000470371328093259 -0.000119141819278618 0.00034832315164579 0.000175755070030203 7.74556603391182e-05 -2.33639076053323e-05 4.56864166774943e-05 0.000331263473830661 0.000171244027538669 2.11057519847903e-05 -2.13008055625843e-05 0.00224538209140754 0.00248734756200135 4.007047923387e-05
"6" 0.000121836205766653 0.000395435889048882 0.00058776792733873 -0.000143802844600435 0.000437844285220314 0.000223384421525666 9.76610759874006e-05 -2.44040472036658e-05 7.11581820243226e-05 0.000423513650571662 0.000223063632975789 3.52898227129621e-05 -1.55967974059846e-05 0.00293046464136172 0.00315226804416815 5.7882319095765e-05
"7" 0.000149277759674436 0.000472975719256022 0.000703126706498997 -0.000167484110124894 0.000525772367674398 0.000269628915426793 0.000117485798240604 -2.59317683383734e-05 9.63628048325445e-05 0.000514119728160994 0.000274116668319362 4.90745490491282e-05 -9.90621511646414e-06 0.0036482504747858 0.00381932699940161 7.55522165896098e-05
"8" 0.000176290325691525 0.000548616098109161 0.000815838885003966 -0.000190068132605979 0.000611693211338758 0.000314254585827897 0.000136857632526935 -2.80486176288613e-05 0.000121211250285777 0.000602661140174875 0.000324212201817945 6.23576489256103e-05 -4.26979341563185e-06 0.00439931608491023 0.00448392435242245 9.30282892080268e-05
"9" 0.000202791591773162 0.00062198269425444 0.000925309546764309 -0.000211445128376348 0.000695210230906174 0.000357049090685907 0.000155701959803525 -3.0850767790163e-05 0.000145620822587523 0.000688728590162484 0.000373164612516408 7.5041676261346e-05 1.27814669496155e-06 0.00518415303282777 0.00514109458476709 0.000110266248841854
"10" 0.000228707382567208 0.000692709830959957 0.00103096197050346 -0.000231520166219927 0.000775938936703269 0.000397813031991592 0.000173951367340176 -3.44290924747786e-05 0.000169513657447088 0.000771933994904696 0.000420800127846519 8.70397550410724e-05 6.70308642934422e-06 0.00600312844974965 0.00578557076516715 0.000127222007852218
"11" 0.00025396211886321 0.000760457098937727 0.00113224822970352 -0.000250205631267585 0.000853512056006426 0.000436361728307224 0.000191546575297063 -3.88675045604818e-05 0.000192810999757005 0.000851912930256541 0.000466948621761331 9.82656024552241e-05 1.19696070196819e-05 0.00685646445200475 0.00641184172839489 0.000143852611758776
"12" 0.000278487718902117 0.000824910931942677 0.0012286578758564 -0.000267434633009683 0.000927595792433218 0.000472533672841035 0.00020842473531203 -4.424067268593e-05 0.000215447709029404 0.000928324758693316 0.000511454915503286 0.00010864723008914 1.70425868165418e-05 0.00774420598378948 0.00701425501427322 0.000160115899769121
"13" 0.000302217389167664 0.000885779051118998 0.00131970768831288 -0.00028314542789272 0.000997871057599067 0.000506181238150236 0.000224536926006418 -5.06086035198406e-05 0.000237355549962747 0.00100085948332327 0.000554173313493268 0.000118116518602056 2.18858784512824e-05 0.00866614447022526 0.00758712964170822 0.000175974075563922
"14" 0.00032508986194762 0.00094280462084634 0.00140497172486369 -0.000297296046017338 0.00106406323418492 0.000537182082973563 0.000239834759510852 -5.80268219507615e-05 0.000258474590128446 0.00106924348481061 0.000594971345079217 0.000126617500970472 2.64715134897521e-05 0.00962178955250345 0.00812487128032367 0.000191392948753494
"15" 0.000347053715972935 0.000995759664107626 0.00148407389884146 -0.000309852955092296 0.00112592005732703 0.000565430969055643 0.000254276893470412 -6.65376964303535e-05 0.000278749164728293 0.00113323837519787 0.000633730840663198 0.000134102667304328 3.07622908675437e-05 0.0106102814857671 0.00862214491136616 0.000206343171682152
"16" 0.000368052226742251 0.00104445459986432 0.00155668684878729 -0.00032079896594629 0.00118323419551281 0.000590842019431441 0.000267830277351947 -7.61723099464584e-05 0.000298134854590718 0.00119264311518046 0.000670347181862599 0.000140534260434563 3.47323700388366e-05 0.0116303055355533 0.00907400051548178 0.000220792664767054
"17" 0.000388042035509548 0.0010887351667301 0.00162254894121651 -0.000330128224499041 0.00123583323923653 0.000613360051246351 0.000280469382912879 -8.69465429766405e-05 0.000316588894435048 0.00124729661790567 0.000704732914888891 0.00014588801787091 3.83510891195899e-05 0.0126799986669391 0.00947605878733647 0.000234715194694652
"18" 0.00040698695611998 0.00112849347070305 0.00168145606958711 -0.000337851433449716 0.00128358665504445 0.000632944348337874 0.000292170063203352 -9.88704322878261e-05 0.000334075364208551 0.00129707940126285 0.000736817189164993 0.000150146753848549 4.15917448453497e-05 0.0137568107357189 0.00982464745333426 0.000248094960187344
"19" 0.000424843624016972 0.00116365480127893 0.00173327942141822 -0.000343986511591648 0.00132640063709408 0.000649576165987823 0.00030291829756825 -0.00011193458254498 0.000350567284569479 0.00134191782914572 0.000766545043694273 0.000153302511483584 4.44250113245577e-05 0.0148573703547235 0.0101169218726183 0.000260910671864446
"20" 0.000441595130412918 0.00119418946739336 0.0017779478577619 -0.000348565204997089 0.00136423295961091 0.00066325853905822 0.000312704205968206 -0.000126122828323933 0.000366045853957927 0.00138177617504676 0.00079387859114673 0.000155363875379956 4.68320089894907e-05 0.0159772956368309 0.0103509874377431 0.000273148081500585
"21" 0.000457207962309836 0.00122010531518641 0.00181545523870549 -0.000351634386644954 0.00139707243795938 0.000674021636839648 0.000321529045808992 -0.000141402959411382 0.000380489701915697 0.00141666410825626 0.000818795781710454 0.000156349161156401 4.87899230999199e-05 0.0171110097361118 0.0105259555845625 0.000284797332783633
"22" 0.000471671015118281 0.00124145275751877 0.00184587153711138 -0.000353245131603507 0.00142495471344714 0.000681907516194257 0.000329393727925019 -0.000157731921015028 0.000393895108057332 0.00144663084034695 0.000841292098803864 0.00015627920025959 5.02782766429634e-05 0.0182514941869432 0.0106419802057306 0.000295851670714575
"23" 0.000484972809805717 0.00125832320339748 0.00186931703356242 -0.000353464718871391 0.0014479579864812 0.000686983610701228 0.000336309057169222 -0.000175055575289923 0.000406261804296264 0.00147176517731847 0.000861381912305548 0.000155195019445193 5.12811587300905e-05 0.0193900419851978 0.0107002470991609 0.000306310500983141
"24" 0.000497107747781966 0.00127083709012714 0.00188598851543468 -0.000352364985093851 0.00146619273000498 0.00068933259286663 0.000342295371322785 -0.000193309915113597 0.000417583596760897 0.00149219027637654 0.000879087611994728 0.000153135850118127 5.17835092326643e-05 0.0205160040591289 0.0107029189097613 0.000316168826281622
"25" 0.0005080731022336 0.0012791590040406 0.00189612520276259 -0.00035002846206327 0.00147981120123082 0.000689058450385231 0.000347366858564909 -0.000212417737657185 0.000427881646469012 0.00150806322911806 0.000894456609077482 0.000150155544228558 5.17792018124195e-05 0.0216164910517662 0.0106530315281379 0.000325436539622053
"26" 0.000517877522721603 0.00128348097119668 0.00190002700020594 -0.000346543779650482 0.00148899387212774 0.000686278059938176 0.000351552485901197 -0.000232296117240332 0.000437169044791782 0.00151957365903859 0.000907548397686511 0.000146320878032089 5.12590240984673e-05 0.0226761763641998 0.0105544035726472 0.000334120203287792
"27" 0.000526536131011643 0.00128402486264058 0.00189804105660926 -0.000342007927490413 0.00149396020413753 0.000681124212294359 0.000354886650269089 -0.000252850669247689 0.000445462215153784 0.00152694157453233 0.000918429319639548 0.000141697907759056 5.02178971056079e-05 0.0236771342172656 0.010411461484191 0.000342230534208073
"28" 0.000534059269442843 0.00128103979839835 0.00189055295077971 -0.000336520569825659 0.00149494747290545 0.000673741389313429 0.000357400344880594 -0.000273980179915806 0.000452793458065977 0.00153040550788469 0.000927187820401519 0.000136359979362246 4.86578586232159e-05 0.0245988577076636 0.0102291170714755 0.000349783933725585
"29" 0.000540474393582378 0.0012747944294035 0.00187798257696434 -0.000330189811376088 0.00149222116536151 0.000664293668454712 0.000359134999068309 -0.000295578616666396 0.000459191404687529 0.0015302255491614 0.000933918409033156 0.000130389081903633 4.65815979309088e-05 0.0254184981543097 0.0100126007602323 0.000356796321441138
"30" 0.000545806200765151 0.00126557890778676 0.00186078508922545 -0.000323121663998661 0.00148606731954855 0.000652940843989823 0.000360128632281271 -0.000317530373071366 0.00046468867934305 0.0015266770990079 0.00093872441329288 0.000123870866836456 4.39967339693494e-05 0.0261115023961573 0.00976732319405434 0.000363286731969459
"31" 0.000550085891558244 0.00125369583036145 0.00183943072723047 -0.000315427752903342 0.00147679013093606 0.000639869221880663 0.000360433201430666 -0.000339719334496328 0.000469329785391052 0.00152005200924116 0.000941725711748965 0.000116895767274333 4.09192381635902e-05 0.0266526927893141 0.0094987329699576 0.000369280752664372
"32" 0.000553353698577752 0.00123946059335887 0.00181440769305512 -0.000307222262657321 0.00146469940335423 0.000625255324956418 0.000360090406370587 -0.000362024355232812 0.000473154438587238 0.00151064328513846 0.000943041195877266 0.000109554294389151 3.73622495084763e-05 0.0270179876621533 0.00921220790175389 0.00037480469156356
"33" 0.00055564785326927 0.00122319318237753 0.00178621921707529 -0.000298614469124318 0.00145012106689219 0.000609292758375649 0.000359152345807893 -0.00038432513386759 0.00047620936880806 0.00149875516437836 0.000942801987390417 0.000101944649324803 3.33489539698446e-05 0.0271867451652104 0.00891295370010005 0.000379885341576856
"34" 0.00055701099847089 0.0012052161357686 0.00175536074277288 -0.000289716811978288 0.00143337866237439 0.000592168914029021 0.000357665534060764 -0.000406494686255531 0.000478538956714159 0.00148468376788081 0.000941139894746178 9.41562108668312e-05 2.89018633774361e-05 0.0271447487710257 0.00860592691736266 0.000384552145045844
"35" 0.000557493539021305 0.00118585423958851 0.00172233352952085 -0.000280638643043204 0.00141479976577864 0.000574081261576421 0.000355687368267308 -0.0004284132860131 0.000480194879175912 0.00146873023804011 0.000938194388766811 8.62864135184175e-05 2.4053028098103e-05 0.0268875247873053 0.00829576369996677 0.000388837681086957
"36" 0.000557147549556782 0.00116542639294662 0.0016876248493147 -0.000271484302007398 0.00139471337700665 0.00055522154638465 0.00035326430197812 -0.000449955955415581 0.000481229084848324 0.00145118017449324 0.000934107732122353 7.84365353309963e-05 1.88375018613477e-05 0.0264236557563996 0.00798676522821416 0.00039277534018514
"37" 0.000556021282330053 0.00114424404580237 0.00165171248356523 -0.000262354987541405 0.00137343515372935 0.000535783121104944 0.000350447850903405 -0.000471005500212119 0.000481694295237396 0.00143231750244191 0.00092901571064465 7.06963579948458e-05 1.32879308292148e-05 0.0257772939525189 0.00768285211673014 0.000396397683590128
"38" 0.000554172837658499 0.0011226110593319 0.00161505362507355 -0.000253345895549689 0.00135127291151644 0.000515949206915186 0.000347288978090911 -0.000491443387139556 0.000481637908286972 0.00141240870794635 0.000923062085710172 6.31564914132151e-05 7.45335377222003e-06 0.0249889757207685 0.00738755002267885 0.000399739391263445
"39" 0.000551660358959071 0.00110081256322589 0.00157808202528135 -0.000244544745749941 0.0013285297113242 0.000495905932084169 0.000343842739597423 -0.000511159637283586 0.000481119447723765 0.0013917067841737 0.000916385050926736 5.59080261246825e-05 1.37320259735442e-06 0.0241136432637585 0.00710400593216527 0.000402836049277135
"40" 0.000548545253899425 0.00107911959444817 0.00154120846885529 -0.000236034642394537 0.00130548436805478 0.000475829088094701 0.000340147339923631 -0.000530045075206387 0.00048018486415391 0.00137044643273678 0.000909120564300499 4.90368850408906e-05 -4.89861405438236e-06 0.0232151654211804 0.00683497496707922 0.000405723427577533
"41" 0.000544879738077939 0.00105779191994549 0.00150481517496809 -0.000227884665242444 0.00128240649787992 0.000455887929029246 0.000336256642306462 -0.000547995286290682 0.000478891009896056 0.00134884792619794 0.000901406255829058 4.26251852834012e-05 -1.13096117559103e-05 0.0223575694167022 0.00658284721397452 0.000408438100454705
"42" 0.000540733659153722 0.00103705978598069 0.00146925012972131 -0.000220161548150471 0.00125954415110389 0.000436240955232805 0.000332211845344675 -0.00056491765054773 0.000477283213565977 0.00132710575268743 0.00089336410644393 3.67480262510073e-05 -1.78077047151559e-05 0.0215948454099335 0.00634965193626647 0.00041101407773111
"43" 0.000536159190095916 0.00101714003725419 0.00143482721217338 -0.000212919913068316 0.00123712219955594 0.000417039424121941 0.000328054350561051 -0.000580722280427116 0.000475408653504627 0.00130539256940712 0.000885118386716969 3.14811180594078e-05 -2.4326257540875e-05 0.0209624380358286 0.00613707982483337 0.00041348628517841
"44" 0.000531220550639827 0.000998220057819726 0.00140183173493024 -0.000206201364601226 0.00121534744676271 0.000398419408588123 0.000323820780218518 -0.000595327599259145 0.000473315257360057 0.00128386380348513 0.000876787305284355 2.68854875301432e-05 -3.08127086932324e-05 0.0204736246780095 0.00594649999727403 0.000415886867996249
"45" 0.000525975881953748 0.000980467179239076 0.00137050448086923 -0.000200038453309358 0.00119440240282424 0.000380509332846192 0.00031954866277008 -0.000608660495798043 0.000471044863925266 0.00126264816428257 0.000868476438193982 2.30265866885062e-05 -3.72052416613593e-05 0.020121794662956 0.00577898645106359 0.000418246969877093
"46" 0.000520483324466939 0.000964023985236653 0.00134105737644031 -0.000194456422998486 0.00117444912522241 0.000363423729891297 0.000315269888951384 -0.00062065536010669 0.000468639857990276 0.00124185262305518 0.000860288165036994 1.99536944199396e-05 -4.34296116163731e-05 0.0198868033775446 0.00563532171573861 0.000420601204407517
"47" 0.000514804264956978 0.000949010099255283 0.00131365768621282 -0.000189460944012549 0.00115561675231381 0.000347265095868244 0.000311015865589106 -0.000631255993988695 0.000466134704790036 0.00122156232303962 0.000852314990222318 1.77169958498223e-05 -4.94323611151064e-05 0.0197424717022078 0.00551603531130018 0.000422976727596661
"48" 0.000508990795711359 0.000935516577795065 0.00128844303647613 -0.000185056403938434 0.00113802010303642 0.000332120844438491 0.000306806755325207 -0.000640411216016324 0.000463568686132445 0.00120183795342281 0.000844640541819988 1.63567532311068e-05 -5.51396899577064e-05 0.0196624961419226 0.00542139176737749 0.000425403927325137
"49" 0.00050309299391717 0.000923607474640798 0.00126551142729429 -0.000181227747394049 0.00112174358758041 0.00031806813511998 0.000302670382208074 -0.000648084661014658 0.000460970016752739 0.00118272331654085 0.000837339924107338 1.59052420286214e-05 -6.04904306600681e-05 0.0196239927600235 0.0053514226273328 0.00042790249917545
"50" 0.00049717318410379 0.000913330567703566 0.0012449269031551 -0.000177955931969812 0.00110685022593529 0.00030516515805725 0.000298622820296621 -0.000654242591702459 0.000458369992845258 0.00116423845272602 0.000830478986396055 1.63937586093657e-05 -6.54151227998654e-05 0.0196086993847447 0.00530592589193545 0.000430502976164357
"51" 0.00049126771354406 0.000904700281674037 0.00122671442936098 -0.000175204630583282 0.00109337416308629 0.000293467656759837 0.00029468253826819 -0.000658865117777415 0.000455791375946701 0.00114638155735739 0.000824110570299283 1.783957726571e-05 -6.98542894340995e-05 0.0196029066795145 0.00528449167451608 0.000433221040954539
"52" 0.000485435215976925 0.000897711867964175 0.00121087445637967 -0.000172933094712649 0.00108133152596172 0.000283007162339079 0.000290856492025064 -0.000661939020817644 0.000453259447680376 0.00112913835086092 0.000818285624011028 2.02567321977209e-05 -7.37397459871587e-05 0.0195965187584979 0.00528648356518234 0.000436081205129474
"53" 0.000479714809100754 0.000892338727036615 0.00119736938479369 -0.000171089038672821 0.00107071162747627 0.000273808568411328 0.000287160619475894 -0.000663462367176432 0.000450789698207934 0.00111247507212171 0.000813036820474353 2.36544381184232e-05 -7.70150082831727e-05 0.0195820638405496 0.00531107923002136 0.000439097282944346
"54" 0.000474141270079875 0.000888528225630043 0.00118613155548327 -0.000169611708088097 0.00106148976029005 0.000265886215721741 0.00028359806266754 -0.000663433524068572 0.000448400738336081 0.00109634168228733 0.000808393470908262 2.80264555241469e-05 -7.96211854461763e-05 0.0195536453797888 0.00535724400957979 0.000442280736453138
"55" 0.000468764087467069 0.00088621346815476 0.00117707469036111 -0.000168433541079167 0.00105361554599899 0.000259236539400742 0.000280172159091807 -0.000661869976411539 0.000446105381453581 0.00108067839808315 0.000804372067961196 3.3374076100911e-05 -8.15026264322846e-05 0.0195061210491796 0.00542375536068394 0.000445648588207736
"56" 0.000463609447968738 0.000885305001389935 0.00117007410578237 -0.000167480102681077 0.00104701792809923 0.000253856929009372 0.000276881254527285 -0.000658789701213418 0.000443911592727854 0.0010654139894288 0.000800982460176035 3.96834392593665e-05 -8.26033333575165e-05 0.0194344663924396 0.00550920250539951 0.000449206074467993
"57" 0.00045871237277156 0.000885699443009834 0.00116499702270469 -0.000166670851599287 0.0010416132270769 0.000249721555647242 0.000273731936840373 -0.00065422263106512 0.0004418326645588 0.0010504682062511 0.000798224217233406 4.69326257000079e-05 -8.28821225684388e-05 0.0193332241160191 0.00561197845328762 0.000452961837726187
"58" 0.000454102980592038 0.000887274557035396 0.00116168076128211 -0.000165920793081097 0.0010373035343044 0.00024680455203366 0.000270712222454547 -0.000648204075986847 0.000439867582642267 0.00103575361902126 0.000796088604862568 5.51012733945056e-05 -8.22935735190363e-05 0.0191961633562154 0.00573030267503344 0.000456919477162627
"59" 0.000449803857966689 0.000889894333794737 0.00115994744228636 -0.00016514350658602 0.00103397145127501 0.000245075295320109 0.000267823256556813 -0.000640775571489733 0.000438023589150891 0.00102118008045367 0.000794561455460527 6.4158978960212e-05 -8.07984807231856e-05 0.0190159755829804 0.00586221774364772 0.000461079010370787
"60" 0.00044583632658232 0.000893413902967971 0.00115960455982238 -0.00016424646820493 0.00103149165734014 0.000244484872075545 0.000265056367874145 -0.000631984868269085 0.000436299999772129 0.00100665445381997 0.000793619291542828 7.40714175516243e-05 -7.8364246756987e-05 0.0187841154401811 0.00600560049111278 0.000465441392908953
"61" 0.000442220099114999 0.000897682109655809 0.00116045528660514 -0.00016314230726375 0.00102973252636374 0.000244986851537799 0.000262405299036197 -0.000621890296449078 0.000434697780302211 0.000992086326484391 0.000793229846246965 8.48017646945968e-05 -7.49639774677703e-05 0.0184907625796694 0.00615817712126137 0.000470001083167519
"62" 0.000438973421124918 0.00090253475291647 0.00116228224378583 -0.000161735918181297 0.00102854822435973 0.000246531968039675 0.000259856610118413 -0.000610549952069304 0.000433218826651303 0.000977385676479002 0.000793360270249706 9.63054081947655e-05 -7.05756185166958e-05 0.0181249443187435 0.00631753837007598 0.000474755203633399
"63" 0.00043610472184713 0.000907805671569921 0.00116487159604744 -0.000159943808296273 0.00102779119276858 0.000249058522552294 0.000257404981446833 -0.000598030194765556 0.000431851956942137 0.000962468589650943 0.000793967146253891 0.000108537281954396 -6.51866738476389e-05 0.017674997619157 0.00648115515138368 0.000479690261823282
"64" 0.000433623762005491 0.000913323234202483 0.00116800806266644 -0.000157675778957079 0.00102731141332736 0.000252508813178477 0.000255037377770308 -0.000584402618179562 0.000430598332937562 0.000947258234972491 0.000795004558123721 0.000121449847832301 -5.87892587505453e-05 0.0171294904338574 0.00664639590130043 0.000484802436881213
"65" 0.000431536339562684 0.000918917994701824 0.00117146644924386 -0.00015485234520929 0.00102695350529462 0.00025682338196354 0.000252749631924525 -0.000569741942491479 0.000429451673907229 0.000931684665938139 0.00079642224908606 0.000134983975227569 -5.13807894523438e-05 0.0164790485560987 0.00681056867232624 0.000490077118373106
"66" 0.000429844631028203 0.000924426045680419 0.00117504128109053 -0.000151392919649816 0.00102656970763545 0.000261935353949561 0.000250526327933789 -0.000554125264026523 0.000428410131334624 0.000915695410375085 0.000798167562288318 0.000149090471708754 -4.2968866740766e-05 0.0157196169181226 0.0069709221547906 0.000495496697301762
"67" 0.00042854800631455 0.000929675821132491 0.00117851990181449 -0.000147231880768633 0.00102600965254374 0.000267781981258675 0.0002483587438436 -0.000537636343014991 0.000427461523212527 0.0008992400996427 0.000800179008127001 0.000163706822068429 -3.35677433010386e-05 0.0148579896607446 0.007124715566813 0.000501047270741928
"68" 0.000427639790693672 0.000934515661418752 0.00118170500435133 -0.000142300362228412 0.00102512932545659 0.000274304383682365 0.000246236202136927 -0.000520356306495342 0.000426604523288622 0.00088229157604192 0.000802404505978149 0.000178775107231849 -2.31985193870447e-05 0.0139204918785949 0.00726923045002274 0.00050671220092335
"69" 0.000427118840805876 0.000938792085596562 0.00118441425523148 -0.000136545826627644 0.00102379595744148 0.000281435411149048 0.000244154012310748 -0.000502372971578148 0.000425831839468241 0.000864836226005335 0.00080477812813433 0.000194234495079645 -1.18890407486563e-05 0.0129651028537154 0.00740183226860051 0.000512470200509569
"70" 0.000426973570469709 0.000942366556415752 0.0011864722382384 -0.000129916169362425 0.00102187930207464 0.000289119541951566 0.000242102987650479 -0.000483776137478475 0.000425134131600116 0.000846872719692439 0.000807244062896409 0.000210022262008581 3.23957190498666e-07 0.012094175047945 0.00752000235782436 0.000518298503157886
"71" 0.000427190304874709 0.000945112683380365 0.00118772602597978 -0.000122377521199277 0.00101926522046714 0.000297298611135125 0.000240073113755465 -0.000464652560880514 0.000424511176272634 0.000828416312347889 0.000809740017202644 0.0002260766450963 1.33980359557786e-05 0.0114578041883211 0.00762138337689632 0.000524176693228112
"72" 0.000427757852994268 0.000946910649062194 0.00118804005145014 -0.000113897987726689 0.00101584882009921 0.000305916309616126 0.000238060867827811 -0.000445092092156055 0.000423952986755442 0.000809504435064893 0.000812208102353119 0.000242331433315743 2.72794656199916e-05 0.0112296228074891 0.00770383405245553 0.000530082478251795
"73" 0.00042865474769523 0.000947659841410503 0.00118729254798821 -0.000104460878117447 0.00101153529386181 0.000314918258143929 0.000236060930713786 -0.000425187875072402 0.000423453918196799 0.000790187069850977 0.000814587247228785 0.000258723374830422 4.19127279800107e-05 0.0115439214198708 0.00776546285648451 0.000535986166129909
"74" 0.000429862852929434 0.000947279910660275 0.00118539163625592 -9.40597857316863e-05 0.00100625174562548 0.000324256714312727 0.000234067494784742 -0.000405026994891565 0.000423005881979444 0.00077053068044833 0.000816824254012418 0.000275187393404483 5.72346086368628e-05 0.0124226627395606 0.00780466906061111 0.000541864717823333
"75" 0.000431358345848009 0.000945697525113427 0.00118226588301241 -8.26945681331261e-05 0.000999933209350088 0.00033388700568415 0.000232078828338147 -0.000384700714781767 0.00042260654388768 0.000750618281450513 0.000818862811466373 0.000291661055343078 7.31729636006423e-05 0.0137552143879549 0.00782017769312298 0.000547693233501522
"76" 0.000433123876142898 0.000942866042720442 0.00117785970656815 -7.0381554898971e-05 0.000992535597772829 0.000343762778065244 0.00023009229746353 -0.000364295523998278 0.000422247808645836 0.000730551173272763 0.000820652980788339 0.000308077858752983 8.96506393127166e-05 0.0153521284288179 0.00781106042056438 0.000553441302765281
"77" 0.000435127132241497 0.000938752327222497 0.00117214718877435 -5.71454367468327e-05 0.000984031738975254 0.000353845059435394 0.000228108102623169 -0.000343898675577671 0.000421925645071864 0.000710438138143308 0.000822148792049998 0.000324375806430354 0.000106585359936295 0.0170219368733806 0.00777674921807457 0.000559081972241407
"78" 0.000437341654425886 0.000933336971463326 0.00116511889895748 -4.30210498365566e-05 0.000974405019778683 0.000364096601360346 0.000226124276734325 -0.000323594429152017 0.000421632261999362 0.000690405759129645 0.000823304659462901 0.000340492016193337 0.000123892082207564 0.0186177741702404 0.00771706283912326 0.000564587800186345
"79" 0.000439741228342383 0.00092662555445591 0.00115679988975345 -2.80550864866361e-05 0.000963661690268368 0.000374482696455155 0.000224142194920962 -0.000303468465016218 0.000421362609537175 0.000670586225912839 0.000824084116703065 0.000356369446279626 0.000141481774091141 0.0200468861390418 0.00763218065833026 0.000569932413747805
"80" 0.000442295592903948 0.000918640763687404 0.00114721830414713 -1.23024753609076e-05 0.000951822055607053 0.000384971335756009 0.000222164838378575 -0.000283598455852896 0.000421109882886731 0.000651121272771282 0.000824450079477358 0.000371941642004056 0.000159259063240387 0.0212611946434045 0.00752264986689833 0.000575086555067844
"81" 0.000444972233622796 0.000909414593227212 0.00113643618311158 4.16994144630699e-06 0.0009389237386962 0.000395531169389713 0.000220190560414343 -0.000264062400606817 0.000420870828670241 0.000632160760451809 0.000824373798554465 0.000387152284797029 0.000177124563477545 0.0222436750048783 0.00738935596431861 0.000580021062182288
"82" 0.000447742728044966 0.00089900547312213 0.00112453509943256 2.12887113739976e-05 0.000925015360938326 0.000406136036907772 0.000218226682024553 -0.000244937872391027 0.000420637220799876 0.000613854189266764 0.000823830052347396 0.000401941877794053 0.00019498067222359 0.0229969959823876 0.0072335021114196 0.000584711055309681
"83" 0.000450574100122497 0.000887483921484956 0.00111160155801233 3.89701647873676e-05 0.000910164592874455 0.000416758918960694 0.000216276694444241 -0.000226294507749108 0.000420400984243724 0.000596354719312589 0.000822800109125073 0.00041625680102688 0.000212726894705426 0.0235353852834195 0.00705657515788401 0.00058912855607148
"84" 0.000453434409094376 0.000874928661626263 0.00109775050221512 5.71219580045468e-05 0.00089444938589205 0.000427376309164343 0.000214340895739134 -0.000208201517320709 0.000420157153865528 0.000579812312683213 0.000821268554372695 0.000430040254869395 0.000230263810859303 0.0238792741792189 0.00686029736261856 0.000593248769927188
"85" 0.000456292480415246 0.000861439454789055 0.00108310516440343 7.56514880806089e-05 0.000877965213463727 0.000437960780751136 0.00021242455841008 -0.000190723478793065 0.000419899069604686 0.000564374194778906 0.000819222618792796 0.000443239565181255 0.000247490464748753 0.0240518253198972 0.00664659649231801 0.000597046531291889
"86" 0.00045911538548096 0.000847125451248492 0.00106780049577484 9.44515513225663e-05 0.000860812481658476 0.000448488572217166 0.000210534749169869 -0.000173922670407663 0.000419616634148173 0.000550183862201031 0.000816664194415146 0.000455806192699489 0.000264308568648058 0.0240767534611636 0.00641754998539974 0.00060050210137664
"87" 0.000461877637610388 0.000832103514259968 0.00105197683746557 0.000113417135547201 0.00084310225173434 0.000458936893130632 0.000208673192520671 -0.000157858851392961 0.000419301960387514 0.000537369310558737 0.000813587366388052 0.000467683131054746 0.000280615956015787 0.0239769919250572 0.00617534855464474 0.000603587023877497
"88" 0.000464544636310791 0.000816498676315293 0.00103578893667067 0.000132435344917934 0.000824958038007824 0.000469278989838783 0.000206842469655101 -0.000142583644041492 0.000418946623929509 0.000526054081674117 0.000809999051410926 0.000478828640135685 0.00029632497162221 0.0237738840527055 0.00592225105454643 0.000606286605210882
"89" 0.000467093508361205 0.00080044470776998 0.00101939146846827 0.000151392823277051 0.000806504769747671 0.000479490266503175 0.000205050302638625 -0.000128148762584172 0.000418542594323058 0.000516349277069908 0.000805912396673006 0.000489196844100465 0.000311343582920192 0.023486813043681 0.00566054092692165 0.000608578420809981
"90" 0.000469497431850669 0.000784083509822857 0.00100294383299395 0.000170173662395786 0.000787875756057522 0.000489545934108973 0.000203301052284778 -0.000114601624552792 0.000418078045747286 0.00050834774709202 0.00080134020960343 0.000498744242972768 0.000325587127180227 0.0231330232355311 0.00539248908281542 0.000610449984202363
"91" 0.000471731319157821 0.000767551625050763 0.000986600360873312 0.000188665545631895 0.000769206680365019 0.000499412653213933 0.000201594696409338 -0.000101980585921014 0.000417545514283616 0.000502127686199943 0.000796300766993889 0.000507430632117209 0.000338971270872062 0.022727641496528 0.00512032194083896 0.000611882978790244
"92" 0.000473772814134938 0.00075099345615479 0.000970522082227765 0.000206749374101704 0.000750633509991518 0.000509064280589132 0.000199936168921276 -9.03304386609631e-05 0.000416928451191651 0.000497752026395891 0.000790815711882749 0.00051521647997428 0.000351419037793211 0.0222837701988975 0.00484620345132703 0.000612864651636174
"93" 0.000475609825453783 0.000734553926236173 0.000954857885065152 0.000224318595771317 0.000732298282310649 0.000518468092464244 0.000198331889601983 -7.96781016843912e-05 0.000416220059503524 0.000495265166949994 0.000784913451845863 0.000522066669786758 0.000362868676483208 0.0218126438043976 0.00457218752875392 0.000613388689423234
"94" 0.000477213732862504 0.000718370553032593 0.000939754345492361 0.000241257713953923 0.000714332129619575 0.000527592202901524 0.000196781005424116 -7.00592495699886e-05 0.000415403811228041 0.00049468986865524 0.000778622801275051 0.000527943325081802 0.00037325098645132 0.0213238190316534 0.00430022752486102 0.00061344386036549
"95" 0.000478578200083464 0.000702582428334749 0.000925351179355801 0.000257467172570067 0.000696870980311118 0.00053639454811698 0.000195284206358833 -6.1497046406646e-05 0.000414467112900913 0.00049603372640639 0.000771974310704321 0.000532825422697178 0.000382519289241262 0.0208253474268676 0.00403214454517936 0.000613026555188289
"96" 0.00047969096872725 0.000687321642622051 0.000911776056278779 0.000272849797432245 0.00068004550807745 0.00054484117503855 0.00019384551920254 -5.40123215304379e-05 0.000413396830036837 0.000499284548010017 0.00076500658635177 0.000536679105080481 0.000390619762147331 0.0203239754193528 0.00376962348544657 0.000612133296822431
"97" 0.00048054484087109 0.00067271255238246 0.000899151745643518 0.000287309357144567 0.000663980206746842 0.000552894251224338 0.000192466203533842 -4.76241242773761e-05 0.000412179568967381 0.000504406992818037 0.000757755815046092 0.000539483831578071 0.000397520523524705 0.0198253110979029 0.00351420109888182 0.000610763845709195
"98" 0.000481128776845906 0.000658876339663717 0.000887578770345779 0.000300764370440501 0.000648789539056528 0.000560506580087587 0.000191140382940082 -4.23410839239005e-05 0.000410797153363501 0.000511352811528991 0.000750255155352592 0.000541216593810259 0.000403185741347815 0.0193339854343929 0.00326726574318249 0.000608919364097403
"99" 0.000481447317075729 0.000645922143011785 0.000877154290123985 0.000313139365454187 0.000634585801947683 0.000567637332742384 0.000189874636207879 -3.81726596563273e-05 0.000409234762324073 0.000520049395313801 0.000742550614064991 0.000541862326253259 0.000407600442655579 0.0188537720231002 0.00303005306588983 0.000606608524696648
"100" 0.000481498066632038 0.000633948406226577 0.00086795834843651 0.000324369994010104 0.000621468427259857 0.000574241550382411 0.000188662925467145 -3.51214164333044e-05 0.000407477840659677 0.000530410441295902 0.000734681112564777 0.000541408008376304 0.000410750385953463 0.0183877338012414 0.00280365533598301 0.000603835576298344
"101" 0.000481284733303996 0.000623044017561113 0.000860055835559484 0.00033439825775965 0.000609532639241293 0.0005802754318396 0.000187505061609341 -3.31866545901569e-05 0.000405507694177913 0.000542331496027164 0.000726689643136702 0.000539845764333274 0.000412631868105192 0.0179383118133326 0.0025890070816352 0.000600611382473304
"102" 0.000480811641293442 0.000613288796588667 0.000853494797956767 0.000343182974348016 0.000598854296494831 0.000585690860969087 0.000186399422356949 -3.23598653053554e-05 0.000403306329242907 0.000555696328274036 0.000718612087555683 0.000537170006988858 0.000413249573131518 0.0175074311440081 0.00238690118114752 0.000596947988414127
"103" 0.000480091388346096 0.000604746709844123 0.000848310514859937 0.000350690391777209 0.00058950220862917 0.000590442786868064 0.000185341103301652 -3.26312674308497e-05 0.000400861045727975 0.000570367109520079 0.000710493744644866 0.000533380456818072 0.000412618971530429 0.0170965635574156 0.00219799314984143 0.000592860375772495
"104" 0.000479138177430656 0.000597470510135892 0.00084452344845659 0.000356898821095498 0.000581538987875031 0.000594488694455 0.000184328823095696 -3.39848377781309e-05 0.000398153130214879 0.000586202232124039 0.000702372714042818 0.00052848422946199 0.000410766800434358 0.0167067973023883 0.00202279761058284 0.000588368354108084
"105" 0.000477958040511549 0.000591500693575387 0.00084213633796633 0.000361799461301282 0.000575008267154451 0.000597782471983094 0.000183356883713957 -3.63969807641777e-05 0.000395165166569562 0.000603041225259288 0.000694289758671592 0.000522485398755289 0.000407718675571853 0.0163389171218395 0.00186170097734501 0.000583489006567525
"106" 0.000476576911501824 0.000586864228140294 0.000841132491990257 0.000365395812999529 0.000569936272000296 0.000600283337105097 0.000182419425808675 -3.98455842502892e-05 0.000391880771510425 0.000620716235875252 0.000686278471033477 0.000515400989208855 0.000403515640345976 0.0159934178981174 0.00171495985544807 0.000578241304675296
"107" 0.00047500966072995 0.000583573152925124 0.000841490165437418 0.000367705548914725 0.000566354070761601 0.0006019528235543 0.000181513023725069 -4.42966371383353e-05 0.00038828665257391 0.000639056720421233 0.000678379698865943 0.000507252210936096 0.000398207469809599 0.0156705557577981 0.0015827171177315 0.000572656451175541
"108" 0.000473275763060877 0.00058162753573516 0.000843164436175707 0.000368751899341707 0.000564262832341187 0.000602756759030121 0.000180634332865181 -4.97191180771242e-05 0.000384366751241077 0.00065787376171477 0.000670623256120152 0.000498060734846771 0.000391845869765336 0.0153704130164146 0.00146500791603788 0.000566751640160024
"109" 0.000471401529143594 0.000581015773376197 0.000846098911988522 0.000368579678517433 0.000563656638908809 0.000602662065345331 0.000179776957526939 -5.60699555976538e-05 0.00038010635949101 0.000676988227194254 0.000663040957443553 0.000487856679294184 0.00038448843835697 0.0150928800506953 0.00136175574921088 0.000560557937375581
"110" 0.000469408593064515 0.000581712031247708 0.000850226370892742 0.000367233332905514 0.000564519940937641 0.000601641876094709 0.000178933380721524 -6.3307333617176e-05 0.000375496004698112 0.000696209094100612 0.000655662957925255 0.000476674250779334 0.000376200341398834 0.0148377191626054 0.00127278366106795 0.000554103446922165
"111" 0.000467323184905372 0.000583676711343826 0.000855462958789639 0.000364775092895852 0.000566821503153681 0.000599676059409858 0.00017810057958473 -7.13815218661306e-05 0.000370525150210669 0.000715345365141971 0.000648513570117242 0.000464555268496704 0.000367057123459329 0.0146045555057488 0.00119781677202184 0.000547419124835391
"112" 0.000465173173851321 0.000586858630386303 0.00086171678542142 0.000361278790589551 0.000570518554465605 0.00059675050491898 0.000177271294144617 -8.02421611390838e-05 0.000365183729471134 0.000734211301972395 0.000641619572867871 0.000451545382172582 0.000357134075397532 0.0143929182325907 0.00113650114473306 0.000540532469921159
"113" 0.000462982787961825 0.000591198705831726 0.000868886033083592 0.000356817689854955 0.000575558073266727 0.000592851800940848 0.000176444440961589 -8.98311246300462e-05 0.000359465888560368 0.000752619577274189 0.000634996035762023 0.000437693517861715 0.000346507736311855 0.0142022459997647 0.00108838892542939 0.000533475025474785
"114" 0.000460780873013136 0.000596624771522225 0.000876858132643768 0.00035148382687209 0.000581881021592518 0.000587983416733602 0.000175609453389565 -0.00010009004234084 0.000353367688529257 0.000770391521344924 0.000628665006058716 0.00042305561269461 0.00033525936640886 0.0140318917238916 0.00105295654968294 0.000526281694798535
"115" 0.000458590720845385 0.000603052955845258 0.000885509819877079 0.000345369690037062 0.000589405405275424 0.000582145102742369 0.000174764540193472 -0.000110954531388977 0.000346886361232816 0.000787347560189702 0.000622633630927965 0.0004076907348093 0.000323476564570727 0.0138811540333886 0.00102960636885007 0.00051898285044561
"116" 0.00045644329794544 0.000610393914532667 0.000894720578271831 0.000338577640297204 0.000598049942077659 0.000575351456002787 0.000173908119258845 -0.000122361906324568 0.0003400325355165 0.000803324939129682 0.000616919264041294 0.0003916685742958 0.000311247451761588 0.013749246299241 0.00101766879012922 0.000511613780383931
"117" 0.000454364456507296 0.000618549223935764 0.000904354050415732 0.000331208616603502 0.000607725818852503 0.000567623361354125 0.000173029934701459 -0.00013424254090768 0.000332798965451318 0.000818165316089226 0.000611526177798791 0.000375051956504595 0.000298653984176075 0.0136353652711291 0.00101641714369493 0.000504202512702615
"118" 0.000452377448530173 0.000627414230178785 0.000914280100720011 0.000323372280880597 0.000618330667489089 0.000558988039734965 0.000172128728098218 -0.000146526364399422 0.000325203665479894 0.000831725081397499 0.000606456723846551 0.000357919887307468 0.000285786058920686 0.0135386422879333 0.00102506185067289 0.000496784392207715
"119" 0.000450505643640528 0.000636875678656265 0.000924357030566571 0.00031518265184427 0.000629759975275589 0.000549483887627168 0.000171203644979888 -0.000159139162664317 0.000317255576717082 0.000843871206888189 0.000601717879184663 0.000340346348210474 0.000272728869734053 0.0134581549963954 0.00104277337506046 0.000489392473705723
"120" 0.000448772947942569 0.000646822695747184 0.000934450789054158 0.000306747543308344 0.000641901025915251 0.000539150073320304 0.000170251278822843 -0.000172011082680112 0.000308971564178276 0.000854485340651398 0.000597300536026559 0.000322412603512593 0.000259569275002099 0.0133929773902938 0.00106867185753653 0.000482053344936798
"121" 0.000447199480141589 0.000657133430339033 0.000944425703462293 0.000298182866962454 0.000654641985512755 0.000528040763092457 0.000169268214651049 -0.000185066521031004 0.000300372292214964 0.000863469273241836 0.000593206208791756 0.000304204467295426 0.000246391647715768 0.0133421295653328 0.00110184207159073 0.000474803870314407
"122" 0.000445805704865376 0.000667685898969828 0.000954144775537113 0.000289594832003595 0.00066785883132592 0.000516212573078392 0.000168251679680718 -0.000198232381179321 0.000291482900805461 0.000870734033466275 0.000589423850035129 0.000285803134730047 0.00023327260190467 0.0133046024020131 0.00114134315854207 0.000467665955289491
"123" 0.000444604914609572 0.000678364403810218 0.00096348235052805 0.000281096948827155 0.000681433499247057 0.000503735086452485 0.000167204929666783 -0.000211431965184579 0.000282333443511679 0.000876214325941218 0.000585947902153995 0.000267300249474121 0.000220294979178396 0.0132793593138859 0.00118620664231117 0.000460674965915166
"124" 0.000443615888517357 0.000689042522727366 0.000972309703355544 0.000272790760555482 0.000695244433962285 0.00049067377715258 0.00016612474706147 -0.00022459177765456 0.000272952147024859 0.000879862770691288 0.000582763289204843 0.00024878266888661 0.000207527815811228 0.0132653566210009 0.00123545525717257 0.000453852021132036
"125" 0.000442848452440704 0.000699604805278745 0.000980509571383142 0.000264777807888356 0.000709169757558181 0.000477113223550616 0.000165011369225144 -0.000237639904302523 0.000263379116778033 0.000881651204757857 0.000579858196478616 0.000230340739675543 0.000195041820513515 0.0132615044498304 0.00128810386424816 0.000447226923013108
"126" 0.000442309343529156 0.000709930414104602 0.000987971462121453 0.000257153536053879 0.000723090620798561 0.000463129203006287 0.000163866114568991 -0.00025050612513371 0.000253653791177602 0.000881571095186962 0.000577215854086344 0.000212062312087473 0.000182901387462202 0.0132667120916273 0.00134317167543846 0.000440818482321828
"127" 0.00044200532192125 0.000719911678215947 0.000994595739857221 0.00025000391442428 0.000736889023354154 0.000448813523272651 0.000162690985902333 -0.000263119164925849 0.000243819448214146 0.000879634095733297 0.000574821664635654 0.00019404116838709 0.000171165676803093 0.0132798576994773 0.00139969538745556 0.000434649236267099
"128" 0.000441941093423526 0.000729439811924865 0.00100028603486933 0.00024341419752014 0.000750453978175749 0.000434253690877675 0.000161483938343114 -0.00027541328209108 0.000233925002649668 0.000875871660402435 0.000572655704928531 0.000176357955424563 0.000159889034505084 0.0132998138063809 0.00145672393820931 0.000428739392071604
"129" 0.000442113309319106 0.000738412603724224 0.00100496695187605 0.000237454767226299 0.000763675285237512 0.000419548984084118 0.00016024882570013 -0.00028732490656155 0.000224022360599728 0.000870337382807002 0.00057070318059248 0.000159105149617978 0.000149119239216708 0.0133254334575352 0.00151335498003303 0.00042310766764088
"130" 0.000442524065080738 0.000746738375371361 0.00100856324379006 0.000232193557268089 0.00077644869126266 0.000404788586854088 0.000158987980442548 -0.000298791533801247 0.000214160464550369 0.00086309924334818 0.000568939896799282 0.000142363596587172 0.000138898071520581 0.0133555698494316 0.00156871809432252 0.000417765192065126
"131" 0.000443160764100668 0.00075432941435708 0.00101101952071347 0.000227683076231814 0.000788681587544751 0.000390076170658865 0.000157701611194134 -0.00030975634384289 0.000204394776228715 0.000854246827656939 0.000567347731634134 0.000126210564187888 0.000129258770709468 0.0133890714424871 0.00162200520669691 0.000412726292397431
"132" 0.000444015452258139 0.000761109775848314 0.00101228761381603 0.00022397049845508 0.000800280077856062 0.000375507490735103 0.000156391106823176 -0.000320169465495598 0.000194781168870933 0.000843889277699724 0.000565905677848314 0.000110726611293187 0.000120231276940088 0.013424771279175 0.00167246637939329 0.00040799671189404
"133" 0.000445078725746796 0.000767012692430472 0.00101233559011268 0.000221094026722878 0.00081117018929871 0.000361175403769229 0.000155060438999652 -0.000329975658961125 0.0001853836130976 0.000832150527383448 0.000564597414737891 9.59832367715479e-05 0.000111840777672865 0.0134615156824642 0.00171942473257976 0.000403590389340783
"134" 0.000446333206047295 0.000771980479243868 0.00101114498856752 0.000219081877528314 0.000821278776204488 0.000347182806890214 0.000153709894257555 -0.000339135792503717 0.000176255388397235 0.000819163620258751 0.000563398797094161 8.20477063798976e-05 0.000104105029464357 0.0134981665929198 0.0017622893717351 0.000399508038633058
"135" 0.000447758258590777 0.000775963633759178 0.00100870497866109 0.000217949625571077 0.00083053986881078 0.00033361787590304 0.000152339338117825 -0.000347607830356335 0.000167457211096498 0.000805080351181109 0.000562291596235489 6.89794526472167e-05 9.70307525523667e-05 0.0135335957902213 0.00180055476502232 0.000395747861993763
"136" 0.000449333361058872 0.000778928309526049 0.00100502036987264 0.000217704449300467 0.000838905722268677 0.000320575961428485 0.000150956342091244 -0.000355356297390811 0.000159046339768499 0.000790063945417853 0.000561261256559418 5.68358158258587e-05 9.06260754674594e-05 0.0135667038464344 0.00183381031614503 0.000392314947489525
"137" 0.000451035905575658 0.000780847249727868 0.00100010674874698 0.000218344313401479 0.000846328875872966 0.000308141115104312 0.000149556427256641 -0.000362354987317797 0.000151080247396882 0.000774280227038502 0.000560283658472685 4.5664035570963e-05 8.48853869972198e-05 0.0135964192437725 0.00186174458545849 0.000389202970132642
"138" 0.000452836043620005 0.000781706324904892 0.000993992221240223 0.000219860300073501 0.000852778776733513 0.000296397338993308 0.000148140082950266 -0.000368573881739726 0.000143616448502163 0.000757906361457277 0.000559346645946242 3.55125994586026e-05 7.98048171007955e-05 0.0136217080950459 0.00188414667064614 0.000386408828036151
"139" 0.000454707666715225 0.00078150082403444 0.000986710400893399 0.000222227102799036 0.000858233520556904 0.0002854209268896 0.000146709060156225 -0.000374000485871366 0.00013670526154161 0.000741121287771916 0.000558431778330807 2.64117444161745e-05 7.53715607601799e-05 0.0136415923278096 0.00190090928200658 0.000383918523205533
"140" 0.000456620600263135 0.000780235615081049 0.000978313253371287 0.000225418504329427 0.000862677434957205 0.000275282667828614 0.000145259240498207 -0.000378613055902708 0.0001303980872721 0.000724106771458935 0.000557525202454725 1.83927403611202e-05 7.1570708578875e-05 0.0136551569132258 0.00191203256358101 0.000381724087281143
"141" 0.000458540602778104 0.000777930364541771 0.000968855202039285 0.000229396408150734 0.000866109738610769 0.000266048531006713 0.000143796087169207 -0.000382410578936964 0.000124743466692289 0.000707041887229122 0.000556615885586001 1.14752001480313e-05 6.8375393694604e-05 0.0136615435593935 0.00191761046933946 0.000379813552228813
"142" 0.000460437968749157 0.000774609588717328 0.000958401735523126 0.000234116338116115 0.000868535585444171 0.000257774310481084 0.00014231057724523 -0.000385383013718691 0.000119786328412239 0.000690104394730563 0.000555689955768568 5.67768035324692e-06 6.57697310138431e-05 0.0136599716080336 0.00191784135637384 0.000378168736720445
"143" 0.000462270744130856 0.000770306965289666 0.000947023787018314 0.000239524837083713 0.00086997100922846 0.000250514248804016 0.000140803207973892 -0.000387536851218304 0.000115566345923687 0.000673464388094319 0.000554737399630071 1.00058916543055e-06 6.37170897823991e-05 0.013649759243984 0.0019130129376064 0.000376773449643877
"144" 0.000464012218642514 0.000765067312167704 0.000934797549754763 0.000245567167909698 0.00087043725964209 0.000244308544464825 0.000139268349504108 -0.000388877765904763 0.000112116794481128 0.000657285957607881 0.000553749185219725 -2.55157748786665e-06 6.21866636803006e-05 0.0136303054703196 0.00190350004763066 0.000375606900967583
"145" 0.000465623848517279 0.000758941363939857 0.000921802701065633 0.00025217948545873 0.000869966466437178 0.000239190805585387 0.000137707039043696 -0.000389415634262792 0.000109468652879405 0.000641724349951842 0.000552720086224435 -4.98921198852267e-06 6.11485727472629e-05 0.0136011165348666 0.00188976083116873 0.000374649880458943
"146" 0.000467068319864606 0.00075198793872415 0.000908130599465418 0.000259293446508413 0.000868598579322239 0.000235187807873657 0.000136110677600415 -0.000389165388193569 0.00010764753301769 0.000626917871427814 0.00055164332581394 -6.32661202083008e-06 6.0567738410177e-05 0.0135618009046441 0.00187232134102096 0.000373878693854288
"147" 0.000468314499481249 0.000744269248779734 0.000893867601696195 0.000266839294951139 0.000866377897742952 0.000232316363711602 0.000134473234201797 -0.000388150928254053 0.000106675643425273 0.000612995214620467 0.000550513950863606 -6.58297162910338e-06 6.0400427593953e-05 0.0135120804176994 0.00185176506434914 0.000373270227872395
"148" 0.000469327814012766 0.000735860070904626 0.000879101237812459 0.000274742401461135 0.000863355697671045 0.000230582457514668 0.000132793289145185 -0.000386392567964452 0.000106564497713377 0.00060007057360075 0.000549330908199882 -5.79244667209631e-06 6.06150231893057e-05 0.0134517883964613 0.00182874144969729 0.00037280046059367
"149" 0.000470077802349621 0.000726827611897793 0.000863921113926499 0.000282931689742282 0.000859585870311348 0.000229991098062007 0.000131062853806219 -0.000383919984281998 0.000107324973745692 0.000588237260807395 0.000548093323553736 -3.98220386037604e-06 6.117283774916e-05 0.0133808755361369 0.00180393121043073 0.000372443688444947
"150" 0.000470531696126621 0.000717254697713507 0.000848423577519688 0.000291326252785564 0.000855131887866371 0.000230526567923042 0.000129271416435626 -0.000380763645404108 0.000108959652387561 0.000577578441161542 0.00054680256113274 -1.19701506815368e-06 6.20346169283716e-05 0.0132993994945255 0.00177804459406199 0.000372172631063486
"151" 0.000470665202630213 0.000707218427682142 0.000832690732300098 0.000299853614629635 0.00085005406003806 0.000232172649200217 0.000127419203489981 -0.000376959863353081 0.000111467152898132 0.000568149658422179 0.000545460267576269 2.51654168831804e-06 6.31616112222201e-05 0.0132075260957974 0.00175181160429452 0.000371964899143808
"152" 0.00047044537885864 0.000696802949813563 0.00081680925707256 0.00030843724418262 0.00084442027246709 0.000234901991124065 0.000125495372543972 -0.000372545114176883 0.000114840626456528 0.00055999849709884 0.000544068967822035 7.11537920576511e-06 6.45206536521036e-05 0.013105527538533 0.00172597487280236 0.000371791179590339
"153" 0.000469859029803147 0.000686085951562498 0.000800867101130817 0.000317004473353166 0.000838297624248278 0.000238680329222533 0.000123492533484254 -0.000367557643940897 0.000119063216469995 0.000553147883650463 0.000542636554583476 1.25388195905488e-05 6.6079549296151e-05 0.0129937661283868 0.00170127497518424 0.000371629170474625
"154" 0.000468877783091614 0.000675151828777183 0.000784940842373928 0.00032548517838251 0.000831757211103764 0.000243465045478602 0.000121404618549417 -0.000362038209846788 0.000124116491898366 0.000547602684700742 0.000541166944243075 1.87316078620398e-05 6.7803258899766e-05 0.0128727055135803 0.00167843699736399 0.000371450786536015
"155" 0.000467491580374037 0.000664080241770818 0.000769103695854366 0.000333809415085375 0.000824863616583193 0.0002492051783799 0.000119229181161805 -0.000356034610060282 0.000129977423249177 0.000543346875094813 0.000539667487626686 2.562976091895e-05 6.96616584065236e-05 0.012742872430292 0.00165818023153347 0.000371236187166774
"156" 0.000465682312142839 0.000652955403542501 0.00075343256069121 0.000341917782932658 0.000817687369301857 0.000255838490824617 0.000116952664780244 -0.000349586392771454 0.000136615866781331 0.000540353992264115 0.000538149132672328 3.31703746336243e-05 7.16259783983451e-05 0.0126048643479684 0.00164118197790894 0.000370960792466009
"157" 0.000463446099960701 0.000641847081592861 0.00073798867707634 0.000349748195220984 0.000810297141374509 0.00026330511643977 0.000114573990988101 -0.000342742759778327 0.000143996488828894 0.000538575060761067 0.000536618184300073 4.12881480044686e-05 7.36778563579461e-05 0.0124593377956657 0.00162809471309845 0.000370601826932932
"158" 0.00046077310448796 0.000630833860952183 0.000722831255766813 0.000357248698247084 0.000802757996400313 0.000271534538919172 0.000112085623654103 -0.000335548036321627 0.000152081322207666 0.000537947184878669 0.00053508851041348 4.99143198219463e-05 7.57930177632289e-05 0.0123069858180034 0.00161952244934669 0.000370142307737797
"159" 0.000457663324813798 0.000619983867828607 0.000708018333094103 0.000364371362298273 0.000795131579391382 0.000280446930287616 0.000109484653864392 -0.000328048443605638 0.000160825600478432 0.000538391006101338 0.000533568109353895 5.89803343463676e-05 7.79510621918313e-05 0.012148538139134 0.0016160262183952 0.000369560255920129
"160" 0.000454124798588562 0.000609361740697601 0.000693593949007195 0.000371075632471079 0.000787479329408159 0.000289962852583691 0.000106767129166058 -0.000320288345694171 0.000170182156968225 0.000539814932919462 0.00053207070487482 6.84150694650957e-05 8.01424249653596e-05 0.0119847385611388 0.00161811354969084 0.00036884440661139
"161" 0.000450154800013216 0.000599030575354836 0.000679605337890558 0.000377321928879081 0.000779856203650094 0.000299995258840972 0.000103925426888152 -0.000312313861040702 0.000180097849452933 0.000542112983211876 0.000530604542830874 7.81519248093159e-05 8.23496898058878e-05 0.0118163472703712 0.00162623844289992 0.000367973413764103
"162" 0.000445770415069346 0.000589045147738821 0.000666083130631855 0.0003830839078474 0.000772316087635833 0.000310460422679617 0.000100962070028917 -0.000304171256105697 0.00019051617808286 0.00054517337461117 0.000529185698019515 8.81192744663794e-05 8.45684913054159e-05 0.0116441126796518 0.0016407876007631 0.000366938320807886
"163" 0.000440987130623645 0.000579457889076202 0.000653064042312385 0.000388340396951839 0.000764906432032146 0.000321264492350752 9.78773680278599e-05 -0.000295899895767471 0.000201381936345223 0.000548870832070792 0.000527823636923974 9.82524339106239e-05 8.67888037017456e-05 0.0114687774630748 0.00166209373231578 0.000365728753807853
"164" 0.000435819380758394 0.000570310111631109 0.000640566234626779 0.000393074855392706 0.000757672121771025 0.000332314506394265 9.46645579223924e-05 -0.00028754722736662 0.000212632832207452 0.000553072416956429 0.000526529786649925 0.000108482683376284 8.90161012997077e-05 0.0112910493704645 0.00169041555372665 0.000364337633811513
"165" 0.000430293106804193 0.000561641833767093 0.000628611808376024 0.00039727721069685 0.000750650622679547 0.000343518261081721 9.13306670556977e-05 -0.000279146383951884 0.000224203708616192 0.000557639588641909 0.000525315861747862 0.00011874572896167 9.12441075466105e-05 0.0111116281863409 0.00172594831784236 0.000362755188418529
"166" 0.000424429686744795 0.000553484558736914 0.000617213892445731 0.000400946682662511 0.00074387699349535 0.000354780888204775 8.78739229253665e-05 -0.000270738303953095 0.000236029549097661 0.000562432867182637 0.000524194547937363 0.000128984464544797 9.34791473183643e-05 0.0109311624948736 0.00176880686070636 0.000360979965559629
"167" 0.00041826252593222 0.000545866453694575 0.000606381552350456 0.000404089793018743 0.000737376951782303 0.00036600909047253 8.42987911358088e-05 -0.000262359684888668 0.000248044112285998 0.000567306282163767 0.000523171815885733 0.000139133772277135 9.57267884869519e-05 0.0107502627369897 0.00181904671753879 0.000359008507004533
"168" 0.000411819457484952 0.000538804916288859 0.000596113498607454 0.000406713568982939 0.00073117437690362 0.000377112851939709 8.06075834309466e-05 -0.000254043694874629 0.000260177999010482 0.000572113924393884 0.000522260394413463 0.000149140088363179 9.79899644731888e-05 0.0105695068502804 0.00187664924174595 0.000356841727028733
"169" 0.00040513414492828 0.000532316364346731 0.000586408094600005 0.000408836738806266 0.000725286011017452 0.000388002801840486 7.68063234659304e-05 -0.000245817517768439 0.000272361342664392 0.000576710411539392 0.000521462946387994 0.000158945989532275 0.000100280227703807 0.0103894157335726 0.00194151610490629 0.000354480444050783
"170" 0.000398243553966265 0.000526406342285088 0.000577261042990698 0.000410479880809295 0.000719725315365439 0.000398591634271972 7.29028402149807e-05 -0.000237713594384149 0.000284525937475133 0.000580954141102341 0.000520790232821289 0.000168509980511541 0.000102605269010234 0.0102104489453765 0.00201348750358979 0.000351929148566144
"171" 0.000391181552398942 0.000521079145141005 0.000568663306883489 0.000411667903182473 0.00071449749014204 0.000408796608022702 6.89035348020126e-05 -0.000229752557886059 0.000296599044795683 0.000584705379288541 0.000520243931706244 0.000177782432144971 0.000104977918235233 0.0100330425261697 0.00209232307945262 0.000349191269853981
"172" 0.000383989835645619 0.000516325842554015 0.00056059750416084 0.000412433638231309 0.000709604506406509 0.000418536760564987 6.48149179894481e-05 -0.000221960401055067 0.000308511467437292 0.000587829616354471 0.000519826745169523 0.000186716053686426 0.000107400939033776 0.00985756725718741 0.00217770960229672 0.000346275010238632
"173" 0.000376709585358772 0.000512141129014199 0.000553047673723509 0.000412809398460431 0.00070504069773789 0.000427740808872252 6.0646497257579e-05 -0.000214356330229045 0.000320200057416127 0.000590199128595336 0.0005195404340688 0.000195280566229617 0.000109893436881002 0.00968433255475555 0.00226926245781694 0.000343189184788123
"174" 0.000369372133131872 0.0005085101633537 0.000545990883898049 0.000412833947513087 0.000700800019887927 0.000436341102105068 5.64049875269409e-05 -0.000206956093006902 0.000331590431748193 0.000591696736161237 0.000519381367931025 0.00020343794582402 0.000112460216478204 0.0095136295303357 0.00236653175172229 0.000339938659987937
"175" 0.00036202469229841 0.000505409411678448 0.000539407578246172 0.00041254843046622 0.000696865486710546 0.000444274126296866 5.21075216026957e-05 -0.00019977166879331 0.000342620681259062 0.00059221090831517 0.000519349557959093 0.000211160122666729 0.000115108712566326 0.00934566745137379 0.00246898406155309 0.000336536454499791
"176" 0.000354702628040393 0.000502818132470538 0.000533271660495234 0.000411992295659211 0.000693224063554298 0.000451482325874364 4.7759068263294e-05 -0.000192817846513594 0.000353229419137146 0.000591640214174757 0.000519436506238322 0.00021841924288463 0.000117847803797539 0.00918063400972542 0.00257602364285941 0.000332995883838774
"177" 0.000347442840731797 0.000500707527958387 0.00052755614947809 0.000411209852100758 0.000689851587514175 0.000457916075459301 4.33706917225595e-05 -0.000186101150252632 0.000363356283789772 0.000589901344620921 0.000519635662915994 0.000225194137697136 0.000120683763053362 0.00901866852169143 0.00268698917440074 0.000329323900180213
"178" 0.000340282683867709 0.000499041116077656 0.000522230243258405 0.000410244138031867 0.00068672092295641 0.000463531218136983 3.89553041127923e-05 -0.000179627703478946 0.00037294356816472 0.000586915117172619 0.000519933796615324 0.000231466271428646 0.000123617834922555 0.00885987145410164 0.00280114313370485 0.000325533376109359
"179" 0.000333257732424928 0.000497788384905323 0.000517265230493955 0.000409139420962109 0.000683807537689633 0.000468294194032736 3.45255781791939e-05 -0.00017340275901071 0.000381938838783515 0.000582621199607908 0.000520323170832499 0.000237225766190525 0.000126653948947971 0.00870429628115884 0.00291769419444635 0.000321639532755821
"180" 0.000326397173094112 0.000496907963751533 0.000512632439222037 0.000407934976171101 0.000681076245152335 0.000472172778382999 3.0091879790519e-05 -0.000167425633916198 0.000390293319750243 0.000576968949831312 0.000520787398467585 0.000242458676587699 0.000129789382249339 0.00855198016020132 0.00303578865731999 0.000317651927965017
"181" 0.000319732479740412 0.000496359371118516 0.000508297500243168 0.000406676862872569 0.000678496128813453 0.000475146481091543 2.56613026531089e-05 -0.000161699884067781 0.000397959967214286 0.000569927852206411 0.000521306523016241 0.000247155799423413 0.000133019663981457 0.00840292611443257 0.00315451332726795 0.000313578639248881
"182" 0.000313288349944536 0.000496096876320105 0.000504227814084277 0.000405400254494517 0.000676031972964323 0.000477198087729738 2.12540358519409e-05 -0.000156218807887178 0.000404900821455199 0.000561475160247345 0.000521863825172413 0.000251320620353467 0.000136338487155759 0.00825709450467408 0.0032729055183539 0.000309435905896543
"183" 0.000307094525408854 0.000496078377742948 0.000500398361929404 0.000404144478973632 0.000673645542269164 0.000478321005297508 1.68723521654132e-05 -0.000150979499786293 0.000411080648184738 0.00055161024194807 0.000522437989706751 0.000254947956143235 0.000139738155052806 0.0081144384246084 0.00338995731554371 0.000305235552131696
"184" 0.000301164928898666 0.000496254945775627 0.000496769584035347 0.000402941982092052 0.000671298352578569 0.000478511974089218 1.25318147240744e-05 -0.00014598175147901 0.00041646815052639 0.000540343194000685 0.00052300776912731 0.000258044903146342 0.000143208518754174 0.00797488338992233 0.00350462186980277 0.000300986321598501
"185" 0.000295518541960062 0.00049658261352329 0.000493314774852525 0.000401825204542156 0.000668951048469704 0.000477776323237111 8.24095056112526e-06 -0.000141211941401968 0.000421041818639497 0.000527700413336228 0.00052354517561807 0.000260614053181229 0.000146727931381219 0.00783833913652739 0.00361581773781005 0.000296695879963354
"186" 0.000290168684064285 0.000497014480158264 0.000490000841712624 0.000400817425944174 0.000666568716088933 0.000476122103611046 4.00696045708923e-06 -0.000136668988811301 0.000424778143328067 0.000513721712096045 0.000524027682449361 0.000262663818780081 0.000150283462108788 0.00770470009281525 0.00372243531484586 0.000292376253192641
"187" 0.000285121960008568 0.000497501718952351 0.000486800980272626 0.000399945424278884 0.000664110431125533 0.000473568905160544 -1.58754149925801e-07 -0.000132340326637261 0.000427668841638403 0.000498465779784953 0.000524425717207594 0.000264204621012579 0.000153852727785676 0.00757385038232144 0.00382334688613903 0.000288033270651906
"188" 0.000280391114290632 0.00049799959565527 0.000483683960770745 0.000399225441865338 0.000661537936701964 0.000470135377794566 -4.25160150392544e-06 -0.00012821675666205 0.000429702462599595 0.000481998256752054 0.000524713414265011 0.000265254298230096 0.000157414925334347 0.00744565730742892 0.00391741340436917 0.000283673306990338
"189" 0.000275966685612701 0.000498461224677826 0.000480620773369529 0.000398671538719071 0.00065881727828119 0.000465850233545948 -8.26219837258855e-06 -0.000124290870696967 0.000430877326656178 0.000464400944726321 0.000524857935366555 0.000265818329437999 0.000160938215525252 0.00731999455814269 0.00400350525811982 0.000279302643787651
"190" 0.000271853901388251 0.000498845228464466 0.000477585990605254 0.000398294435102298 0.000655912973648172 0.000460744830426751 -1.21903575775653e-05 -0.000120550049133006 0.000431198858036977 0.000445767616548232 0.000524833830793624 0.00026591991907671 0.000164403312751778 0.00719671729093089 0.00408050192258782 0.000274925171917073
"191" 0.000268038708834093 0.000499107437823595 0.000474548768768162 0.000398099347464457 0.000652790973798746 0.000454852223798847 -1.60272983803027e-05 -0.000116985092952437 0.00043067265402564 0.000426203443844104 0.000524608852407411 0.00026556975371591 0.000167773048883974 0.00707569063447266 0.00414731238849264 0.000270545115383623
"192" 0.000264520051715746 0.000499211980718554 0.000471489301792393 0.000398083593244546 0.00064942506769074 0.000448212310633183 -1.97699904843411e-05 -0.000113584606482285 0.000429319257145306 0.000405819949175505 0.000524155205120352 0.000264792958670958 0.000171021055888052 0.00695676387947141 0.0042028775959712 0.000266165428098903
"193" 0.000261278830244091 0.000499117035497969 0.000468382565923583 0.000398244960067577 0.00064578418793642 0.000440866590348992 -2.34178374059633e-05 -0.00011033844926722 0.000427151822745986 0.000384739200498695 0.000523441664865948 0.000263602702772563 0.000174110519683185 0.00683980239961341 0.00424619030527307 0.000261782628117915
"194" 0.000258294128033968 0.000498791279797193 0.000465204936458474 0.000398576495692752 0.000641844463751593 0.000432861235713019 -2.69677876308932e-05 -0.000107230933892287 0.000424196922880742 0.000363087646734075 0.000522439923460444 0.000262020283977457 0.000177014547249126 0.00672466492421088 0.0042763182269645 0.000257400076690804
"195" 0.000255550411044248 0.000498199366115734 0.000461933163373943 0.000399062590524369 0.000637583244297839 0.00042424251421847 -3.04229762025298e-05 -0.000104256273988754 0.000420480850564591 0.000340996736344262 0.000521123516269171 0.000260064697264245 0.000179691689266964 0.00661122035367698 0.00429239701425696 0.00025301532210576
"196" 0.000253025898464918 0.000497316849463808 0.000458550470712975 0.000399688312335037 0.000632988283342962 0.000415061271711403 -3.3783910867382e-05 -0.000101396765354548 0.000416038460910882 0.000318604297765161 0.000519466026234548 0.00025775506906453 0.000182117814829998 0.00649933267580997 0.00429365934520111 0.000248626165975833
"197" 0.000250686904483424 0.000496114645993957 0.000455033102823658 0.000400433193755842 0.000628036552251473 0.000405366165446926 -3.70515431271622e-05 -9.86473037352818e-05 0.000410905364837527 0.000296044017898731 0.000517441478388329 0.000255110130972791 0.000184249835799959 0.00638888847292507 0.00427944277362191 0.000244229010379094
"198" 0.00024851029904772 0.000494573129278055 0.000451366416715582 0.000401272649920289 0.000622723753269674 0.000395213215503192 -4.02283378179678e-05 -9.5989232462831e-05 0.00040511966627843 0.000273454939552223 0.000515026959448526 0.000252156165006528 0.000186063493265872 0.00627975884393419 0.00424920186920116 0.000239820424154418
"199" 0.000246465002014107 0.000492669927051412 0.000447530568536037 0.00040218067705885 0.000617037188203701 0.000384649775198245 -4.33213925423036e-05 -9.34140698056539e-05 0.000398724418162939 0.000250966110620978 0.000512200688363879 0.000248903632654979 0.000187523187444756 0.00617184671709338 0.00420251763988897 0.000235391439526831
"200" 0.000244518003408439 0.000490393912297793 0.000443510335967471 0.000403131135299067 0.000610974717430503 0.000373734536997475 -4.633416509751e-05 -9.090806104644e-05 0.000391765044489723 0.000228710896359511 0.000508945976214815 0.000245379109984833 0.000188603544537189 0.00606504681085428 0.00413911955194619 0.000230941079402618
"201" 0.000242638401888627 0.000487731090613476 0.000439290774090524 0.000404091679935723 0.000604537701718664 0.000362519512102772 -4.92729111173964e-05 -8.84594885764799e-05 0.000384286784697634 0.000206815879915472 0.000505245326979627 0.000241595460110375 0.000189269921118028 0.00595927294207358 0.00405886876907466 0.000226459194561467
"202" 0.00024079183102283 0.000484673070083116 0.000434857949595635 0.000405031122110358 0.000597728072409657 0.000351056035252501 -5.2141668195207e-05 -8.60539337341832e-05 0.000376338518121773 0.000185397006335447 0.000501082803867782 0.000237575113986039 0.000189505370195909 0.00585443841927864 0.00396179431091404 0.000221941469564031
"203" 0.000238942373747442 0.00048121545200841 0.000430200034435685 0.000405914635772509 0.000590552143415874 0.000339399620358581 -5.49505870806864e-05 -8.36773070627786e-05 0.000367973943658315 0.000164568641401345 0.000496450932501923 0.00023333707068495 0.00018928763014485 0.00575047048878648 0.00384807365484981 0.000217383004603846
"204" 0.00023705979396809 0.000477358202923786 0.000425305148969834 0.000406711268429539 0.000583019995904638 0.000327602137417163 -5.77065051137325e-05 -8.13185569513355e-05 0.000359235993945566 0.00014443053912837 0.000491341579859984 0.000228895536224346 0.000188593739128312 0.00564731243893895 0.00371805624066937 0.000212772338132883
"205" 0.000235108140646029 0.000473101279733566 0.000420160570731526 0.00040738820257755 0.000575147161541999 0.000315716571641939 -6.04139900957753e-05 -7.89584475647486e-05 0.000350183680579676 0.000125075783742196 0.000485748897857916 0.00022426950218581 0.000187415638365001 0.00554490749026681 0.00357224146938775 0.000208108992562217
"206" 0.000233055468113893 0.000468450742709982 0.000414761034304927 0.000407912400801839 0.000566949707458043 0.00030379364131704 -6.30838051953946e-05 -7.65853010238609e-05 0.000340858649807085 0.000106586954226489 0.000479673244689454 0.000219476188657893 0.000185733985220182 0.00544321854410789 0.00341129548144697 0.000203382965069464
"207" 0.000230873650689258 0.000463412878728534 0.000409094407563015 0.000408251791997863 0.000558441685435902 0.000291879414852058 -6.57226193831815e-05 -7.41803257465592e-05 0.000331318188459236 8.90332319749275e-05 0.00047311338399184 0.000214533584186368 0.000183545908822571 0.00534221114347393 0.00323603128237831 0.000198586884908999
"208" 0.00022853200970747 0.000458000399274873 0.000403157033074489 0.000408379245393346 0.000549652779471858 0.000280025960217074 -6.83355242374391e-05 -7.1728500903118e-05 0.000321609332127281 7.24759758273307e-05 0.00046607931725335 0.00020945660395091 0.000180850438212006 0.00524185771961347 0.00304740513914558 0.000193721242614342
"209" 0.000226003573612937 0.000452227308975682 0.000396941354741873 0.000408268238577411 0.000540601314430366 0.000268278069327867 -7.09341745460759e-05 -6.92109733373073e-05 0.000311781915754911 5.69615100096608e-05 0.000458576454921711 0.000204266434352514 0.000177649545910528 0.00514214410617076 0.00284650822586343 0.000188777507521125
"210" 0.000223260114267472 0.000446107954475082 0.000390442731995907 0.000407889801699693 0.000531315562215781 0.000256682846598289 -7.35202824759497e-05 -6.66119508341754e-05 0.000301882874784754 4.25274821474989e-05 0.000450619026437624 0.000198975943263594 0.000173946338432383 0.00504307418915182 0.00263455050366369 0.000183752478940097
"211" 0.000220286995636037 0.000439660226296007 0.000383656489489898 0.000407223838148958 0.000521822918912525 0.00024528179986401 -7.61065412254472e-05 -6.39117198947759e-05 0.000291957881304765 2.91958030954571e-05 0.000442223727616396 0.000193601479984913 0.000169751517058547 0.00494464162045381 0.00241284988089063 0.000178647174522419
"212" 0.000217059943645685 0.000432905078053773 0.000376586497632218 0.000406256075282013 0.000512153275929837 0.00023411819146162 -7.86950485985161e-05 -6.10878666630974e-05 0.000282051472825526 1.69787922179556e-05 0.000433406001576229 0.000188163568540129 0.000165086227011202 0.004846863035728 0.00218282102565211 0.000173459570955628
"213" 0.000213564511991266 0.000425863583903584 0.000369226130919931 0.000404965640227248 0.000502337350137909 0.000223230802759579 -8.12890599588201e-05 -5.81199940800542e-05 0.000272209176185135 5.88214160256635e-06 0.000424193300126811 0.000182677904937956 0.000159964760736052 0.00474975446722705 0.00194595618390817 0.00016818670650741
"214" 0.000209792186889532 0.000418560766832204 0.000361580996150644 0.000403343993223203 0.000492406363568498 0.000212657655158458 -8.38947184740735e-05 -5.49933610390115e-05 0.00026246999124025 -4.10687132230262e-06 0.000414604247885813 0.000177161456879025 0.000154416846305142 0.00465333448537162 0.0017038082112372 0.000162836687121645
"215" 0.000205728466543427 0.000411020426883715 0.000353654078617274 0.000401384533540829 0.000482392937811396 0.000202434637634228 -8.65170451799831e-05 -5.16838367586771e-05 0.000252869729911874 -1.30023869780694e-05 0.000404673653662399 0.000171633195298592 0.000148465417568517 0.00455764712633631 0.00145797644402401 0.000157405375051014
"216" 0.000201373435890721 0.000403269290017367 0.000345447160912081 0.000399082879918204 0.000472326319622544 0.000192593902444207 -8.91562335437205e-05 -4.81675138827173e-05 0.000243449931231682 -2.08339488223396e-05 0.000394428007875778 0.000166111798316341 0.000142147151906589 0.00446271097343947 0.00121007956939013 0.000151901536701098
"217" 0.000196721360773393 0.000395332100609306 0.000336969188499109 0.000396441045089015 0.000462244543552127 0.000183169680513157 -9.18143248399638e-05 -4.44262749689934e-05 0.00023424259038805 -2.76348806533333e-05 0.0003839021653374 0.000160614622242247 0.000135501798132594 0.00436857453340089 0.000961752009470107 0.000146332415168486
"218" 0.000191775061413323 0.000387238511070895 0.000328225962034619 0.000393467142107279 0.000452176359855018 0.000174189801935648 -9.44925263606906e-05 -4.04403395083483e-05 0.000225277061453288 -3.34465575748883e-05 0.000373130278235693 0.000155163111917765 0.00012856094032203 0.00427528781458796 0.000714618181970949 0.000140702266309953
"219" 0.000186544454457349 0.000379012922770819 0.000319230034074747 0.000390165918467077 0.000442151500177754 0.000165679977351924 -9.7189519203228e-05 -3.61863673158353e-05 0.000216587264829577 -3.83185684250225e-05 0.000362154198646851 0.000149773720222644 0.000121378393209188 0.00418287930472822 0.000470276388999829 0.000135023309640106
"220" 0.000181035348364719 0.000370688822191471 0.000309992777816459 0.000386555285564605 0.000432201165655761 0.000157662554022037 -9.99030488267567e-05 -3.16485079960861e-05 0.000208200290945425 -4.23024869354732e-05 0.000351009881634957 0.000144471633330028 0.000113996521983389 0.00409140792881314 0.000230295255356115 0.000129304038012027
"221" 0.000175263435928776 0.000362287954903136 0.000300525939265284 0.000382651988922843 0.000422355768818506 0.000150165573375124 -0.000102632907176161 -2.68057140985145e-05 0.000200140361972065 -4.54530438298426e-05 0.000339738671442246 0.000139272452604954 0.000106464817439015 0.00400092020536569 -3.82110223920718e-06 0.000123560622042318
"222" 0.000169240627273094 0.000353840973028546 0.000290847631394658 0.000378476888352216 0.000412642788177363 0.000143203339993183 -0.00010537397565171 -2.16397233891522e-05 0.000192429600513936 -4.78318918454034e-05 0.000328382975319596 0.000134197724087546 9.88308534894672e-05 0.00391146706850069 -0.000230624077009717 0.000117803192098925
"223" 0.000162988842702296 0.000345374542568862 0.000280970737068971 0.000374057210074796 0.000403089456480498 0.000136792860880259 -0.000108121645941415 -1.61360896489799e-05 0.000185088965938251 -4.95013460975171e-05 0.000316986771567814 0.000129269887676628 9.11571889390185e-05 0.00382309575082477 -0.000448744597462672 0.000112046239530521
"224" 0.000156530948871444 0.000336917099254495 0.000270917335212022 0.000369417915489798 0.000393721475773206 0.000130949952759076 -0.000110868292538715 -1.02785568602662e-05 0.000178140270610168 -5.0523698516063e-05 0.000305592742804612 0.000124508676575314 8.348887936042e-05 0.00373585118094383 -0.000656896269423812 0.000106307854505955
"225" 0.000149886052796162 0.00032849285874607 0.000260704960318044 0.000364591205391827 0.000384555396484677 0.000125686716569005 -0.000113615229849452 -4.05757874730699e-06 0.000171596229645768 -5.09633149377573e-05 0.00029424125746399 0.000119935734769623 7.58838646312421e-05 0.00364978937593467 -0.00085388957014905 0.000100602858773231
"226" 0.000143088752435439 0.000320125156250768 0.000250360754603141 0.000359613164725745 0.000375616997734 0.000121007337415604 -0.000116349319678822 2.53901816813456e-06 0.000165473795291196 -5.08808132584363e-05 0.000282980796135629 0.000115568303652888 6.84017317942191e-05 0.00356494617095184 -0.00103863772342992 9.49507546028268e-05
"227" 0.00013616410862095 0.000311838037728387 0.000239902239367614 0.000354515445982592 0.000366921876206049 0.000116922250042857 -0.000119064777476867 9.51792773065185e-06 0.00015978461815695 -5.03415553100185e-05 0.00027185100577 0.000111431134871414 6.10933696655468e-05 0.00348136515815025 -0.00121016700025985 8.9369882610804e-05
"228" 0.000129138046558234 0.000303656879061395 0.000229357090985596 0.000349337675626343 0.000358487730306231 0.000113433698454194 -0.000121758446988976 1.68849132311938e-05 0.000154536360414992 -4.94055934198168e-05 0.000260893967614256 0.000107537543042924 5.40123422021114e-05 0.00339909459166116 -0.00136761004120727 8.38770729786349e-05
"229" 0.000122045509660984 0.000295600663047404 0.00021875082795655 0.000344118085860006 0.000350324770902345 0.000110541689838498 -0.000124415353533992 2.46379983855462e-05 0.000149742985348167 -4.81259416235575e-05 0.000250150776149184 0.000103911244567936 4.72150241441778e-05 0.00331815648057822 -0.00151021417179616 7.84938833628364e-05
"230" 0.000114924029457255 0.000287688896532379 0.000208113488134241 0.000338895676166685 0.000342444026062955 0.00010824124122072 -0.000127029780685354 3.27804864711137e-05 0.000145408703143273 -4.65616474446622e-05 0.000239664549996394 0.000100568568608587 4.07495750789334e-05 0.00323858739659462 -0.00163735524552183 7.32413852894274e-05
"231" 0.000107793988879203 0.000279942178333634 0.000197467466370658 0.000333710076494261 0.000334849579653083 0.000106530771344764 -0.000129596561030781 4.13018327864091e-05 0.000141534415741785 -4.47617249451471e-05 0.000229463538811652 9.752505561006e-05 3.46677518668886e-05 0.00316042406188846 -0.00174851801812522 6.81357821667954e-05
"232" 0.000100698952185652 0.000272375041399372 0.000186844663062756 0.000328597879075831 0.000327554253791055 0.000105402869309449 -0.00013210691985835 5.01979406200249e-05 0.00013812851564437 -4.2772936692521e-05 0.00021959236547114 9.47998165861725e-05 2.90142684791197e-05 0.00308367886896038 -0.00184331427357998 6.31979352933163e-05
"233" 9.36658900025899e-05 0.000265002558519109 0.000176273307281273 0.000323599235453222 0.000320552734089147 0.000104842964449264 -0.000134548420853765 5.9451192629603e-05 0.000135193412219146 -4.06388464277235e-05 0.000210079546147964 9.24030283271853e-05 2.38358565704831e-05 0.00300837394142904 -0.00192146657572602 5.84443998560409e-05
"234" 8.6726778618133e-05 0.000257838837360946 0.00016578609504281 0.00031875206619121 0.000313850169306237 0.000104839166396111 -0.000136922317081055 6.90476880103347e-05 0.000132721825799491 -3.83969558889464e-05 0.000200953926329494 9.03471425259072e-05 1.91713510528525e-05 0.00293453072423314 -0.00198281297212064 5.38959646536089e-05
"235" 7.99139217875944e-05 0.000250892949857178 0.000155406216851662 0.000314089877630228 0.000307438591342329 0.000105378565491287 -0.000139214081750226 7.89654111053115e-05 0.000130717473049398 -3.60846940334765e-05 0.000192246802077464 8.86426661864822e-05 1.50574535555311e-05 0.00286215598913371 -0.00202730986626581 4.95659231005158e-05
"236" 7.32570246667561e-05 0.000244179772076469 0.000145167840788915 0.000309647305743225 0.000301317751450099 0.000106436601619581 -0.000141418714259197 8.91821177262924e-05 0.000129174862645701 -3.37283779358442e-05 0.000183978539588672 8.73020792303555e-05 1.1529812906694e-05 0.00279125395190354 -0.00205501827863943 4.54762289692085e-05
"237" 6.67797783755699e-05 0.00023770410295112 0.000135099724903562 0.00030545403428536 0.00029547529500459 0.00010799913795236 -0.000143533780027443 9.9665335995217e-05 0.000128090552556407 -3.13520171332136e-05 0.000176172841385621 8.6326829410243e-05 8.61063722587862e-06 0.00272182498234095 -0.00206611306586532 4.16375821743961e-05
"238" 6.05097743694255e-05 0.000231471248846218 0.000125229043310903 0.000301539357048379 0.000289906489980037 0.000110038603827896 -0.000145552373557227 0.000110386871250834 0.000127458528838891 -2.89779235074244e-05 0.000168847309814073 8.57249265130819e-05 6.32919029702303e-06 0.00265386389723601 -0.00206085995680091 3.80641702094251e-05
"239" 5.44709319616588e-05 0.000225488174050349 0.000115582303497054 0.000297926948963903 0.000284591460319206 0.000112531459029092 -0.000147470695454823 0.000121307301162707 0.00012726677865567 -2.6622061329801e-05 0.000162013707393505 8.54979218789665e-05 4.69957598579976e-06 0.00258737098212311 -0.0020396352413672 3.47650904885529e-05
"240" 4.8684252343728e-05 0.000219754744262951 0.00010618734795118 0.000294640579639062 0.000279523977713515 0.000115447579202065 -0.000149285722448814 0.000132389317064997 0.000127508561669889 -2.42959299606158e-05 0.000155681913529335 8.56443512713691e-05 3.73920507927649e-06 0.00252233474207421 -0.00200290574375911 3.17547464134197e-05
"241" 4.31656819125301e-05 0.000214274676301028 9.70695487265589e-05 0.000291695541945955 0.000274680847788441 0.000118758739538977 -0.000150997889269703 0.000143588306566667 0.000128171330834787 -2.20065584815088e-05 0.000149862463383336 8.61583012554483e-05 3.4572623143486e-06 0.00245872850452025 -0.00195122913781347 2.90406027033711e-05
"242" 3.79368690429101e-05 0.00020904816087992 8.8253862804575e-05 0.000289107840373664 0.000270054241206631 0.000122433059851612 -0.000152606728690289 0.000154862647508746 0.000129245863911411 -1.97590595810913e-05 0.000144554151002546 8.70425215847949e-05 3.85665798475934e-06 0.00239654049579309 -0.00188524827237139 2.6626090652303e-05
"243" 3.30029345910654e-05 0.000204070796857529 7.97594062151391e-05 0.000286886903885576 0.000265616212683024 0.000126439662287916 -0.000154109727088569 0.000166163001619115 0.000130715810609693 -1.75559341996517e-05 0.000139761136190264 8.82816831276572e-05 4.94019834832367e-06 0.00233574156627344 -0.00180569237669794 2.45192134469919e-05
"244" 2.83736092023749e-05 0.000199338152760731 7.16090060596636e-05 0.000285040368222664 0.000261353387148472 0.000130741338734814 -0.000155511590555095 0.000177436188322601 0.000132563925037943 -1.53965600593281e-05 0.000135475024629176 8.98676846849594e-05 6.6949947911006e-06 0.00227631016386953 -0.00171335734653627 2.27169800468614e-05
"245" 2.40583991387282e-05 0.000194850472366407 6.38196653871775e-05 0.000283569699424735 0.00025724510380917 0.000135299564265016 -0.000156814516817343 0.00018863796470628 0.000134777618006406 -1.32741788889621e-05 0.000131689598760218 9.17912314174885e-05 9.11483705517357e-06 0.00221820876562286 -0.00160911183813419 2.12237943351398e-05
"246" 2.00613769550831e-05 0.000190595512752489 5.6406455529176e-05 0.000282471320020003 0.0002532667300193 0.000140081975557537 -0.000158024894101973 0.000199710582259848 0.000137336259115469 -1.11854181992419e-05 0.000128390979792648 9.40315107900373e-05 1.21831156356171e-05 0.00216140286731324 -0.00149388902949267 2.00335981939502e-05
"247" 1.63748042983444e-05 0.000186567406240518 4.93843679899755e-05 0.000281742605910674 0.000249400608257856 0.000145048111389142 -0.000159147048890899 0.000210604995249714 0.000140219865380399 -9.12356885843771e-06 0.000125567446761178 9.65730156461316e-05 1.58768208321112e-05 0.00210585622351231 -0.00136868018459996 1.91426849300357e-05
"248" 1.30038525628431e-05 0.000182757531393883 4.27623067239068e-05 0.000281369370228719 0.000245624174944271 0.000150157993341674 -0.00016018745176919 0.000221264615397567 0.000143407662409199 -7.08069021840113e-06 0.000123198144779701 9.93963650450346e-05 2.01720366474284e-05 0.00205152556002816 -0.00123453018868707 1.85456167745796e-05
"249" 9.93751943981997e-06 0.000179155890114149 3.65501935196986e-05 0.00028133970005198 0.000241915076734863 0.00015537494398472 -0.000161154838736121 0.000231640801820997 0.000146879434494155 -5.05024047431551e-06 0.000121263305391104 0.000102481932744097 2.5038461939091e-05 0.00199836791030344 -0.00109252622703821 1.82315819306302e-05
"250" 7.16564718756489e-06 0.000175752477149039 3.07515678499714e-05 0.000281637718373906 0.000238253561213406 0.000160655443342363 -0.000162059109425658 0.000241682280754535 0.000150607255621555 -3.02098055737872e-06 0.000119739501733992 0.000105802962629117 3.04446266914877e-05 0.00194633269892661 -0.000943797825215807 1.81906254102132e-05
"251" 4.67782134003115e-06 0.000172534392377391 2.53722939098496e-05 0.000282240395649985 0.000234620474450852 0.000165966539935348 -0.000162910848109267 0.000251339492545349 0.000154567061782792 -9.91531895267118e-07 0.000118599102025485 0.00010933540245942 3.63485276287871e-05 0.00189537360460955 -0.000789503496319998 1.84054042004514e-05
"252" 2.45670520777461e-06 0.000169488697908142 2.04109402152043e-05 0.000283125981168352 0.000230996712747595 0.000171262997811752 -0.000163717066939678 0.000260568126983233 0.000158734942578025 1.0513084219849e-06 0.000117814669095058 0.000113052418521974 4.27140831084321e-05 0.00184543343144589 -0.000630836378222186 1.88653169931951e-05
"253" 4.88515830838809e-07 0.000166603615896733 1.58650956972702e-05 0.000284266154923396 0.000227364931648286 0.000176510049930366 -0.000164495121649388 0.000269319868050434 0.000163079776060036 3.10824336305723e-06 0.000117352175078396 0.000116925702102203 4.9492106193961e-05 0.00179646120062433 -0.000468987419187125 1.95467097186463e-05
"254" -1.24665126270248e-06 0.000163861110220954 1.17274687522742e-05 0.000285628281352454 0.000223705192926518 0.00018166825325906 -0.00016525257651214 0.000277562469988201 0.000167572092028179 5.18235135751451e-06 0.00011718189331808 0.000120924757391525 5.66418976593072e-05 0.00174839930862098 -0.00030516921017158 2.04350098847403e-05
"255" -2.7746227070422e-06 0.000161250470995668 7.99156744385457e-06 0.000287185188122811 0.000220002368693385 0.000186701507126485 -0.000166006343705249 0.000285254745644534 0.000172181201431794 7.27259302513887e-06 0.000117266093742988 0.000125019074152374 6.41073381246624e-05 0.00170119705319911 -0.000140578592306231 2.15047940134419e-05
"256" -4.11084470606949e-06 0.000158757269247941 4.64607017124814e-06 0.0002889041539051 0.00021624299036628 0.000191577195916256 -0.000166764185547744 0.000292368425828165 0.000176878471572554 9.38028287044305e-06 0.000117573356910227 0.000129182036478129 7.18437206120563e-05 0.0016547814285745 2.35863129257358e-05 2.27397700498266e-05
"257" -5.2859120235027e-06 0.000156366626938706 1.67808481003513e-06 0.000290745409802327 0.000212415170991949 0.000196260500729278 -0.000167545456299146 0.000298878774363459 0.000181629546169086 1.15021140259577e-05 0.000118065134063603 0.000133378306649498 7.9793687595711e-05 0.00160910152257476 0.000186153868960363 2.41084063686334e-05
"258" -6.322825709806e-06 0.000154061179563714 -9.30241321244075e-07 0.000292676324367613 0.000208511819375068 0.00020071945403776 -0.000168360029613483 0.000304765280718773 0.000186399699399462 1.36257506416032e-05 0.000118703615050137 0.000137578425548573 8.79045556229483e-05 0.00156409965808637 0.000345982320456375 2.5588889399516e-05
"259" -7.25011170902978e-06 0.000151824370662045 -3.19261689790563e-06 0.000294658800714163 0.000204514224157334 0.000204923810385513 -0.000169223841228609 0.000310014863761003 0.00019115515687006 1.57473937398261e-05 0.000119452651471281 0.000141752229802584 9.61230579472452e-05 0.00151971198159501 0.000501969644755107 2.71551536885111e-05
"260" -8.0933976292943e-06 0.000149646673001966 -5.13438517535595e-06 0.000296656009428376 0.000200425419069803 0.000208852629619844 -0.000170146698053262 0.000314619275812379 0.000195862740494265 1.78500810137908e-05 0.000120273335184138 0.000145868757757352 0.00010439349183843 0.00147587915657031 0.000653063860041998 2.87812150535674e-05
"261" -8.87594070927061e-06 0.000147508992843505 -6.77675817998425e-06 0.000298632451504061 0.000196237518436378 0.000212480537214883 -0.000171143435203815 0.000318579875993546 0.000200486058498731 1.99213127964638e-05 0.000121133367989672 0.000149899661786336 0.000112663255701349 0.00143253548933885 0.000798268084712107 3.04364666846365e-05
"262" -9.62821480873966e-06 0.000145398592918988 -8.13736538819375e-06 0.000300550069628859 0.000191948655909501 0.000215785859776855 -0.000172221663775989 0.000321900511937717 0.000204988727275978 2.19420898673665e-05 0.000121991716507824 0.000153814812771556 0.000120875822605039 0.00138963057208403 0.000936652782854734 3.20965693193217e-05
"263" -1.0372894757785e-05 0.000143300943505074 -9.24874013258102e-06 0.000302375029732053 0.000187557086563898 0.000218751083267922 -0.000173400414809825 0.000324595016494607 0.000209336057163967 2.38921011192958e-05 0.00012281684072065 0.000157591177223183 0.000128983341074061 0.00134710056782253 0.00106736289415471 3.37338477221398e-05
"264" -1.11355542905032e-05 0.000141203613766197 -1.01346062588558e-05 0.000304074639832383 0.000183061800840447 0.0002213644928899 -0.000174680419985995 0.000326683493357189 0.000213495118052062 2.5749096209733e-05 0.00012357426040519 0.000161199235507725 0.000136929153803022 0.00130488774474716 0.00118963387877637 3.5317244105404e-05
"265" -1.19441797460052e-05 0.000139092892301508 -1.08212932984845e-05 0.00030561642447614 0.000178468675576597 0.000223612534886238 -0.00017607518675636 0.000328193071783867 0.000217424132856937 2.74876382369633e-05 0.000124230963462532 0.000164618755699709 0.000144670008473883 0.00126293984869164 0.00130278611576955 3.6824753126361e-05
"266" -1.28163438579743e-05 0.000136956187124857 -1.13363130745992e-05 0.000306967949109855 0.000173786119055563 0.000225492616555939 -0.000177591630551143 0.000329152591964874 0.000221091563797453 2.90833577064253e-05 0.00012475671613641 0.000167826192017415 0.000152155421733224 0.00122120915481007 0.00140623933378225 3.82272458098864e-05
"267" -1.37742825592236e-05 0.000134782893431825 -1.17108444745952e-05 0.000308104237387554 0.00016901093940295 0.000226997210809116 -0.00017923733572263 0.000329601249288765 0.000224465008549452 3.05074574726761e-05 0.000125124568256996 0.000170803546762666 0.000159338977164393 0.00117964119513548 0.00149951385081548 3.9498626940168e-05
"268" -1.483844456027e-05 0.00013256145333356 -1.19727223571603e-05 0.000308999535084596 0.000164163264969006 0.000228126820199364 -0.000181018377720783 0.000329586924631403 0.0002275103604429 3.17335858281499e-05 0.000125309628316361 0.000173533968220498 0.000166182503840506 0.00113819027474608 0.00158223779004338 4.06165808302866e-05
"269" -1.60208383266833e-05 0.000130283051223338 -1.21511186942782e-05 0.000309633393996349 0.000159244140386526 0.000228891090415452 -0.000182929945479947 0.000329156435274917 0.00023019615184876 3.27343366410962e-05 0.000125287434898104 0.000176004058000154 0.000172649867746142 0.00109681163627148 0.00165414182247638 4.15612820850493e-05
"270" -1.7338424564769e-05 0.000127938831551183 -1.22725665266413e-05 0.000309984709573135 0.000154270117161807 0.00022928890976404 -0.00018498249945942 0.000328366839926131 0.000232492090747359 3.34813333290864e-05 0.000125035430171329 0.000178199750409701 0.000178700131271952 0.00105546947113901 0.00171506974379712 4.23050346943002e-05
"271" -1.88059257404474e-05 0.000125518229377666 -1.23692519216801e-05 0.000310037771902903 0.000149250403982019 0.000229336066045323 -0.000187171010296185 0.000327272241978731 0.00023437311369655 3.39474644413992e-05 0.000124538184120976 0.000180112575967933 0.000184308771370533 0.00101412703584858 0.00176496500245872 4.28326048497313e-05
"272" -2.04291120621825e-05 0.000123018314698807 -1.24677328851382e-05 0.000309781955939168 0.000144199988871338 0.000229046211020698 -0.000189494751992589 0.000325937784446292 0.000235809735554487 3.41083107253798e-05 0.000123779974471709 0.000181737173093312 0.000189442978384198 0.000972753011611553 0.00180387645224392 4.31268329033634e-05
"273" -2.22146326615284e-05 0.000120430133756559 -1.25923574237392e-05 0.000309206974832275 0.000139133846292856 0.000228434682661499 -0.000191951002633879 0.000324427581993897 0.000236781879742168 3.39389329655192e-05 0.000122749573300582 0.00018307091742865 0.00019408431133765 0.000931316212096629 0.00183195360080159 4.31738074258313e-05
"274" -2.41672848466955e-05 0.000117747918591302 -1.27709084688093e-05 0.000308307846626562 0.000134065813746871 0.00022752343036443 -0.000194533891360868 0.000322807909144294 0.000237265420545875 3.34174896908763e-05 0.000121436671014731 0.000184108617990704 0.000198209557246705 0.000889801433577008 0.00184943645672478 4.29565714600447e-05
"275" -2.62875627877851e-05 0.000114970889820836 -1.30249295074456e-05 0.000307084556161826 0.000129012423480827 0.000226332559269107 -0.000197233741682185 0.000321146220849446 0.000237245608423219 3.25260655281227e-05 0.000119835923413675 0.00018485663197401 0.000201805185262491 0.000848180011111448 0.00185664954739367 4.24673741546504e-05
"276" -2.85749672470338e-05 0.000112094048042044 -1.33793907557537e-05 0.000305536920595519 0.000123988810420354 0.000224887888025224 -0.000200045204208593 0.0003195097389238 0.000236710101583458 3.12463136746133e-05 0.00011794582763057 0.000185315920971649 0.000204864251578803 0.000806441522244389 0.00185399376342226 4.16977560705419e-05
"277" -3.1024616026335e-05 0.000109118231465034 -1.38565017297951e-05 0.000303670771829791 0.000119007113199288 0.000223218301002868 -0.000202955355669113 0.000317966153871588 0.00023564363760962 2.95679161221779e-05 0.000115764539188516 0.000185495445602068 0.000207375579704802 0.000764574977710046 0.00184193344321649 4.06439938468539e-05
"278" -3.36270491588687e-05 0.000106038772724706 -1.4469840055737e-05 0.000301494064089964 0.000114089589767169 0.000221349355728728 -0.000205953105933489 0.000316579624445313 0.000234039935876767 2.74807112585266e-05 0.000113295709685225 0.000185402337154671 0.0002093399073914 0.000722574953993685 0.00182100413214143 3.93030724660385e-05
"279" -3.63746676222416e-05 0.000102859508687505 -1.52415663520746e-05 0.000299018518074399 0.000109250266478535 0.00021931205165787 -0.000209025831572656 0.00031541541951657 0.000231899908572619 2.49798035072473e-05 0.000110547003592406 0.000185049845447661 0.000210762701699788 0.000680436282670591 0.00179177789503437 3.7672481281031e-05
"280" -3.92586146428354e-05 9.95822693080692e-05 -1.61829172930112e-05 0.000296258150694999 0.000104502495999128 0.000217134977072395 -0.000212155675288025 0.000314532038458757 0.000229217058921817 2.2064545181729e-05 0.00010752538041072 0.000184450161027395 0.000211646618199895 0.000638166900884068 0.00175487185602388 3.57591982715919e-05
"281" -4.22570087574462e-05 9.62064596299045e-05 -1.73096888439159e-05 0.000293231323734431 9.98594719669333e-05 0.000214854106358546 -0.0002153265864639 0.000313985111492464 0.000226003177900255 1.87374744478439e-05 0.000104245887204082 0.000183617962855411 0.000212002525495354 0.000595762805491282 0.00171093134517927 3.35664241817564e-05
"282" -4.53596035222671e-05 9.27367186721807e-05 -1.86276606361858e-05 0.000289953309047729 9.53366244140169e-05 0.000212493740234224 -0.000218525153778268 0.000313824807597463 0.00022226192772952 1.50064817505791e-05 0.000100718905351262 0.000182568696088509 0.00021184905231997 0.000553240101548436 0.00166061390547116 3.11009185436661e-05
"283" -4.854870484155e-05 8.91782715298729e-05 -2.01513074722834e-05 0.000286451720203119 9.09460747706495e-05 0.000210090525326198 -0.000221732272738577 0.000314095832029467 0.00021800689769503 1.08808148584939e-05 9.69613213132437e-05 0.000181321969266333 0.000211199042358486 0.000510607835432201 0.00160458369538059 2.83755760147514e-05
"284" -5.18010811819726e-05 8.55351040203025e-05 -2.18811089151621e-05 0.00028274644957321 8.66988166223911e-05 0.000207669927909544 -0.000224925168775824 0.000314836320182495 0.000213256005752396 6.38121837248321e-06 9.29933408358538e-05 0.000179896072161436 0.000210078122171726 0.000467881230015938 0.00154350207823417 2.54042942817913e-05
"285" -5.50962117839816e-05 8.18156019118802e-05 -2.38188835451623e-05 0.000278862499398165 8.26035622687788e-05 0.000205263676223566 -0.000228089061928354 0.000316080958546047 0.000208031531820453 1.52582332141751e-06 8.88366303183645e-05 0.00017830961933312 0.000208512840271099 0.000425069780635908 0.00147801615749042 2.22030611799146e-05
"286" -5.84174863501938e-05 7.80241492081557e-05 -2.59722885438437e-05 0.000274825829428993 7.86693559705549e-05 0.000202893940420139 -0.00023120295928904 0.000317847874469708 0.000202355154993289 -3.66434029808619e-06 8.45080372218927e-05 0.000176582523047181 0.000206525221445782 0.000382203909724392 0.00140875526411973 1.87853360782503e-05
"287" -6.17332177696464e-05 7.41702868236213e-05 -2.83363962554182e-05 0.000270663629658182 7.49055830545037e-05 0.000200589239151795 -0.000234245616751198 0.000320154136332584 0.000196260602745288 -9.15483237594126e-06 8.00348297302196e-05 0.000174737286610927 0.000204154608268611 0.000339295815966195 0.00133631395546371 1.5177915405415e-05
"288" -6.50258802142861e-05 7.02585425160731e-05 -3.09084338805065e-05 0.000266403927548222 7.13150140326511e-05 0.000198372380732874 -0.000237198606493436 0.000323009401584131 0.0001897763297128 -1.49191123096925e-05 7.5441077402696e-05 0.000172792216759306 0.000201426898271757 0.000296368479838151 0.00126125849396794 1.13977312478588e-05
"289" -6.82702268096693e-05 6.63027350240772e-05 -3.3680754525012e-05 0.00026207349900812 6.7905066392866e-05 0.000196259760363049 -0.000240042778089438 0.000326408101036518 0.000182940110107685 -2.09213807119464e-05 7.07491759962619e-05 0.000170766650983964 0.000198383769459153 0.000253445090102578 0.00118410473429787 7.4691189369383e-06
"290" -7.14436780264123e-05 6.23066180560926e-05 -3.66491845432577e-05 0.000257697856510853 6.46753213812202e-05 0.000194270394089016 -0.000242755970515289 0.000330337028902264 0.000175792891342622 -2.71244612623046e-05 6.59882613893556e-05 0.000168682555032937 0.000195056009835211 0.000210549987092861 0.00110532714953741 3.41887829789599e-06
"291" -7.45192231347995e-05 5.82840374965505e-05 -3.98032988577049e-05 0.000253303368591569 6.1627494555013e-05 0.000192416391016754 -0.000245325346672363 0.000334778759000309 0.000168375040642906 -3.34880367863922e-05 6.11836123728796e-05 0.000166555442322162 0.000191487762416212 0.000167701947132913 0.00102534898500687 -7.27129601812912e-07
"292" -7.7475213803006e-05 5.4240925267792e-05 -4.31327895734013e-05 0.00024892031049983 5.87586524198304e-05 0.000190707427000963 -0.000247728081173047 0.000339700942916461 0.000160733063787046 -3.99732958202796e-05 5.63628358459614e-05 0.000164405819582531 0.000187718974531819 0.000124922700748611 0.000944547854247605 -4.94332176160125e-06
"293" -8.02936700961863e-05 5.01901018199134e-05 -4.66239708575926e-05 0.000244569711258743 5.60685037395918e-05 0.000189151204539631 -0.000249953984177431 0.000345066660547184 0.000152912655337495 -4.65399732755746e-05 5.15482867517872e-05 0.000162247869079816 0.00018378872650914 8.22430608665612e-05 0.00086324454957053 -9.20083918611556e-06
"294" -8.2950218045662e-05 4.61396988113105e-05 -5.02633359730869e-05 0.000240273214519436 5.3548631084744e-05 0.000187746511734126 -0.000251978214950493 0.000350825241058794 0.00014496281066832 -5.31418990414759e-05 4.67694520862275e-05 0.000160099872395881 0.000179735497546312 3.96750229517117e-05 0.000781712497104404 -1.3467419546406e-05
"295" -8.54200671862448e-05 4.20993217214624e-05 -5.40350840743609e-05 0.000236053140914009 5.11946909610393e-05 0.000186493799558958 -0.000253794522801125 0.000356923025002107 0.000136938068584543 -5.9740904484722e-05 4.20478724681745e-05 0.000157972390678681 0.000175605839943432 -2.75738056779323e-06 0.000700169128209415 -1.77182960576322e-05
"296" -8.769596291017e-05 3.80786494424046e-05 -5.79276964923778e-05 0.000231929137437462 4.90007361291553e-05 0.0001853847612814 -0.000255388400424293 0.000363290498956161 0.000128884920003768 -6.62931368116296e-05 3.74078554923966e-05 0.000155876985069367 0.00017143777043649 -4.50339559245701e-05 0.000618787209075323 -2.19233307179198e-05
"297" -8.97518079851843e-05 3.40890957402314e-05 -6.19194310742897e-05 0.000227919054178341 4.69590948618319e-05 0.000184414791915756 -0.000256749361213573 0.000369858683802916 0.000120863052097106 -7.27608093894217e-05 3.28760668287172e-05 0.000153828549456619 0.000167276808668549 -8.71476225544963e-05 0.000537689533256728 -2.60496440715037e-05
"298" -9.15785860382723e-05 3.01391481307153e-05 -6.59948492367215e-05 0.000224035522630508 4.50504157729774e-05 0.000183564786606201 -0.000257866786626812 0.000376548634870361 0.000112915232982727 -7.91072654266637e-05 2.84669496604789e-05 0.000151831493293218 0.000163152347512698 -0.000129069491250407 0.000456958289987966 -3.00752994685178e-05
"299" -9.31613023596516e-05 2.62363695770826e-05 -7.01336751407078e-05 0.000220291699686408 4.32719169370125e-05 0.000182818109384328 -0.00025873308473986 0.000383272902268083 0.000105100630634513 -8.52990075668195e-05 2.42040330127177e-05 0.000149892238610482 0.000159114621454423 -0.000170798258722078 0.000376629340349721 -3.39684864116805e-05
"300" -9.44879741899639e-05 2.23889890966262e-05 -7.43219651774665e-05 0.000216697978028568 4.16068616248836e-05 0.000182155200850508 -0.000259345698846376 0.000389943614213449 9.74686851863016e-05 -9.13005203473412e-05 2.01029431079537e-05 0.000148016962010598 0.000155193467934542 -0.000212318107898032 0.000296710786165766 -3.77036227782563e-05
"301" -9.55528364173279e-05 1.86065624612476e-05 -7.85400202151103e-05 0.000213259672607462 4.00422263858375e-05 0.000181550043627806 -0.000259698248987693 0.000396464408156206 9.00695793061676e-05 -9.70893971892295e-05 1.61798597193781e-05 0.000146206635718284 0.000151427017393706 -0.000253622233250314 0.000217182165872888 -4.12530841909285e-05
"302" -9.63466848568948e-05 1.48946295285168e-05 -8.27692176454573e-05 0.000209980598302172 3.85593993912957e-05 0.000180974056318463 -0.000259789605851389 0.000402737364899288 8.29503396438565e-05 -0.000102641373884181 1.24483091437133e-05 0.000144463762299345 0.000147847759680556 -0.000294702430360081 0.000138001267652443 -4.45974229673903e-05
"303" -9.68709298968007e-05 1.12601245978158e-05 -8.69932763962471e-05 0.00020686336069203 3.71476807043281e-05 0.000180396640025416 -0.000259624038956027 0.000408664424141101 7.61548611088889e-05 -0.000107939442301795 8.91754310173295e-06 0.000142783970678557 0.000144483900348825 -0.000335554412964502 5.9101429066596e-05 -4.7710154436236e-05
"304" -9.71178643209077e-05 7.70986563281301e-06 -9.11969605894256e-05 0.000203905985983948 3.57883076111212e-05 0.000179783866660472 -0.000259199576921342 0.000414143892657353 6.9731124820317e-05 -0.000112968610328378 5.59914505891951e-06 0.000141165431194324 0.000141369767159561 -0.000376179561800514 -1.95906024155077e-05 -5.05726745633853e-05
"305" -9.70954268244322e-05 4.24544373887148e-06 -9.5360002466682e-05 0.000201105328524748 3.44607627379849e-05 0.000179099223252161 -0.000258523805816659 0.000419074114784198 6.37129723956285e-05 -0.00011772454457295 2.49602610719838e-06 0.000139602829302021 0.000138526506699466 -0.000416570582193302 -9.81550151037891e-05 -5.31654349907746e-05
"306" -9.68012903745588e-05 8.75183938936392e-07 -9.94706366325874e-05 0.00019845203326571 3.31544175431837e-05 0.00017830410394712 -0.000257602127820112 0.000423355370448068 5.81413460594369e-05 -0.000122200192202943 -3.8481582257479e-07 0.000138091786423549 0.000135979352440626 -0.000456737932328071 -0.000176667878409841 -5.54730495228537e-05
"307" -9.62475902295281e-05 -2.40137406014991e-06 -0.000103514383567618 0.000195942007585043 3.18503935132045e-05 0.000177360210767307 -0.000256445548742169 0.00042689514364163 5.30466004498054e-05 -0.000126406496871815 -3.04720621696772e-06 0.000136620228165021 0.000133747271941931 -0.000496674637720017 -0.000255198914586524 -5.74821797170472e-05
"308" -9.54413881293325e-05 -5.58213914811501e-06 -0.000107478576226841 0.00019356049836994 3.05302237453641e-05 0.000176224574875954 -0.00025506340449828 0.000429597448051316 4.84547619896931e-05 -0.000130348429155148 -5.4881449519348e-06 0.000135180819418854 0.000131842454855777 -0.00053639349498137 -0.000333804499666792 -5.91804561877144e-05
"309" -9.43857169034124e-05 -8.66389527869979e-06 -0.000111349074273713 0.000191292941898828 2.91776773877999e-05 0.000174858722991869 -0.000253462459286672 0.000431376732901074 4.43939637497601e-05 -0.000134042500978892 -7.71302507241542e-06 0.000133762992525439 0.000130286399647258 -0.000575899500853096 -0.000412521935665659 -6.0558008726481e-05
"310" -9.31015884465177e-05 -1.16489792030312e-05 -0.000115119822897854 0.000189130267657532 2.77771052623233e-05 0.000173218107415684 -0.000251665196502933 0.000432149387644158 4.08754478533727e-05 -0.000137511445269859 -9.72972279447601e-06 0.000132352999720703 0.000129083320439482 -0.000615192662591909 -0.000491365522236207 -6.16118051027592e-05
"311" -9.15982045797633e-05 -1.45366057899774e-05 -0.000118780261609561 0.000187049867118066 2.63128474655108e-05 0.000171262193847471 -0.000249683770712899 0.000431847875721462 3.79171946857516e-05 -0.000140777796197835 -1.1546308361669e-05 0.000130939808009422 0.000128239231214698 -0.000654289417293994 -0.000570321456482014 -6.2335395242968e-05
"312" -8.98900913670411e-05 -1.73312245552583e-05 -0.000122322662753266 0.00018503751256375 2.47713683852357e-05 0.000168949952408679 -0.000247532355423727 0.000430403303861376 3.55266471134927e-05 -0.000143874185485517 -1.31719790241842e-05 0.000129509966924321 0.000127759788009383 -0.000693191621744503 -0.000649341904140819 -6.27294778732078e-05
"313" -8.8000668445566e-05 -2.00337192070307e-05 -0.000125742831118586 0.000183071872019065 2.31331582282525e-05 0.000166241051482561 -0.000245231292823489 0.000427759132128905 3.37067650233332e-05 -0.000146835278938402 -1.4622489734504e-05 0.000128049200113394 0.000127640384484458 -0.000731905830391106 -0.000728348394334875 -6.27958885800718e-05
"314" -8.59440726313337e-05 -2.26471990296308e-05 -0.000129035918846901 0.000181134438910376 2.13924448683535e-05 0.000163101208070764 -0.00024279688737918 0.000423876166208828 3.24527276945911e-05 -0.000149697196669274 -1.59119279765121e-05 0.000126544178190592 0.000127883022186701 -0.000770445027192003 -0.000807232692265543 -6.25396833864647e-05
"315" -8.37423177736978e-05 -2.51794511332924e-05 -0.000132201790623007 0.000179203284588807 1.95290561533388e-05 0.000159492439104612 -0.000240253332909005 0.000418717542844457 3.17565878564586e-05 -0.000152506720069226 -1.70572898955817e-05 0.000124979370290799 0.000128473104750886 -0.000808810594119505 -0.000885837724769486 -6.19695053300409e-05
"316" -8.14170759131209e-05 -2.76347149280153e-05 -0.000135237548007727 0.0001772599680248 1.75384295486487e-05 0.000155379001869081 -0.000237613385895852 0.000412261610724691 3.16058898359043e-05 -0.000155301643040459 -1.8075964162107e-05 0.000123343432363661 0.000129407435602175 -0.000847013190273844 -0.000963973007589619 -6.10924079683976e-05
"317" -7.89894567903934e-05 -3.00200724086458e-05 -0.000138146673067651 0.000175281797436399 1.54085810947604e-05 0.000150735495482139 -0.000234905026370216 0.000404501225794898 3.19822366428033e-05 -0.000158132250265393 -1.89898419875571e-05 0.000121620668314104 0.000130665281239887 -0.000885050988264401 -0.00104140698549874 -5.99223949813315e-05
"318" -7.64792943804152e-05 -3.23439651157944e-05 -0.000140932538483258 0.000173248724635971 1.3133057942504e-05 0.000145535201723983 -0.000232144389686856 0.00039543740989247 3.28590275760442e-05 -0.000161044577938202 -1.98198913720977e-05 0.000119797727921996 0.000132233710745055 -0.000922928011872063 -0.00111786880544947 -5.8476497698686e-05
"319" -7.39088856710882e-05 -3.46131757268909e-05 -0.000143595538330657 0.00017114033869133 1.07039581559453e-05 0.000139755011048763 -0.000229354951182781 0.000385089820709076 3.42125245420802e-05 -0.000164083320551424 -2.05855853415304e-05 0.000117864718387652 0.000134091967252199 -0.000960651896615255 -0.00119305902630203 -5.67689191498388e-05
"320" -7.13025355307404e-05 -3.68358857379457e-05 -0.000146142562231381 0.00016894050214401 8.11758491119389e-06 0.000133378550959661 -0.000226551481630979 0.000373486753918837 3.60029210605763e-05 -0.000167296236127455 -2.13148414559068e-05 0.000115809420668892 0.000136217116461128 -0.000998212215366872 -0.00126664129901205 -5.48212762146714e-05
"321" -6.86828545364222e-05 -3.90214071007464e-05 -0.00014858470526711 0.000166629943515654 5.36699717488017e-06 0.000126390206991677 -0.000223761748788713 0.000360669477977375 3.81988590657461e-05 -0.000170729165192208 -2.20272410050192e-05 0.000113621800866777 0.000138583362858199 -0.00103560837851626 -0.00133824626747499 -5.26540434167021e-05
"322" -6.60728201317163e-05 -4.11814523410308e-05 -0.000150924690283442 0.000164188211357827 2.45078591831664e-06 0.000118781460122116 -0.000221000938218926 0.000346694333362602 4.07534059699375e-05 -0.00017442500831049 -2.27464294493201e-05 0.000111292522436447 0.00014116573937271 -0.00107282853001687 -0.00140748555694316 -5.02921443310324e-05
"323" -6.34901590863988e-05 -4.33250517747851e-05 -0.000153174018564583 0.000161606364008788 -6.25795635118772e-07 0.000110553061484177 -0.000218286198891326 0.00033163008413254 4.36284775146487e-05 -0.000178421819105213 -2.34963147147289e-05 0.000108813512992831 0.000143932333626939 -0.00110987233817488 -0.00147394502863549 -4.77574496154425e-05
"324" -6.09588535079527e-05 -4.54609752971308e-05 -0.000155344985004763 0.000158867936170178 -3.87044143467815e-06 0.000101706464229025 -0.00021563703754596 0.000315551573788509 4.67677480537157e-05 -0.000182757929245064 -2.4301121417653e-05 0.000106179204392139 0.000146848639951657 -0.00114671532253465 -0.00153718638210715 -4.50795664278578e-05
"325" -5.84936258292936e-05 -4.76021996031866e-05 -0.000157446217540804 0.0001559608826971 -7.27536392047001e-06 9.22490170448723e-05 -0.000213069170656382 0.000298553906677352 5.01272205127117e-05 -0.000187465205761872 -2.51843549263837e-05 0.000103383812618437 0.000149888281901051 -0.00118334675388051 -0.00159677007076278 -4.22814136804563e-05
"326" -5.61183037222789e-05 -4.97560145945929e-05 -0.000159489649971213 0.000152878007855959 -1.083642316598e-05 8.21932351747725e-05 -0.000210596384467356 0.000280733062132515 5.36520753569829e-05 -0.000192568398193979 -2.61656006724099e-05 0.000100423949892893 0.000153013439095987 -0.00121974644266244 -0.0016522477807829 -3.9393755906289e-05
"327" -5.38436557257733e-05 -5.1933114959546e-05 -0.000161487033380351 0.000149610623633125 -1.45490297710888e-05 7.15628536320517e-05 -0.000208233732704256 0.000262200545716942 5.72897507458783e-05 -0.000198091334278009 -2.72668243505071e-05 9.73001119487549e-05 0.000156188356026872 -0.00125589144872238 -0.00170316438396238 -3.64464158397381e-05
"328" -5.16899623975953e-05 -5.41459992229081e-05 -0.000163453234875053 0.000146155188251389 -1.84070560983922e-05 6.03798131784552e-05 -0.000205990673896027 0.000243075705903138 6.09883357482233e-05 -0.000204047931625922 -2.85054564239633e-05 9.40109896434692e-05 0.000159379675442748 -0.00129175938798756 -0.00174907684897821 -3.34638462643647e-05
"329" -4.9669635522866e-05 -5.64006845482378e-05 -0.0001654001768065 0.000142507405963521 -2.24030139379797e-05 4.86776137285398e-05 -0.000203879570936382 0.000223476959223607 6.46852434319981e-05 -0.000210446081359188 -2.9904581306745e-05 9.05561884232438e-05 0.000162546472809285 -0.00132731112360259 -0.00178954552643752 -3.04829362213065e-05
"330" -4.77960041991604e-05 -5.87082632558048e-05 -0.000167336787284584 0.000138668792939748 -2.65248299325247e-05 3.64889836062457e-05 -0.000201905412318275 0.000203540971430009 6.83331039577626e-05 -0.000217286705918742 -3.14768967721997e-05 8.69407624188057e-05 0.000165653816260307 -0.00136252154813103 -0.00182415638534082 -2.75261803622356e-05
"331" -4.6078837620837e-05 -6.10775114237731e-05 -0.000169280513903786 0.000134638696266554 -3.07652360735295e-05 2.38566226759042e-05 -0.000200079689376308 0.000183397423666397 7.18767176897705e-05 -0.000224562452263034 -3.32384830981281e-05 8.31699357239254e-05 0.000168668039704072 -0.00139735485687342 -0.00185250899187676 -2.46240999616457e-05
"332" -4.45256924147442e-05 -6.35169526239954e-05 -0.000171241793017021 0.000130423117743833 -3.51118734699406e-05 1.08264935881048e-05 -0.000198400678395527 0.000163186525014591 7.5259281254365e-05 -0.000232259594348669 -3.52012580194963e-05 7.92465555495718e-05 0.000171551447749048 -0.00143177036484727 -0.00187423745673347 -2.18059398447382e-05
"333" -4.31457292870558e-05 -6.60312206127224e-05 -0.000173231651027162 0.000126027486191419 -3.95514622120055e-05 -2.55239214683573e-06 -0.000196873110633101 0.000143045247711822 7.8436554799966e-05 -0.000240356473163583 -3.73741992718001e-05 7.51813070839265e-05 0.000174266810459382 -0.00146573455925859 -0.00188901226792176 -1.90989743569338e-05
"334" -4.19439784201273e-05 -6.86294072753351e-05 -0.00017526293938609 0.000121461077878843 -4.40708785384069e-05 -1.62263036090213e-05 -0.000195500181118483 0.000123116968286337 8.13584020253603e-05 -0.000248820778347806 -3.97670219852372e-05 7.09802474264483e-05 0.000176782789299046 -0.00149920208656946 -0.00189653275638114 -1.65302849224448e-05
"335" -4.09226131050258e-05 -7.13149204414427e-05 -0.000177345697439995 0.000116731656720987 -4.86561982580018e-05 -3.01374851113307e-05 -0.000194274379583712 0.000103538421830816 8.39789748331942e-05 -0.000257615476798903 -4.23849976461541e-05 6.66554539450303e-05 0.000179062728913011 -0.00153213519750889 -0.00189655503890813 -1.41215149370051e-05
"336" -4.00817048404873e-05 -7.40935008735998e-05 -0.000179488272770315 0.00011185678939743 -5.32929662035765e-05 -4.42258821882679e-05 -0.000193199861188764 8.44442230442217e-05 8.62586260471349e-05 -0.000266695983479596 -4.52327682699461e-05 6.22171239304679e-05 0.000181079595916641 -0.00156448530475758 -0.00188887348964071 -1.1898259280532e-05
"337" -3.94256798946475e-05 -7.69666259964246e-05 -0.000181700213593015 0.000106845449198888 -5.79701871596008e-05 -5.84305796363218e-05 -0.000192263287730586 6.59712674926259e-05 8.81606814225954e-05 -0.000276005703275786 -4.8307730681637e-05 5.76764586459517e-05 0.000182800892610921 -0.00159621699088863 -0.0018733538178911 -9.88315358219829e-06
"338" -3.89472087784665e-05 -7.99383870584642e-05 -0.000183987341575166 0.000101715427477272 -6.26661337005117e-05 -7.26848041673296e-05 -0.000191464090143034 4.82438000635902e-05 8.96507299849483e-05 -0.00028548854124452 -5.16109267057223e-05 5.30478343002082e-05 0.000184200535325531 -0.00162728191828513 -0.00184990590849816 -8.09350508839891e-06
"339" -3.86504222442921e-05 -8.30112915193516e-05 -0.000186360076781449 9.64830986367885e-05 -6.73731623655434e-05 -8.692746774547e-05 -0.000190787954310753 3.13832372071095e-05 9.06992015102418e-05 -0.000295075941601471 -5.51351931336039e-05 4.8341927812216e-05 0.000185252357011065 -0.00165763706824659 -0.00181850446532756 -6.54973442755465e-06
"340" -3.85239151125167e-05 -8.61812781778459e-05 -0.000188820332338065 9.11646100306e-05 -7.2070347038203e-05 -0.000101086749863721 -0.00019023101541313 1.5504790619766e-05 9.12897671672892e-05 -0.000304694855062039 -5.88765550892041e-05 4.35754706194072e-05 0.000185933983352614 -0.00168725262042628 -0.00177920206068386 -5.2651757564386e-06
"341" -3.85642224586075e-05 -8.94544325046317e-05 -0.000191373912306227 8.57799792398492e-05 -7.67447455652232e-05 -0.000115105088885355 -0.000189778248986764 7.15379165873797e-07 9.13963022264199e-05 -0.000314271215501412 -6.28252574323419e-05 3.87608629067042e-05 0.000186224958956509 -0.00171607894887002 -0.0017321058881497 -4.25682811197709e-06
"342" -3.87671784450519e-05 -9.28229466124565e-05 -0.000194022155707334 8.03482892057933e-05 -8.13817477352898e-05 -0.000128912466567828 -0.000189413980922435 -1.28935437648596e-05 9.10095426571867e-05 -0.000323720873521423 -6.69692786389577e-05 3.39126741031595e-05 0.000186107720417207 -0.00174408597354944 -0.00167740587072057 -3.53424142667305e-06
"343" -3.91196574102768e-05 -9.62839810389038e-05 -0.000196765733151423 7.48888441078017e-05 -8.59653568899484e-05 -0.000142444687371821 -0.000189129269501175 -2.52302388134318e-05 9.01277932635914e-05 -0.000332960507516529 -7.12924215503069e-05 2.90489787096968e-05 0.000185573672869763 -0.00177124807857269 -0.00161536070314729 -3.10035240792541e-06
"344" -3.96128655730697e-05 -9.98355208959941e-05 -0.000199608525996654 6.94185347076989e-05 -9.04850300976188e-05 -0.000155646069344256 -0.000188905734057315 -3.62222569440598e-05 8.87468999078218e-05 -0.000341904070820551 -7.57827210397569e-05 2.4183858128584e-05 0.000184602900886556 -0.00179752001838384 -0.00154630522861328 -2.97017073674645e-06
"345" -4.0238314848517e-05 -0.000103470777228409 -0.000202542771496741 6.39618389869469e-05 -9.49212006259056e-05 -0.000168457188645252 -0.000188730458760405 -4.5805294421451e-05 8.68692455346701e-05 -0.000350462790307327 -8.04195321078432e-05 1.93307003364469e-05 0.000183194083746791 -0.00182289361923846 -0.00147065097398303 -3.14061146860726e-06
"346" -4.09858166840618e-05 -0.00010718754474463 -0.000205569531012295 5.85328042682444e-05 -9.92675141261958e-05 -0.000180822155583216 -0.000188585216907903 -5.39313102767886e-05 8.45068013908438e-05 -0.000358552537314418 -8.51857375421271e-05 1.45029183043271e-05 0.000181335895068753 -0.00184733635103095 -0.00138888942396776 -3.61685443795294e-06
"347" -4.18434311629103e-05 -0.000110974196314728 -0.000208683975182115 5.31522812202157e-05 -0.000103508780016253 -0.000192691179199096 -0.00018845461591621 -6.05589579109094e-05 8.16745433501458e-05 -0.000366084680015088 -9.00599966807709e-05 9.71875141346972e-06 0.000179034832658769 -0.0018708345246555 -0.00130158799870388 -4.3962526805082e-06
"348" -4.2799563105292e-05 -0.000114823944382201 -0.00021187831309136 4.78377904488965e-05 -0.00010762876947541 -0.000204018492152825 -0.000188319789168501 -6.56610299715874e-05 7.83986658375343e-05 -0.000372975760493617 -9.50183101677086e-05 4.99061139051133e-06 0.000176286410351115 -0.00189338606796759 -0.00120938825748503 -5.47139325379086e-06
"349" -4.38448419275201e-05 -0.00011872898840382 -0.000215149202721788 4.26057865794193e-05 -0.000111628303443912 -0.000214764408416314 -0.000188167664394878 -6.9230159403999e-05 7.46990385644199e-05 -0.000379147085612807 -0.000100038982354663 3.32115842759792e-07 0.00017309785453988 -0.00191497336198087 -0.00111300200736387 -6.84310011487285e-06
"350" -4.49633725260583e-05 -0.00012268058169854 -0.000218488845357234 3.74706910800985e-05 -0.000115488359045273 -0.000224890927268674 -0.000187980604996687 -7.12619036945677e-05 7.06093379878785e-05 -0.000384522669170095 -0.000105098439673842 -4.24395872013633e-06 0.000169476141876639 -0.00193560174720218 -0.0010132085355548 -8.49774955624253e-06
"351" -4.61502282969725e-05 -0.000126669676462517 -0.000221883705222724 3.24460804247581e-05 -0.000119205873233796 -0.000234368729599244 -0.000187740012709264 -7.17712116839113e-05 6.61657793759063e-05 -0.0003890334105619 -0.000110172553193017 -8.72245728435473e-06 0.00016543375535414 -0.00195527654662214 -0.000910852557307731 -1.04274950317739e-05
"352" -4.73879230968654e-05 -0.000130683086417401 -0.000225328787227699 2.7545503068576e-05 -0.000122772095541972 -0.000243175295060505 -0.000187433207821588 -7.07822133816382e-05 6.14040114153139e-05 -0.000392619528212466 -0.000115236518115763 -1.30956679791787e-05 0.000160987152533562 -0.0019739987433298 -0.000806828059322444 -1.26184657055228e-05
