"V1" "V2" "V4" "V5" "V7" "V8" "V10" "V11" "V13" "V14" "V15" "V17" "V18" "V20" "V21" "V23"
"1" -5.49248344651888e-06 -1.23865551714044e-05 -4.24738067087399e-05 -1.28180819317835e-05 -5.05699837650344e-05 -1.32379947990337e-05 -3.09890410117753e-06 -1.86183710883012e-05 -4.81077676354785e-05 -2.09970397817728e-05 -4.9615857146679e-06 6.14082576126803e-06 1.89103867534261e-05 2.64070121018181e-06 -6.67422790696492e-05 1.48688807668042e-06
"2" 1.1135471516358e-05 -4.00505890964304e-05 1.82057345740113e-05 -1.93825043819626e-05 5.69560567783971e-05 -1.98155458862825e-05 7.0180568048729e-05 -2.04646118299628e-05 -0.000313213209892896 -3.64397281354673e-05 4.7089664708434e-05 -6.27399921619033e-05 -9.47488438128784e-05 -2.396863478588e-05 -0.000630993743652611 -4.26379257404208e-05
"3" 2.74804847336738e-05 -6.72489599073689e-05 7.89409440113039e-05 -2.59955313118454e-05 0.000165796546500537 -2.63866934394014e-05 0.000143435477612228 -2.21063529764812e-05 -0.00058942886045937 -5.18753396881815e-05 9.89730564573798e-05 -0.000131079434442799 -0.000209803800943303 -5.04332366698753e-05 -0.00117429540812907 -8.64204193459126e-05
"4" 4.34514466788336e-05 -9.37761362510959e-05 0.000139341024129128 -3.25970862841299e-05 0.000275287412972708 -3.28925279758591e-05 0.000216226193411223 -2.35656665609886e-05 -0.000875943198560835 -6.73198169071977e-05 0.000150382680560939 -0.000198548964986808 -0.000325563616359621 -7.66319557881695e-05 -0.00169677198517482 -0.000129609755649318
"5" 5.89640579462955e-05 -0.000119424714739585 0.000199006545603997 -3.9129608985957e-05 0.000384733383818945 -3.92788282464169e-05 0.000288109213888188 -2.48738892970985e-05 -0.00117171479179009 -8.27944442841949e-05 0.000201007846329479 -0.000264824857908285 -0.000441295034505312 -0.00010243397777937 -0.0021985933697111 -0.000171957638556511
"6" 7.39327161982621e-05 -0.000144003482073026 0.000257542254001058 -4.55308318055013e-05 0.000493413089547052 -4.54820116795994e-05 0.00035864033930737 -2.60686401888658e-05 -0.00147545436232194 -9.83086110659525e-05 0.00025054382554982 -0.000329595186663626 -0.000556251341268188 -0.000127711759529616 -0.00267997840870329 -0.000213225182292989
"7" 8.82882930999975e-05 -0.000167332625140034 0.000314565595377874 -5.1746005234806e-05 0.0006006015734559 -5.1448865692e-05 0.00042738380850404 -2.71840270139446e-05 -0.00178559555494495 -0.000113879522719265 0.000298687959493967 -0.000392564382578203 -0.000669666914765595 -0.000152353095427221 -0.00314116009122839 -0.000253185290796601
"8" 0.00010196535854338 -0.0001892466178612 0.000369705989430085 -5.77203713312598e-05 0.000705563387126938 -5.71165808247042e-05 0.000493918836341492 -2.82600406267546e-05 -0.00210027588570878 -0.000129515909934834 0.000345145358192375 -0.000453448409705612 -0.000780760305866048 -0.000176230257219949 -0.00358241111310474 -0.000291618079120475
"9" 0.000114902173912102 -0.000209590621687224 0.000422609476775069 -6.34023451352517e-05 0.000807570900367216 -6.24353451911931e-05 0.000557831118462671 -2.93385830801705e-05 -0.00241732784143164 -0.000145228323937469 0.000389627629405105 -0.000511983918627545 -0.000888764095573516 -0.000199240723985742 -0.00400400937848509 -0.000328322147513609
"10" 0.000127056172192149 -0.000228230904533949 0.000472948601925824 -6.8755462226547e-05 0.000905914631510952 -6.73504621923821e-05 0.000618735417931573 -3.04609930557363e-05 -0.00273426870689549 -0.000161018433914474 0.000431861839639242 -0.000567925169326576 -0.00099291834719735 -0.000221271210613016 -0.00440624420145691 -0.000363104270622418
"11" 0.00013838103058704 -0.000245048395537359 0.000520412863707933 -7.3730747662856e-05 0.000999897127991091 -7.18131661392695e-05 0.000676258959000541 -3.16764756198185e-05 -0.00304832142525391 -0.00017688639726269 0.000471580456421215 -0.000621048692519033 -0.00109247781259688 -0.000242225925192715 -0.00478941605556172 -0.000395787032572467
"12" 0.000148855105325321 -0.000259942494686639 0.000564735666139442 -7.83040442800739e-05 0.00108888128973121 -7.57724190192623e-05 0.000730067794541817 -3.30243181952625e-05 -0.00335642908847179 -0.000192827678120479 0.000508537153965269 -0.000671152700185044 -0.00118674555081437 -0.000262008558724645 -0.00515381824660981 -0.000426214576577693
"13" 0.000158451563330351 -0.000272828123772072 0.000605679267745418 -8.24468291974912e-05 0.00117225234531573 -7.91862156731407e-05 0.000779848126261425 -3.45533461700711e-05 -0.00365529678371453 -0.00020883040235122 0.000542496158854668 -0.000718061260581701 -0.00127505920814199 -0.000280533550531679 -0.00549974924590988 -0.000454245421653268
"14" 0.000167165939020123 -0.000283644382326405 0.000643043858420366 -8.61407307579295e-05 0.0012494704318771 -8.20103618042101e-05 0.000825323433874794 -3.63043497213398e-05 -0.00394144766809432 -0.000224878739616235 0.000573245902925141 -0.000761619688139713 -0.00135681431760829 -0.00029771754836487 -0.00582749509233515 -0.00047974874169003
"15" 0.000174997007648078 -0.000292347521661921 0.000676672586637773 -8.93788803043994e-05 0.00132004685349702 -8.42135284547945e-05 0.000866258130747439 -3.83178632455729e-05 -0.00421129601784498 -0.000240953943744793 0.000600593820902062 -0.000801704291271992 -0.00143147402336897 -0.000313494092403875 -0.00613733869522343 -0.000502624151280035
"16" 0.000181951076373755 -0.000298912648891407 0.000706451089880612 -9.21591179278143e-05 0.00138357965435961 -8.57527315315036e-05 0.000902449499368573 -4.063850419584e-05 -0.00446122752341458 -0.000257024230350069 0.000624363571639566 -0.000838213617316782 -0.00149858206515128 -0.000327799393487357 -0.00642955012325244 -0.000522780340059899
"17" 0.000188053935648238 -0.000303332342201304 0.000732317365530873 -9.44889591765958e-05 0.00143974551786175 -8.66075002464786e-05 0.000933744468177827 -4.32967249227109e-05 -0.00468771563407218 -0.000273058380509836 0.00064441209175523 -0.000871073928147829 -0.00155775975981901 -0.000340576568840646 -0.00670437494267952 -0.000540148389620072
"18" 0.000193328430838489 -0.000305622113763289 0.000754247257586933 -9.638597569652e-05 0.00148830054431828 -8.67497411935441e-05 0.000960024029893001 -4.63280451706852e-05 -0.00488742544355575 -0.000289016728472208 0.000660614318859573 -0.00090023939985228 -0.00160872462010138 -0.000351779980340462 -0.00696205895683502 -0.000554680121209704
"19" 0.00019781259981107 -0.000305816537513033 0.000772264243223916 -9.78688033353382e-05 0.00152909877798981 -8.61597520811504e-05 0.000981215805333082 -4.97641257699809e-05 -0.00505734474398713 -0.000304852976449623 0.000672871779668852 -0.000925689935226885 -0.00165129349127677 -0.000361371827502555 -0.00720282722660545 -0.000566339801417374
"20" 0.000201551156981122 -0.000303962914422677 0.000786443016545606 -9.89728343295593e-05 0.00156208650032392 -8.48216710876008e-05 0.000997292740757652 -5.36292596878473e-05 -0.00519488065552027 -0.00032052067444021 0.0006811114379198 -0.000947431295296253 -0.00168537907217508 -0.000369323410999108 -0.00742688770384142 -0.000575118094047759
"21" 0.000204593043309388 -0.000300133994545101 0.000796901188657522 -9.9736679325691e-05 0.00158730469852806 -8.27321579126997e-05 0.00100827258225594 -5.79444865751459e-05 -0.0052979657349136 -0.000335963330489683 0.000685291154998606 -0.000965498337959632 -0.0017109998358464 -0.000375614727329518 -0.00763442813993877 -0.00058101870277089
"22" 0.000206996409912717 -0.000294413410633544 0.000803801970205421 -0.000100208896562736 0.00160488717756633 -7.9881500155447e-05 0.00101421697620724 -6.27245137686579e-05 -0.00536513863593907 -0.00035112389279047 0.000685395580574277 -0.000979945959806837 -0.00172827781421116 -0.000380235917578035 -0.0078256199533835 -0.000584066509697564
"23" 0.000208819855093081 -0.000286900365698143 0.000807345446958673 -0.000100441917133195 0.00161505276779531 -7.62729224247151e-05 0.00101522427079495 -6.79810929949463e-05 -0.005395574575829 -0.000365937694571339 0.000681431533950035 -0.000990857017676364 -0.00173742762574544 -0.000383185388088305 -0.00800061724663385 -0.0005843028955693
"24" 0.000210130174387801 -0.000277715646877273 0.000807773226401184 -0.000100492380401598 0.00161811786693924 -7.19142367163386e-05 0.00101143967215757 -7.37199613805023e-05 -0.00538913317926147 -0.000380340751640368 0.000673438590884683 -0.000998337286677545 -0.00173876588208086 -0.000384464740090733 -0.00815955626041807 -0.000581784408167694
"25" 0.000210997462982387 -0.000266984349573228 0.000805361154530326 -0.000100430678813721 0.00161446428371294 -6.68183018625796e-05 0.00100303970807735 -7.99425813556213e-05 -0.00534630799544301 -0.00039426302167128 0.000661481378095208 -0.00100250941074013 -0.00173269479347307 -0.000384093979839608 -0.00830255330241822 -0.000576585092565084
"26" 0.000211488641352762 -0.000254853102935286 0.000800415800287631 -0.000100321627626455 0.00160455382139602 -6.10030044670603e-05 0.000990242222996254 -8.66432909264841e-05 -0.0052681924873635 -0.000407635893304998 0.000645651884629579 -0.00100352241537504 -0.00171969388620389 -0.00038209619944959 -0.00842970160332321 -0.000568797681969982
"27" 0.000211673234487083 -0.000241469755219814 0.000793264552126367 -0.00010024031488033 0.00158890348858887 -5.44954598741778e-05 0.000973290617374505 -9.38141961783224e-05 -0.00515640551093799 -0.000420389538278105 0.000626062930043211 -0.00100153745723144 -0.0017003201250689 -0.000378501437691139 -0.00854109335697228 -0.000558523738948735
"28" 0.000211623744695129 -0.000227001865379508 0.000784268881126698 -0.000100265474119782 0.00156809944131913 -4.73234380527349e-05 0.000952460373331028 -0.000101435848013145 -0.00501300431483536 -0.000432452573897184 0.000602855379469036 -0.000996738960645872 -0.00167518009193968 -0.000373350517980994 -0.00863679495644236 -0.000545884589616129
"29" 0.000211402492908503 -0.000211616329818395 0.000773788303708409 -0.00010047028185466 0.00154274685724091 -3.95254085047122e-05 0.000928051989653524 -0.000109493803651643 -0.0048403665908266 -0.000443756352192101 0.000576189724108114 -0.000989317897700805 -0.00164493815681877 -0.000366691448237881 -0.00871687590624308 -0.000531005820754247
"30" 0.000211072142379205 -0.000195486359674229 0.000762204001534941 -0.00010093669962862 0.00151349813780719 -3.11379438508579e-05 0.000900380459929232 -0.000117967273876324 -0.00464109493396739 -0.000454235428443741 0.000546249007814305 -0.000979480253656507 -0.00161029295582502 -0.00035857376894303 -0.00878138199290565 -0.000514034010998648
"31" 0.000210697722487058 -0.000178793139951769 0.00074990043038242 -0.000101742430963464 0.00148102768357262 -2.22102733679568e-05 0.000869782868654819 -0.000126823694404706 -0.00441792148102658 -0.000463821098888745 0.000513231012712898 -0.000967446089804184 -0.00157197112940225 -0.00034906358485072 -0.00883037172837071 -0.00049511884201367
"32" 0.000210331917651293 -0.0001617218431524 0.000737266558787327 -0.000102962953558514 0.00144601756285723 -1.27917317865256e-05 0.000836606122428534 -0.000136033830597704 -0.00417362941579375 -0.000472450337976784 0.000477356844883226 -0.000953436189815301 -0.00153071300543485 -0.000338226259530919 -0.00886390362049034 -0.000474422985939124
"33" 0.000210017012164255 -0.000144454353262885 0.00072467912921247 -0.000104673131474585 0.00140914741619277 -2.94149816221583e-06 0.000801202914240262 -0.000145567428837965 -0.00391095415440458 -0.00048007034327274 0.000438856229403726 -0.000937683492582098 -0.00148726931865797 -0.000326134439908541 -0.00888204705918197 -0.000452112498988758
"34" 0.000209799160027098 -0.000127167467190515 0.000712508181306095 -0.000106944658429913 0.0013710924956063 7.28598545210667e-06 0.000763934269585414 -0.000155389431401347 -0.00363256290868025 -0.000486623439321004 0.000397974027246594 -0.000920419591765003 -0.00144237816738248 -0.00031286647156462 -0.00888490393346608 -0.000428364180259671
"35" 0.000209710117256869 -0.000110048058210221 0.00070111156962895 -0.000109843817957555 0.0013325111992759 1.78225579214923e-05 0.000725158028853989 -0.000165457422981967 -0.00334099594920005 -0.000492065569167754 0.000354964244346686 -0.000901879769507375 -0.00139676988222313 -0.000298509423235389 -0.00887259947760209 -0.000403356791928048
"36" 0.000209772101399662 -9.32626126742661e-05 0.000690825353802046 -0.000113429209309436 0.00129403344473423 2.86038275765325e-05 0.0006852258943075 -0.000175739552673906 -0.00303864288112586 -0.000496351043426119 0.000310090627660716 -0.000882295401727646 -0.00135115103698342 -0.000283143105731923 -0.0088453065752689 -0.000377274866965642
"37" 0.000209999336226744 -7.69840400362301e-05 0.000681963652583235 -0.000117756569919006 0.00125625308280925 3.9556078904724e-05 0.000644484602670756 -0.00018619538003821 -0.00272773577050587 -0.000499449149580697 0.000263622091763284 -0.000861896847602452 -0.00130619269635329 -0.000266864012676918 -0.00880323990224749 -0.000350301320838128
"38" 0.000210395150180213 -6.13708600646569e-05 0.000674814744988928 -0.000122871459036849 0.00121972881452511 5.06117310532256e-05 0.000603270276367024 -0.00019678625167726 -0.00241034679023881 -0.000501327977534902 0.000215829039452277 -0.000840909497003856 -0.00126253589939358 -0.000249767987926174 -0.00874669415669196 -0.000322619130869183
"39" 0.000210957820784348 -4.65740106741269e-05 0.000669640660552314 -0.000128811887986042 0.00118497656416653 6.16934558526091e-05 0.00056190396838068 -0.000207474526039475 -0.00208840445550636 -0.000501968024743266 0.000166983047287431 -0.000819549627548974 -0.0012207758837789 -0.000231947454441366 -0.00867603422582847 -0.00029441581386762
"40" 0.000211671195774664 -3.27327194300196e-05 0.00066666514323499 -0.000135605189653996 0.00115245638714118 7.27252011708163e-05 0.000520692713969014 -0.000218220647877907 -0.00176368522399159 -0.000501356241982807 0.00011735970778457 -0.000798026567570699 -0.00118146081236623 -0.000213500823672482 -0.00859171034343085 -0.000265872726565316
"41" 0.000212511628468614 -1.99781475968437e-05 0.000666082557712004 -0.000143270954983153 0.00112257843928636 8.36309176540562e-05 0.0004799218368226 -0.000228993064184977 -0.00143784685455559 -0.000499488026088283 6.72296932679384e-05 -0.000776536636009969 -0.00114509145366114 -0.000194529720786042 -0.00849427374225964 -0.000237164993226068
"42" 0.000213442282711277 -8.41877102186041e-06 0.000668047351277847 -0.000151815698228602 0.00109569994277271 9.43329676871689e-05 0.00043985167445064 -0.000239758169226428 -0.00111243183983022 -0.000496364149614142 1.68544659013032e-05 -0.000755266271785888 -0.00111211410858185 -0.000175133906494317 -0.00838439770521084 -0.000208464829211773
"43" 0.000214416826162201 1.84314118303738e-06 0.000672679436402917 -0.000161237793212789 0.00107211639723814 0.000104756649236347 0.000400731916999353 -0.000250485019265993 -0.000788908029828415 -0.000491999315919859 -3.35059681803434e-05 -0.000734387349591587 -0.00108291870846858 -0.000155413038816871 -0.00826286090216635 -0.000179940634957023
"44" 0.000215390731895059 1.07188435537625e-05 0.000680062084166549 -0.000171525334188199 0.00105207233158773 0.000114823901353864 0.000362775056285568 -0.000261141011272568 -0.000468656634263868 -0.000486409094230577 -8.35986081751302e-05 -0.000714058872848159 -0.00105784207985706 -0.000135463485830098 -0.00813057069190394 -0.000151746848874174
"45" 0.00021629566757648 1.81428801618496e-05 0.00069023400635639 -0.000182649100167353 0.00103574241163482 0.000124465592609028 0.000326175695987016 -0.000271706454922289 -0.000153020900841842 -0.000479621646793074 -0.000133183160760575 -0.000694422431708821 -0.0010371587498539 -0.000115388238991194 -0.00798855944541936 -0.000124035196588261
"46" 0.000217069005189604 2.40603719578665e-05 0.000703197748595504 -0.000194573515704286 0.00102325325966961 0.000133607336824312 0.000291104223062147 -0.000282157676183328 0.000156706544965632 -0.000471671987541118 -0.000182028984719812 -0.000675607289918781 -0.00102109006668344 -9.52762630295194e-05 -0.00783797077634319 -9.69430843178291e-05
"47" 0.000217631226861126 2.84330246004981e-05 0.000718922173822315 -0.000207253326760305 0.00101467134167227 0.000142183845651418 0.00025769938061563 -0.000292474810052781 0.000459255455354908 -0.000462602504393345 -0.000229917363484722 -0.000657721354296132 -0.00100980203482544 -7.52241589585194e-05 -0.00768007384913823 -7.05994892284185e-05
"48" 0.000217907203677188 3.12416975465795e-05 0.000737330799437524 -0.000220628650139423 0.00101001035684896 0.000150125164753805 0.000226077522448571 -0.000302641494707878 0.000753371187501823 -0.000452463036042453 -0.000276644374839598 -0.000640861053064603 -0.00100340150870029 -5.53221190616651e-05 -0.00751623603332782 -4.51224360362489e-05
"49" 0.000217806659587471 3.2482263872835e-05 0.000758314880334782 -0.000234632568967999 0.00100922301880322 0.00015737786692229 0.000196326564705471 -0.000312649568172576 0.00103780656821419 -0.000441311555009481 -0.000322016811778427 -0.000625102601156173 -0.00100194100793986 -3.56570769470089e-05 -0.00734791738362052 -2.0613136432878e-05
"50" 0.000217249530950027 3.21660555617921e-05 0.000781733643633939 -0.000249184640871433 0.00101222223385689 0.000163883057601082 0.00016851408634325 -0.000322486592272259 0.00131131867166927 -0.000429213160328261 -0.000365857103079434 -0.000610506687852068 -0.0010054231594387 -1.6308540124405e-05 -0.00717664908292471 2.83123585497459e-06
"51" 0.000216142223295796 3.03231597967595e-05 0.000807408717487325 -0.000264197886883783 0.00101886806047356 0.000169589377737853 0.000142677561089834 -0.00033214931229262 0.00157267444491864 -0.000416233627162763 -0.000408003826490963 -0.000597118481955646 -0.00101379630636086 2.64441373724352e-06 -0.00700400622213708 2.51356947156082e-05
"52" 0.000214398691815635 2.69937194967096e-05 0.000835138306329739 -0.000279581926233422 0.00102898093573033 0.000174451516065677 0.000118835246861013 -0.000341632340784793 0.00182064485306205 -0.000402454251116691 -0.000448308647431157 -0.000584966515820887 -0.00102696080464392 2.11295340218286e-05 -0.00683158891920031 4.6233287490024e-05
"53" 0.000211929075273995 2.22383986409618e-05 0.000864687269525524 -0.000295232093841684 0.00104233098369813 0.000178434495432649 9.69762249388556e-05 -0.000350937413199062 0.00205402745280093 -0.00038795010464962 -0.000486643967756905 -0.0005740644499852 -0.00104477297700666 3.90774183071087e-05 -0.0066610002003246 6.60683002496259e-05
"54" 0.000208642495798013 1.61263273272108e-05 0.000895792424683662 -0.000311039729487086 0.00105866294162668 0.000181505986396984 7.70757616138044e-05 -0.000360069965501816 0.00227163509233637 -0.000372809693357201 -0.00052289998007839 -0.000564411704023363 -0.00106704204677225 5.643045084132e-05 -0.00649379480991382 8.46053471623749e-05
"55" 0.000204462795459207 8.7404667626703e-06 0.000928182992719863 -0.000326899226468951 0.00107768143405619 0.000183634963590686 5.90883466003372e-05 -0.00036903223967588 0.00247232056250639 -0.000357123958147901 -0.000556970398349899 -0.000555991436969145 -0.00109353763105334 7.31312567323692e-05 -0.00633147308081834 0.000101814409291962
"56" 0.000199308956930586 1.80685253933026e-07 0.000961555664355163 -0.000342691260063552 0.00109906840279677 0.000184811233559453 4.29441711723112e-05 -0.000377831547223355 0.00265499340846576 -0.000340979608255339 -0.000588783324303914 -0.000548777760497103 -0.00112400111227037 8.91291180647234e-05 -0.00617545457570882 0.000117682093541694
"57" 0.000193111760059746 -9.4515430507546e-06 0.000995603509151066 -0.000358303230380064 0.00112248332615568 0.000185016497156189 2.85679277717676e-05 -0.000386477925902915 0.00281862189620515 -0.00032447642401359 -0.000618268566434155 -0.000542732133236233 -0.00115812820326781 0.000104379347340552 -0.00602703736632104 0.000132206012123484
"58" 0.000185807312185774 -2.0038677885356e-05 0.00103000153197967 -0.000373617442420386 0.00114756209385498 0.000184250976964463 1.5859785150264e-05 -0.000394978834832647 0.00296227283623245 -0.000307708989279728 -0.000645377028461748 -0.000537802719090007 -0.00119559321404635 0.000118847115820967 -0.00588738930261815 0.00014539797677945
"59" 0.000177342778147221 -3.146085523598e-05 0.00106442467444213 -0.00038852457167256 0.00117392965687072 0.000182516235146422 4.71531654307071e-06 -0.000403345790534833 0.00308511587733798 -0.000290774712909406 -0.000670081086100393 -0.000533931460547335 -0.00123604061022673 0.000132498942177872 -0.00575751613036174 0.000157275245684273
"60" 0.000167667364242432 -4.35846012620729e-05 0.00109853745369981 -0.000402905801554798 0.00120119850151008 0.000179825240410132 -4.98500294454849e-06 -0.000411593911496662 0.0031864506186722 -0.000273768326906139 -0.000692361388481926 -0.000531051392151138 -0.00127909390819029 0.00014531201577442 -0.00563827591007897 0.000167867332112386
"61" 0.000156757077701646 -5.62782065259737e-05 0.00113201315361489 -0.000416654981114605 0.00122898134262811 0.000176197051291193 -1.33667756938435e-05 -0.000419733199965411 0.00326572680779698 -0.000256791985423437 -0.000712213646538038 -0.000529087242031939 -0.00132435853013928 0.000157265993996045 -0.00553034167097458 0.000177219028797298
"62" 0.000144578063959648 -6.94022239483755e-05 0.0011645209889754 -0.00042967292051775 0.00125688492387725 0.000171655156683742 -2.05625109753529e-05 -0.000427776457815623 0.00332256298626935 -0.000239936618092872 -0.000729655880389491 -0.00052795896743616 -0.00137142480354106 0.000168350519303787 -0.00543420836453843 0.000185373868922021
"63" 0.00013112935477351 -8.28179750382507e-05 0.00119575024388375 -0.000441859517613841 0.00128452928499348 0.00016623267114269 -2.67092767891967e-05 -0.000435737166287944 0.00335676627771398 -0.000223299486319202 -0.000744706205431446 -0.000527583206417049 -0.00141987568998284 0.000178558393725068 -0.00535019418316237 0.000192389256585335
"64" 0.000116407541547505 -9.63820280452574e-05 0.00122538960337923 -0.000453126234744222 0.00131153122000823 0.000159969823743132 -3.19495789404524e-05 -0.000443628284492206 0.00336833955581993 -0.000206967481794604 -0.00075741489291492 -0.000527869419830845 -0.00146928568760803 0.000187887604172668 -0.00527843379246743 0.000198328129915803
"65" 0.000100425177137997 -0.000109956278541615 0.00125315655980545 -0.000463393623194622 0.00133753116385941 0.000152912646727362 -3.64187760812962e-05 -0.000451461596450749 0.00335749582900255 -0.000191027329751395 -0.000767825125904745 -0.000528727315961179 -0.00151923313523148 0.000196345887084556 -0.00521890382891374 0.000203256789246098
"66" 8.32158759088813e-05 -0.000123400788946973 0.00127877638616462 -0.000472584917081923 0.00136218775894743 0.000145111298406032 -4.02621406084117e-05 -0.00045925067657568 0.0033246669405997 -0.000175562157297612 -0.000776008901200997 -0.000530067245963243 -0.00156929642727641 0.000203939236570082 -0.00517141820730258 0.0002072486778433
"67" 6.48189607534991e-05 -0.000136585821204401 0.00130201187337854 -0.000480644009710701 0.00138517706162276 0.00013662787630788 -4.36102169957042e-05 -0.000467004025155335 0.00327050332569435 -0.000160651493282812 -0.000782033129588443 -0.000531798344597306 -0.00161905870074696 0.000210683594203662 -0.00513563026700812 0.000210380057539117
"68" 4.52869841539465e-05 -0.000149373757825335 0.00132263643324825 -0.000487515142512153 0.00140620085392956 0.000127524524384496 -4.66004354498215e-05 -0.000474737108852366 0.00319587435773534 -0.000146360907001065 -0.000785990685958962 -0.000533829348239656 -0.00166812166228131 0.000216605847332498 -0.00511107661239191 0.000212731339136399
"69" 2.46877650735651e-05 -0.000161645874221085 0.00134046048844706 -0.000493155992691344 0.00142499238916503 0.000117868312394479 -4.93564040803523e-05 -0.000482458201944517 0.00310185294860008 -0.000132759180693928 -0.000787973545239628 -0.000536073208397106 -0.00171609398907946 0.000221721484589652 -0.0050971551834193 0.000214380446593361
"70" 3.09988355330864e-06 -0.000173284254436746 0.00135532086049378 -0.00049753606470397 0.00144131501321054 0.000107731462074626 -5.19986267361334e-05 -0.000490179345500124 0.00298970121636181 -0.000119902163429874 -0.000788082450517724 -0.000538444209886419 -0.00176260914380572 0.000226061438535959 -0.00509317316076884 0.000215409379638627
"71" -1.93880487479781e-05 -0.000184183006690344 0.00136709090467394 -0.000500637533200506 0.00145496898035195 9.71920142642882e-05 -5.46402140817377e-05 -0.000497908970921401 0.00286085916529866 -0.00010784108114149 -0.000786431136012341 -0.000540860686487902 -0.00180732112146122 0.00022966126860378 -0.00509834160664869 0.000215899874026264
"72" -4.26771293942287e-05 -0.000194239765274418 0.00137567028222019 -0.00050244761369606 0.00146578441319558 8.63257991856562e-05 -5.73802217651253e-05 -0.00050565816325127 0.00271691326252697 -9.66188492517251e-05 -0.000783135523773769 -0.000543249337927534 -0.00184991130465744 0.000232554614632895 -0.00511180374184468 0.00021593280928084
"73" -6.66565242248507e-05 -0.000203365594483732 0.00138099474099033 -0.00050296622463381 0.00147363264262605 7.52182673809438e-05 -6.03183653964593e-05 -0.000513440018233179 0.00255958274405251 -8.62692267900755e-05 -0.000778319763425861 -0.000545536094442268 -0.0018900875748283 0.000234780260429066 -0.005132640750152 0.000215583761980411
"74" -9.12070835940599e-05 -0.000211487228728417 0.00138304503980669 -0.000502208329244883 0.00147843296723265 6.39486541324598e-05 -6.35308770267485e-05 -0.000521258928822805 0.00239068323140445 -7.68211309293062e-05 -0.000772109346978064 -0.000547657381844037 -0.00192759142968307 0.00023637826451309 -0.00515989769597189 0.00021493407702881
"75" -0.000116206892360654 -0.000218534694794769 0.00138182258223902 -0.000500192414488976 0.00148012538265656 5.26036854718099e-05 -6.70913455362709e-05 -0.000529126539552244 0.0022120962643636 -6.82895870943266e-05 -0.000764633124307832 -0.000549554286623917 -0.00196219589178096 0.000237393058807063 -0.0051925865832362 0.00021405221381327
"76" -0.000141523100564586 -0.000224455011735949 0.00137736852347582 -0.00049694687549854 0.00147870779138226 4.12693520476634e-05 -7.10627519136111e-05 -0.000537053196261638 0.00202575309410998 -6.06856180246508e-05 -0.000756028902862215 -0.000551173497460891 -0.001993710611584 0.000237867792640941 -0.0052297106753125 0.000213009947577583
"77" -0.00016702192015749 -0.000229207495698141 0.00136976117296824 -0.000492509808089316 0.00147420667932093 3.00245942649294e-05 -7.54900609406212e-05 -0.000545048766629297 0.00183358275713126 -5.4006971206276e-05 -0.000746426923610126 -0.000552470748363102 -0.00202197764175245 0.000237847293922526 -0.00527026189053481 0.00021187036661011
"78" -0.000192559001674648 -0.00023276337331802 0.0013591063485486 -0.000486931590397208 0.00146668967308309 1.89565843969565e-05 -8.04114100699074e-05 -0.000553120376026097 0.00163750663961011 -4.82522796201301e-05 -0.000735962453446335 -0.000553405988065781 -0.0020468763377297 0.000237385114903034 -0.00531324334178381 0.000210697409644673
"79" -0.000217999280367618 -0.000235104415655047 0.00134554401340569 -0.000480264429084434 0.00145625517943915 8.14541921656972e-06 -8.58544313023877e-05 -0.000561279013941408 0.00143940111876643 -4.34008808392046e-05 -0.000724772021430893 -0.000553948539008901 -0.00206832475649977 0.000236521868375286 -0.00535767950406167 0.00020954284631315
"80" -0.000243203365863134 -0.000236232432237716 0.00132923656341637 -0.00047256591436336 0.0014430466918753 -2.33175880910227e-06 -9.18335147962399e-05 -0.000569534432265488 0.00124106970103933 -3.94310959776084e-05 -0.000712986125779149 -0.000554075213603047 -0.00208626927420536 0.000235308369633292 -0.00540262211011086 0.000208459444335928
"81" -0.000268028588068617 -0.000236158645768946 0.00131038190074805 -0.000463907547147868 0.00142722994186978 -1.23995127964464e-05 -9.83540636966484e-05 -0.000577891799651728 0.00104423769559663 -3.63130226022915e-05 -0.000700731554090097 -0.000553768217780086 -0.00210070074271275 0.000233791781206322 -0.00544715009161214 0.000207489815309342
"82" -0.000292340999865161 -0.000234897379502916 0.00128918981024173 -0.000454357272373973 0.00140899638521906 -2.19864079626994e-05 -0.000105413676402222 -0.0005863648648775 0.000850530604311166 -3.40091417024425e-05 -0.000688141844636556 -0.000553013866146822 -0.00211163386092715 0.000232019328844388 -0.00549039145001664 0.000206674795082737
"83" -0.00031600769186597 -0.00023249376698741 0.00126590409336225 -0.000443995951069588 0.00138857631844113 -3.10288348700633e-05 -0.000112994218853692 -0.000594957013050037 0.000661452798589545 -3.24742891064716e-05 -0.000675334579249395 -0.000551812449603634 -0.00211911901960577 0.000230034836695743 -0.0055315118155652 0.000206043769741241
"84" -0.000338904507254931 -0.000228989115728704 0.00124077312224375 -0.000432900134618594 0.00136621006078722 -3.94614424982178e-05 -0.000121075434524342 -0.000603679240861914 0.00047839825433829 -3.16586071603616e-05 -0.000662426968742034 -0.000550162194485905 -0.00212323844980879 0.000227883494175495 -0.00556975129586199 0.000205626751603009
"85" -0.00036090744125992 -0.000224440746533831 0.00121406412779094 -0.000421154446220861 0.0013421603741496 -4.7232508038966e-05 -0.000129625628880741 -0.000612535602386721 0.00030262344365512 -3.15075425005849e-05 -0.000649529223934213 -0.00054807269063544 -0.00212409723810782 0.000225606864885325 -0.0056043941024444 0.000205442063165635
"86" -0.000381909849827131 -0.000218917134292541 0.00118606241613979 -0.000408844987651812 0.00131670223629713 -5.42914502326951e-05 -0.00013861084702396 -0.000621533457993187 0.000135247686177904 -3.19632430575212e-05 -0.000636745893899074 -0.000545555968383966 -0.00212182908482849 0.000223249594710282 -0.00563480484920276 0.000205507916653611
"87" -0.000401811575380776 -0.000212495254104501 0.00115704928749659 -0.000396059118189077 0.00129012261006844 -6.05985859536467e-05 -0.00014798912913653 -0.000630676787895664 -2.27329616104227e-05 -3.29590979210313e-05 -0.000624178299616603 -0.000542629619681525 -0.00211658559507729 0.000220841468434442 -0.00566041437256684 0.000205830698850367
"88" -0.000420512644130669 -0.000205265111345076 0.001127321490063 -0.000382884056398066 0.0012627189874626 -6.6115158152658e-05 -0.000157707256012563 -0.000639963777257061 -0.000170470369560429 -3.44310254270992e-05 -0.000611909504125785 -0.000539317330475241 -0.00210853778941234 0.000218427073525 -0.00568073303618291 0.000206416727324233
"89" -0.000437940960250536 -0.000197313889772429 0.00109716862073503 -0.000369410537126597 0.00123478153799486 -7.0815841033708e-05 -0.00016772140952481 -0.000649398897170276 -0.000307230477455566 -3.63107970618212e-05 -0.000600026382106248 -0.000535643313322613 -0.00209787384838114 0.000216032097407496 -0.0056953639878383 0.000207264872401094
"90" -0.000454026431493826 -0.000188740777078684 0.00106687417135982 -0.00035572176003276 0.00120660390908541 -7.46758875409394e-05 -0.000177976008451328 -0.000658985612349594 -0.000432411393037508 -3.85234598555014e-05 -0.000588598635645892 -0.000531636260990173 -0.00208478973119958 0.000213691583305832 -0.00570399326173532 0.000208367753687308
"91" -0.000468711546803471 -0.000179655921156699 0.00103672943220377 -0.000341909840759622 0.00117847479969013 -7.76906515627479e-05 -0.000188414429334756 -0.000668715118761545 -0.000545523335838313 -4.10024424936669e-05 -0.000577689202947408 -0.000527329660432367 -0.00206949177117696 0.000211426609282456 -0.00570640556665706 0.000209716029302085
"92" -0.000481954071473301 -0.000170162496586174 0.00100700676843108 -0.000328056686285539 0.00115067425472675 -7.98487422340393e-05 -0.000198981415511807 -0.000678586996430673 -0.000646205662171602 -4.36746312892758e-05 -0.000567354217053164 -0.000522753977998209 -0.00205219136007827 0.000209266658885293 -0.00570250076634854 0.000211292757351051
"93" -0.000493729532903884 -0.000160375996368007 0.000977969990615551 -0.000314246864985935 0.00112346741911487 -8.11588064129327e-05 -0.000209622392286102 -0.000688589952546373 -0.000734188877915706 -4.64727409598191e-05 -0.000557638645686976 -0.000517946162400449 -0.00203310058037783 0.000207231203530725 -0.00569227379579715 0.000213082505772636
"94" -0.000504016399568146 -0.000150409405253585 0.000949870706286628 -0.000300559494780009 0.00109710641208861 -8.16281181949515e-05 -0.00022028148902857 -0.000698716653722311 -0.000809314957043977 -4.93225296228409e-05 -0.000548575942826367 -0.000512942076785277 -0.00201243460655998 0.000205333184537924 -0.00567583345788827 0.000215063615352663
"95" -0.00051281348343535 -0.000140374908280005 0.000922940816223293 -0.000287070848435984 0.00107182334378152 -8.12763240743324e-05 -0.000230903732834378 -0.000708956495220966 -0.000871517411259847 -5.21593172539724e-05 -0.00054019878485758 -0.000507776023032792 -0.00199040164684987 0.000203589620959251 -0.00565341211370019 0.000217208255119034
"96" -0.000520136634332644 -0.00013038639241724 0.000897398838366802 -0.000273856894855117 0.00104783580134783 -8.01298670622988e-05 -0.000241439610075263 -0.000719291468331 -0.000920816334362996 -5.49168777902159e-05 -0.000532521925945872 -0.000502486595944204 -0.00196720832719457 0.000202011009849567 -0.00562534672568849 0.000219491784435149
"97" -0.000526003845930223 -0.000120554346863051 0.000873436452331082 -0.000260984365620724 0.00102533094912275 -7.82258685800731e-05 -0.000251839789603049 -0.000729706473516847 -0.000957317446850618 -5.7536757238255e-05 -0.000525556371353301 -0.000497106493832043 -0.00194304795742145 0.000200604805442561 -0.00559209506906242 0.000221886430586691
"98" -0.000530457701908356 -0.000110988987256686 0.000851228309885468 -0.000248517874775423 0.00100447570723974 -7.55986221415239e-05 -0.000262062426288998 -0.000740184017975314 -0.000981195879265382 -5.99575982232773e-05 -0.000519303905694676 -0.000491670792568142 -0.00191811586050719 0.000199373447245269 -0.00555423223187943 0.000224357832933519
"99" -0.000533541626946746 -0.000101793616953321 0.000830930965038552 -0.000236517948581996 0.000985413924339581 -7.23002715554289e-05 -0.00027206083661208 -0.000750696485564732 -0.000992696514671007 -6.21283752255342e-05 -0.000513755224409474 -0.000486214118623599 -0.00189258706967445 0.000198317438511664 -0.00551244414376807 0.000226876068044137
"100" -0.000535324408203802 -9.30656683353955e-05 0.000812661360812282 -0.000225035705798907 0.000968257607287582 -6.83824477442185e-05 -0.000281802405272493 -0.000761227124646175 -0.000992127248080599 -6.3996220919351e-05 -0.000508903138046431 -0.000480767168771386 -0.00186662731491458 0.000197437856175988 -0.00546752785112442 0.000229410307087701
"101" -0.000535868160825719 -8.48988745801056e-05 0.000796529315475098 -0.000214122308110464 0.000953100826655262 -6.38998434565131e-05 -0.000291251900429394 -0.000771740378971174 -0.000979864496319332 -6.55171521620473e-05 -0.000504721684927683 -0.000475359655979293 -0.00184039017036813 0.000196729390947384 -0.0054203679270692 0.000231928619102234
"102" -0.000535254952808698 -7.73817973026017e-05 0.000782607726284069 -0.000203818647568923 0.000940000904716625 -5.89184215625661e-05 -0.000300381797884001 -0.000782215213591618 -0.000956335323095292 -6.66532404378952e-05 -0.000501185825054043 -0.000470016961566432 -0.00181401612990015 0.000196185626527741 -0.00537194845025772 0.000234397285432209
"103" -0.000533573602525878 -7.0588734903604e-05 0.000770956381891008 -0.000194163550524173 0.000928997487323214 -5.3504706970996e-05 -0.000309163932237766 -0.000792613574769898 -0.000922027838748316 -6.73666494341552e-05 -0.000498263760159426 -0.000464769733756578 -0.00178762929782551 0.000195796036062725 -0.00532331661015759 0.0002367855410903
"104" -0.000530918634780543 -6.45923967584295e-05 0.000761596272188596 -0.000185186296111863 0.000920093916166934 -4.77304947965226e-05 -0.000317582646591266 -0.000802909972153047 -0.000877470577356469 -6.76292316870868e-05 -0.000495920151392365 -0.000459637685064204 -0.00176134152990212 0.000195553566411286 -0.00527558293298316 0.000239064909170677
"105" -0.000527389622020339 -5.94532084285336e-05 0.000754528699589896 -0.000176911478760568 0.000913278251156586 -4.16685354719415e-05 -0.000325616077032279 -0.00081306812892461 -0.000823241772073399 -6.74194518393764e-05 -0.00049411436385649 -0.000454640807500272 -0.00173524862608304 0.000195442203235151 -0.00522989160188765 0.000241207004411016
"106" -0.000523090549880609 -5.52208619570302e-05 0.000749741488891231 -0.000169357600300632 0.000908511998137292 -3.53901333174844e-05 -0.000333254464745092 -0.000823049456581863 -0.00075996953669072 -6.6714842436832e-05 -0.000492803896976534 -0.000449801336656995 -0.00170943329718558 0.0001954509969018 -0.00518740670871426 0.000243184941775816
"107" -0.000518132903475486 -5.19375572435788e-05 0.000747186138359463 -0.000162536834454689 0.000905725864144645 -2.89739925367274e-05 -0.000340487783329244 -0.000832821682330812 -0.000688324300433194 -6.55042475917836e-05 -0.000491942032033142 -0.000445134282423267 -0.00168396165168744 0.000195561533851109 -0.0051492895481819 0.000244972507927715
"108" -0.000512622344101207 -4.96331093199796e-05 0.000746798113694746 -0.000156455351707438 0.000904838959440225 -2.2499949375253e-05 -0.000347307627288223 -0.000842348758986783 -0.000609011628214343 -6.3777924594054e-05 -0.000491480907222053 -0.000440653898853732 -0.00165889256131824 0.00019576429286549 -0.00511667858425439 0.000246549841210806
"109" -0.00050666890409326 -4.83312163452854e-05 0.000748493444188877 -0.000151112572548397 0.00090575051731105 -1.60375283573478e-05 -0.000353711664870061 -0.000851593113800696 -0.000522789897877944 -6.15327190605457e-05 -0.000491374376849468 -0.000436374158657454 -0.00163426587323258 0.000196036316773598 -0.00509066434486532 0.00024789756974039
"110" -0.000500378554794567 -4.80404569131717e-05 0.000752169006919051 -0.000146501239283909 0.000908339156450432 -9.66492995358752e-06 -0.00035969339288202 -0.00086051750493988 -0.000430439563977649 -5.87706302124212e-05 -0.000491570379747858 -0.000432306867100152 -0.00161011261619896 0.000196366754539676 -0.00507226710203066 0.000249000569786647
"111" -0.000493856513117488 -4.87639358983477e-05 0.000757703589482655 -0.000142611503624509 0.000912472885174735 -3.45137241158524e-06 -0.000365253651748434 -0.000869085704081917 -0.000332780538790743 -5.54981155941006e-05 -0.000492026773695237 -0.000428457665143307 -0.00158645337197697 0.000196737890478547 -0.00506241850918868 0.00024984325760366
"112" -0.000487202262156805 -5.04883794698629e-05 0.000764966923495444 -0.000139425913227589 0.000918007549020071 2.528208580768e-06 -0.000370387438568244 -0.000877259494815925 -0.000230657045759096 -5.17264538034448e-05 -0.000492690841392814 -0.000424840835371527 -0.00156329776390208 0.000197132810145036 -0.00506193812122189 0.000250416726460396
"113" -0.000480510362586546 -5.31954333861339e-05 0.000773807656818238 -0.000136920704818425 0.000924783069827525 8.21141430250321e-06 -0.000375102235156805 -0.00088501155274522 -0.000124936453858987 -4.74684755633277e-05 -0.000493520775621333 -0.000421458375398675 -0.00154064774455517 0.000197537959662874 -0.00507152927098552 0.000250713671215501
"114" -0.000473875979861274 -5.68566898526385e-05 0.00078406447073108 -0.000135068926168938 0.000932644777700643 1.35381061699007e-05 -0.00037939161808574 -0.000892302702471017 -1.65110079387607e-05 -4.27430720258524e-05 -0.000494476876565127 -0.000418320410693718 -0.00151849950441582 0.000197944045611216 -0.00509175455340371 0.000250731700742672
"115" -0.000467369426201365 -6.14339219614735e-05 0.000795575954408184 -0.000133840286275402 0.000941426959368857 1.84504853394465e-05 -0.000383257378036161 -0.000899103798543808 9.37129111955379e-05 -3.7572201240891e-05 -0.000495512459211763 -0.000415430398622353 -0.00149683773525881 0.00019833122848685 -0.00512302022934393 0.000250470306933566
"116" -0.000461070023129572 -6.68777814287124e-05 0.000808164590293896 -0.000133197423282618 0.000950958374334041 2.28955475598957e-05 -0.000386696009594105 -0.000905387491045717 0.000204819948246138 -3.19804641778684e-05 -0.000496598876828183 -0.000412796723257052 -0.00147564979950458 0.000198691220168367 -0.00516559695481499 0.000249930501946325
"117" -0.000455036113413823 -7.31393036893307e-05 0.000821653675727451 -0.000133098383975866 0.000961080552447147 2.68313520443962e-05 -0.000389705715662175 -0.000911124798912117 0.000315884028140988 -2.59944115673197e-05 -0.000497702061400738 -0.000410423085136774 -0.00145491284109404 0.0001990162219498 -0.00521957705605189 0.000249121275785741
"118" -0.0004493213633231 -8.01542297973012e-05 0.000835867833938211 -0.000133506515194809 0.000971633555167216 3.02182235569523e-05 -0.000392276737072155 -0.000916291239214936 0.00042598370167317 -1.96424039966093e-05 -0.000498789856209338 -0.000408316276078619 -0.00143460472197348 0.000199297939931617 -0.00528490133045255 0.00024805326157762
"119" -0.000443965779881333 -8.78584118192893e-05 0.000850627429262825 -0.000134369899389359 0.000982465422944515 3.30228968181318e-05 -0.000394403350904747 -0.000920864522067537 0.000534208670436912 -1.29563891645916e-05 -0.000499840191478853 -0.00040648070057233 -0.0014147001339286 0.000199528313308358 -0.00536135751339046 0.000246735370128459
"120" -0.000438999778698495 -9.61714561409139e-05 0.000865752272991627 -0.000135642318535587 0.000993427010591336 3.5225496664466e-05 -0.000396077275397924 -0.000924828919761472 0.000639670336113242 -5.97100118269881e-06 -0.000500836303217358 -0.00040492161892734 -0.00139517155196726 0.000199706973839674 -0.00544858024272883 0.000245184268967613
"121" -0.000434444666063442 -0.000105022370823171 0.000881072196116336 -0.000137273482008962 0.00100439056353984 3.68057826277096e-05 -0.000397283380840298 -0.000928166218982058 0.000741499164422294 1.28537270069102e-06 -0.000501759474513127 -0.000403647553124437 -0.00137599326779877 0.000199832140157169 -0.00554606520489992 0.000243417383599722
"122" -0.000430303838771124 -0.00011432317610992 0.000896420619470911 -0.000139212136531663 0.00101523578355717 3.77589002487219e-05 -0.000398006813861091 -0.000930868557153167 0.000838864669422059 8.77487666371746e-06 -0.000502603986253723 -0.000402662219274009 -0.00135713602014302 0.000199901941003627 -0.0056531776733819 0.000241457009668247
"123" -0.000426574320720177 -0.000123994346252109 0.000911645731580359 -0.000141405436045092 0.00102585712423152 3.80773000366273e-05 -0.000398231090896223 -0.000932923431092098 0.000930988895906482 1.6463471690014e-05 -0.000503359680107186 -0.00040197502812638 -0.00133857512637062 0.000199918318194289 -0.00576916509612695 0.000239324987230025
"124" -0.000423246854392368 -0.000133943917984992 0.000926589872689031 -0.000143799316057079 0.00103616036543487 3.77704410236483e-05 -0.000397937056983787 -0.000934331185539887 0.00101715342801763 2.43174185218737e-05 -0.000504028003984161 -0.0004015925304326 -0.00132028838539774 0.000199892522352251 -0.00589317228989909 0.000237044913174161
"125" -0.000420289429561695 -0.000144088552360588 0.000941127247330883 -0.000146346004734579 0.00104608302965613 3.68499792664037e-05 -0.000397100462723178 -0.000935087422023137 0.0010967038788518 3.2302597009395e-05 -0.000504612588283808 -0.000401520109935651 -0.00130225787200905 0.000199822177817208 -0.00602424147145851 0.000234643720237405
"126" -0.000417673014477858 -0.000154336620261877 0.000955120744232596 -0.000148986738683485 0.00105555869593738 3.53367053919975e-05 -0.000395699514668504 -0.000935199444487475 0.00116907402674105 4.0385306057576e-05 -0.000505121377499921 -0.000401767421301501 -0.00128446217704802 0.000199723543198518 -0.00616135164484945 0.000232148856750949
"127" -0.000415353667128247 -0.000164598650733856 0.000968465935145814 -0.000151674584153166 0.00106455694709849 3.3257553967205e-05 -0.000393709002916636 -0.000934671262302618 0.00123377989279855 4.85328440850503e-05 -0.000505564842297414 -0.000402338790990609 -0.0012668912091214 0.000199603198460237 -0.00630340943573165 0.000229588912807032
"128" -0.000413280052563579 -0.000174792210764927 0.000981060586241032 -0.000154358574331676 0.00107305307323539 3.06436820184394e-05 -0.000391104037861803 -0.000933519136694052 0.00129042598638027 5.67111824839163e-05 -0.000505960923516579 -0.000403242362177338 -0.00124952952498994 0.000199476794943347 -0.00644927416361128 0.000226994062195814
"129" -0.000411389370325717 -0.000184826797283435 0.000992824034651654 -0.000156993171771664 0.00108104450283858 2.75344698746731e-05 -0.000387855545281261 -0.000931753957438858 0.00133872135642545 6.48932941670237e-05 -0.000506326030606214 -0.000404483142393631 -0.00123237244941227 0.00019935189376158 -0.00659777036865819 0.000224394411490689
"130" -0.000409620496818224 -0.000194627063487001 0.0010036899950642 -0.000159532304814553 0.0010885556954179 2.39720460655378e-05 -0.0003839379472915 -0.0009293954708793 0.00137847183109122 7.30484963680245e-05 -0.000506685306281673 -0.000406065532517575 -0.00121541707805142 0.000199249563707961 -0.00674769410770785 0.000221816825480752
"131" -0.000407899902533147 -0.000204112847426153 0.00101360232151232 -0.000161932331640494 0.00109560755463112 2.00045068417521e-05 -0.000379325892012779 -0.000926466047715268 0.00140959441401004 8.11466695611968e-05 -0.000507056195148049 -0.000407995622769898 -0.00119866192982531 0.000199185536258009 -0.00689783245568696 0.000219295497619954
"132" -0.000406158919544347 -0.000213210346092294 0.00102251732032148 -0.000164157629471411 0.00110224101224795 1.56821512783438e-05 -0.000373991533904738 -0.000922996996187878 0.00143211385677378 8.91591379109821e-05 -0.00050747494528039 -0.000410269653976061 -0.00118210803696443 0.000199173800726668 -0.00704697301203938 0.000216856815118067
"133" -0.000404319478493308 -0.000221850726602549 0.00103041350611028 -0.000166171918093655 0.00110852356181293 1.10594966628426e-05 -0.000367915707077336 -0.000919014149537955 0.00144616131258766 9.70627108343616e-05 -0.000507961486208991 -0.000412891252760587 -0.00116576147371023 0.000199231394178277 -0.00719390999836177 0.000214530233525646
"134" -0.000402304860087735 -0.000229972006962364 0.00103727981597847 -0.000167940816220059 0.00111452091954328 6.19311339349119e-06 -0.00036107709545659 -0.000914551132729321 0.00145196582942334 0.000104836360413091 -0.000508548992778771 -0.0004158576933205 -0.00114962628020521 0.000199377713983766 -0.00733746049360765 0.000212342761431072
"135" -0.000400036901027521 -0.000237518770663017 0.00104312266362799 -0.000169442172120384 0.00112031197375657 1.14211614303528e-06 -0.000353455736885299 -0.000909641598851956 0.00144984836313417 0.000112450294276536 -0.000509266056933343 -0.000419162865963181 -0.00113371381382894 0.000199628176596933 -0.0074764576923987 0.000210322355152369
"136" -0.000397440345816331 -0.000244441905746406 0.00104795530822815 -0.000170650421467724 0.00112598521351247 -4.04005954724988e-06 -0.000345037892669582 -0.000904328848357321 0.00144022173592827 0.000119887279383571 -0.000510141233722037 -0.000422800748204598 -0.00111802944045785 0.000200002017675701 -0.00760977080491256 0.000208492362886192
"137" -0.00039444001562944 -0.000250699085052471 0.00105180121045693 -0.000171548691697809 0.00113163003413865 -9.29429277242152e-06 -0.000335819680396139 -0.000898649862778689 0.00142356568263385 0.00012712407508917 -0.00051120497549216 -0.000426757709079089 -0.00110258145863704 0.000200513284717379 -0.0077363053622821 0.000206872933319169
"138" -0.000390973161968544 -0.000256253972996982 0.00105469837209213 -0.000172123122994119 0.00113734254129944 -1.45611587428114e-05 -0.000325791184282208 -0.000892653086576074 0.00140043738098634 0.000134140129645755 -0.000512488320500548 -0.000431019343642366 -0.00108738444933747 0.000201177975700589 -0.00785501074980071 0.000205489394244539
"139" -0.000386967001224478 -0.000261081497646787 0.00105669784438159 -0.000172366215513174 0.00114321987632393 -1.9789832721603e-05 -0.000314956584731929 -0.000886379935407228 0.00137144989299691 0.000140918037118165 -0.000514013945339546 -0.000435569427123852 -0.00107244051726555 0.000202009967388177 -0.00796488639787175 0.000204355333117437
"140" -0.000382367724572445 -0.000265161284854154 0.00105784960452864 -0.000172271274960896 0.00114935092907658 -2.49263122058464e-05 -0.000303323626883185 -0.000879877036041457 0.00133726592880859 0.000147440875675244 -0.000515807066724723 -0.000440384942593424 -0.00105775914036923 0.00020302297884911 -0.00806497660565488 0.000203488750010934
"141" -0.000377123027059506 -0.00026848363663266 0.00105821983941894 -0.00017184477366925 0.0011558371630385 -2.99222176325668e-05 -0.000290904660529422 -0.000873192564995921 0.00129858291477313 0.000153687406321047 -0.000517892943579179 -0.000445440744259086 -0.00104334591415542 0.000204228888433288 -0.00815439991529296 0.00020290302982388
"142" -0.000371188805985595 -0.000271046092098131 0.0010578679310003 -0.000171094167964372 0.00116275042689956 -3.4738676102822e-05 -0.00027772478866178 -0.00086637434504658 0.00125613023730638 0.000159641980333898 -0.000520288473622811 -0.000450704753191816 -0.00102919842625841 0.000205632469060717 -0.0082323198508547 0.000202608371878433
"143" -0.000364532783106994 -0.000272853162955149 0.00105687396169964 -0.000170028063169076 0.00117017525350734 -3.93272728522871e-05 -0.000263812723694982 -0.000859474327374361 0.00121065006326117 0.000165287438544163 -0.000523015943498362 -0.0004561434905912 -0.00101531676829687 0.000207243646145861 -0.0082979820169158 0.00020261082724324
"144" -0.000357124509921417 -0.000273917890182232 0.00105530355758361 -0.000168664592059457 0.00117817431289267 -4.36593097482569e-05 -0.000249201590428068 -0.000852537157390941 0.00116288972435307 0.000170604070945725 -0.000526082333707294 -0.000461720989530663 -0.00100169537774565 0.000209062778168151 -0.00835070663453596 0.000202914789147287
"145" -0.000348947901610736 -0.000274264291811576 0.00105324065421937 -0.000167025260601043 0.00118680752956877 -4.77018803988875e-05 -0.000233936829341685 -0.000845611011477833 0.00111359305622001 0.000175580402394859 -0.000529498738144932 -0.000467392238147496 -0.000988320170519264 0.00021109588086564 -0.00838988937558927 0.000203521931740789
"146" -0.000340003121946546 -0.00027392178888498 0.00105075463847931 -0.000165133950898923 0.0011961125241401 -5.14338514121885e-05 -0.000218072599402256 -0.000838744958475074 0.00106349911444201 0.000180194159739977 -0.00053327383540781 -0.000473113977270048 -0.000975175680167842 0.000213337966667328 -0.00841501006519964 0.00020443116456461
"147" -0.000330290391352126 -0.000272922867365518 0.00104792048121246 -0.000163024761475688 0.00120611085273741 -5.48377434316011e-05 -0.000201666367140222 -0.000831986967093721 0.00101331049635479 0.000184431129159768 -0.00053740339506187 -0.000478837781832952 -0.000962239106723394 0.000215787529231264 -0.00842563778752833 0.000205638357297159
"148" -0.000319822356780703 -0.000271315981994491 0.00104481726629547 -0.000160728824253032 0.0012168228479622 -5.79021166922212e-05 -0.00018478541057283 -0.000825377558818329 0.000963713547994268 0.000188271527428568 -0.000541891138534957 -0.000484510656142707 -0.000949484898525704 0.000218439481324776 -0.00842144013019364 0.000207133665819318
"149" -0.000308632738073213 -0.000269148370679192 0.00104150528569007 -0.000158283789095133 0.00122823115193278 -6.06193773682825e-05 -0.000167508182230248 -0.000818963224363587 0.000915365637323664 0.000191701683241201 -0.000546725876452221 -0.000490076328051875 -0.000936878299265643 0.000221282081368009 -0.0084021902647534 0.000208910395417457
"150" -0.00029675110244202 -0.00026647630008727 0.00103805546070681 -0.000155731045921446 0.00124031651327699 -6.29946803833342e-05 -0.000149909537746995 -0.000812783145244117 0.00086888007698118 0.000194700124571615 -0.000551897667761006 -0.000495479177248807 -0.000924380026832605 0.000224302699343428 -0.00836776139385187 0.000210952133286064
"151" -0.000284223581186557 -0.000263361094818857 0.00103452955538601 -0.000153113229873316 0.0012530389608452 -6.50323932256917e-05 -0.000132079430623846 -0.000806874365232288 0.000824827827174791 0.000197253762498411 -0.000557390700876382 -0.0005006600224401 -0.000911945637044015 0.000227487668850595 -0.00831815130639381 0.000213244491148135
"152" -0.000271109380639778 -0.000259870557597896 0.00103098110968952 -0.000150475941771772 0.00126633402835742 -6.67494031539663e-05 -0.000114112436004349 -0.000801273797486859 0.000783738177238382 0.000199342802780667 -0.000563183438222052 -0.000505558630513571 -0.000899523997367656 0.000230817459764048 -0.00825346028640063 0.00021576830241894
"153" -0.000257471073784972 -0.000256075063038365 0.00102746206775091 -0.000147864606233406 0.00128012649286689 -6.81628835301883e-05 -9.61067229729154e-05 -0.000796011541875899 0.000746097121366461 0.000200953396506451 -0.000569251003090279 -0.000510112374948142 -0.000887061517196785 0.000234274867422389 -0.00817392841907099 0.00021850439834001
"154" -0.000243382815800428 -0.000252044952435505 0.00102401512873035 -0.000145330335829936 0.00129432288136366 -6.92985870783449e-05 -7.81633299977417e-05 -0.000791113448140452 0.000712332365326621 0.000202065336823529 -0.000575568724885513 -0.000514262429034389 -0.000874500225527978 0.000237834917709161 -0.00807989557723822 0.000221429264584245
"155" -0.000228927345544375 -0.000247856940459184 0.00102067734749419 -0.000142922228158138 0.00130881210393278 -7.01873715526142e-05 -6.03895199548768e-05 -0.000786607896695715 0.000682829130543282 0.000202670497837496 -0.000582103455452293 -0.000517947031714404 -0.000861774877177183 0.000241475314277948 -0.00797184784252535 0.000224517552664772
"156" -0.000214192897810257 -0.00024359166719114 0.00101747713629203 -0.00014068623524831 0.00132346261014593 -7.08609242884184e-05 -4.28935717252802e-05 -0.000782513509210271 0.000657916068576166 0.000202746986997104 -0.000588819055086417 -0.000521107310824864 -0.000848819209586304 0.000245163844174956 -0.00785038140578078 0.000227746520923387
"157" -0.000199272669901905 -0.000239322327755134 0.00101443612813617 -0.000138670466596349 0.00133813975801465 -7.13603870368652e-05 -2.57855955309683e-05 -0.000778850037595506 0.000637866820791253 0.000202289140673288 -0.000595679617034419 -0.000523683127457971 -0.000835569276584962 0.00024888072665837 -0.00771622227821577 0.000231086674180557
"158" -0.000184269123736375 -0.000235130177533923 0.00101157349189261 -0.00013692432272076 0.00135269165623742 -7.17226521560773e-05 -9.17779666951909e-06 -0.000775626409035957 0.000622897844318911 0.000201281758443568 -0.000602642479847497 -0.000525624192002764 -0.000821955751107525 0.000252594448929308 -0.00757021055984235 0.000234509150984746
"159" -0.000169286247535705 -0.000231087633732444 0.00100889484410094 -0.000135488238336044 0.00136695234813916 -7.19919318233937e-05 6.81885881455441e-06 -0.000772855046736898 0.000613170908303176 0.000199718625455749 -0.000609668778783369 -0.000526876526157951 -0.000807908124012833 0.000256271796621625 -0.00741329148225213 0.000237986121066765
"160" -0.000154429146213472 -0.000227274381674573 0.00100640549670439 -0.000134406048061355 0.00138075848123012 -7.22159818737817e-05 2.21010717462666e-05 -0.000770536305805474 0.000608801265218543 0.000197590659169536 -0.000616710798725263 -0.000527393559122527 -0.000793357122184807 0.000259883817927554 -0.00724650237175208 0.000241489595435797
"161" -0.00013980744408859 -0.000223756772707782 0.00100410224987065 -0.000133718230898913 0.00139393127889125 -7.24417297924503e-05 3.65612082562049e-05 -0.000768672577876636 0.000609844946009427 0.000194900152336161 -0.00062372559764475 -0.00052713360937187 -0.000778236806023023 0.000263399732125543 -0.00707097365606047 0.000244989262489865
"162" -0.000125533452580047 -0.000220607251666014 0.00100197044424553 -0.000133455464567911 0.00140629109940624 -7.27142139704651e-05 5.00961760817929e-05 -0.000767262225141076 0.000616302030167078 0.000191637998255999 -0.000630662400077103 -0.000526060110379725 -0.000762480478650385 0.000266789736333833 -0.00688789196476488 0.000248457716944275
"163" -0.000111717406792923 -0.00021788223900852 0.00099999790216548 -0.000133650309541731 0.00141766780557602 -7.30773233283556e-05 6.26103486484315e-05 -0.000766296263390396 0.000628116638184221 0.000187817626792967 -0.000637480471609129 -0.000524139137725243 -0.000746026796804336 0.00027002307802128 -0.00669850651839117 0.000251864605693682
"164" -9.84661327352945e-05 -0.000215639615101951 0.000998166006441053 -0.000134326585589583 0.00142787813809377 -7.35770176960653e-05 7.40128108095655e-05 -0.0007657640885296 0.000645189368241735 0.000183438527473725 -0.0006441299172006 -0.00052134936265742 -0.000728819622504765 0.000273075589027961 -0.00650408802339003 0.000255186556870515
"165" -8.58894035332919e-05 -0.000213931600109677 0.000996449735167735 -0.000135503866476381 0.00143675523726951 -7.42580130931768e-05 8.42170338534072e-05 -0.00076565186665472 0.000667357838700378 0.000178513914602503 -0.000650568125590891 -0.000517672498648622 -0.000710809571982332 0.000275910973561724 -0.00630592596653091 0.000258394526375513
"166" -7.4089298819142e-05 -0.000212798752762013 0.00099481697631444 -0.000137196088984383 0.00144414120850061 -7.51553375720905e-05 9.31523219157238e-05 -0.000765942156158185 0.000694415590841663 0.000173061056476119 -0.000656750169132435 -0.000513099833111521 -0.000691948044811834 0.000278511178593371 -0.00610529686224188 0.000261466210707065
"167" -6.31663004114915e-05 -0.000212277615135375 0.000993241436519905 -0.000139406770378411 0.00144988234226409 -7.63077479886161e-05 0.000100748780320499 -0.00076661682503123 0.000726107233325301 0.000167097582064307 -0.000662633350409882 -0.000507627529102847 -0.000672199979681976 0.000280849024355271 -0.00590343907585254 0.000264380990529104
"168" -5.32162923140155e-05 -0.000212393192768731 0.000991686534097397 -0.000142139114434516 0.00145384011603942 -7.7748453710745e-05 0.000106948603800707 -0.000767651654944777 0.000762127183329583 0.000160646912698564 -0.000668176594124642 -0.000501265159619788 -0.000651538397147607 0.000282909350946496 -0.00570154080896681 0.000267116278052876
"169" -4.43282635804368e-05 -0.000213161911587652 0.000990118079821051 -0.000145381405233122 0.0014559003486874 -7.94992084760035e-05 0.000111708640962538 -0.000769024152306419 0.000802120299477727 0.000153740088057144 -0.000673341663099576 -0.000494026693042788 -0.000629943703875523 0.000284668284238485 -0.00550072319815374 0.000269658812890857
"170" -3.65781919103395e-05 -0.000214591016693582 0.00098850095614659 -0.000149119982622997 0.00145596338455447 -8.15823751343472e-05 0.000114989067259772 -0.000770706321187828 0.000845686655005031 0.000146412693399775 -0.000678098036132583 -0.000485936468075695 -0.000607404330131851 0.000286113045466994 -0.0053020029844741 0.000271993718700495
"171" -3.00449501361856e-05 -0.000216680533827758 0.000986796628580617 -0.000153330956657461 0.00145394871620235 -8.40158365509482e-05 0.000116767465865348 -0.000772673652110995 0.000892382755984959 0.000138704776620703 -0.000682410135908445 -0.000477024940255422 -0.000583923847471554 0.000287236574797605 -0.00510629919185835 0.000274109094315285
"172" -2.47997001488999e-05 -0.000219415332585965 0.000984969193930319 -0.000157985382473962 0.00144979900756197 -8.68020924737633e-05 0.000117024646396902 -0.000774897086374061 0.000941713457504555 0.000130658802655353 -0.000686253671313541 -0.000467334244431551 -0.000559517678669483 0.000288026689438453 -0.00491441416760706 0.000275996954791236
"173" -2.08908646600975e-05 -0.000222776083894072 0.000982985498346692 -0.000163040456746074 0.00144348799200929 -8.99485000700298e-05 0.000115768397790857 -0.000777346809939731 0.000993147546876833 0.000122324763400043 -0.000689605118137405 -0.000456914360828906 -0.000534204298245107 0.000288485815156023 -0.00472701277176611 0.000277653695659428
"174" -1.83727618816242e-05 -0.00022672827104413 0.000980805305711718 -0.000168452680799297 0.0014350085624413 -9.34484902249585e-05 0.000113002526146217 -0.0007799967505241 0.00104611917926366 0.000113756800238021 -0.00069244447442174 -0.000445820363395852 -0.000508022464790062 0.000288612199654395 -0.00454463103675758 0.000279079219945298
"175" -1.72812498733851e-05 -0.000231235133579611 0.0009784024008481 -0.000174166498628583 0.00142438335844644 -9.72866232672562e-05 0.000108750258875701 -0.000782816663692298 0.00110001556731461 0.000105011977818493 -0.000694757174815214 -0.000434120876226244 -0.000481019334441464 0.000288410990152705 -0.0043676664793552 0.000280274948131903
"176" -1.76500597391751e-05 -0.000236244474343377 0.000975745674800176 -0.000180120548334633 0.00141166132548099 -0.00010144594845326 0.00010304767249258 -0.00078578047059628 0.00115420984309122 9.61547985514553e-05 -0.000696533450701884 -0.000421885300036271 -0.000453250555717427 0.000287894972367372 -0.00419636849298389 0.000281249645653425
"177" -1.94968614256958e-05 -0.000241692564594222 0.000972802893266803 -0.000186248801801021 0.0013969211560423 -0.000105900409970656 9.59366456852121e-05 -0.000788860942895343 0.00120804147355929 8.72527853835456e-05 -0.000697771622973672 -0.000409192535513424 -0.000424788642729404 0.000287074119070279 -0.00403085616274588 0.000282011158220631
"178" -2.28328760350848e-05 -0.000247518176371902 0.000969550449167039 -0.000192474282433204 0.00138026246748361 -0.000110615702899125 8.7475395997054e-05 -0.000792037657206081 0.00126081968332608 7.83722345043783e-05 -0.000698467819856604 -0.000396129253024769 -0.000395716762340208 0.000285973016320832 -0.00387110854318429 0.000282571759350721
"179" -2.76579401977903e-05 -0.000253645203762056 0.00096596798536907 -0.000198718275311539 0.00136182027880802 -0.000115550339449278 7.77271466013432e-05 -0.000795283977429904 0.00131184460126997 6.95853749981988e-05 -0.000698631851599638 -0.00038278303002289 -0.00036612604951876 0.000284609261356187 -0.00371698387867322 0.000282952544999773
"180" -3.39628288479077e-05 -0.000259988667765082 0.000962042003109034 -0.000204900750088689 0.00134175279371426 -0.000120661001859425 6.67688830849305e-05 -0.000798576488404498 0.00136041140134959 6.09701482434112e-05 -0.000698269839892017 -0.000369250334902934 -0.000336123172295749 0.000283009337297884 -0.00356822711566942 0.000283170793877231
"181" -4.17239944684505e-05 -0.000266465650377711 0.000957753479609996 -0.000210924313360578 0.00132023050136543 -0.000125893613279132 5.46847389094052e-05 -0.00080190266595783 0.00140580566800586 5.26010968201727e-05 -0.000697398334223876 -0.000355627765721332 -0.000305816216441655 0.000281208254201486 -0.00342448205280271 0.000283250722808572
"182" -5.0915890131542e-05 -0.000272982542263545 0.000953092625534192 -0.000216704799797688 0.00129745966985794 -0.000131192645788488 4.15697195070729e-05 -0.000805239361243613 0.00144733142915549 4.45566991268067e-05 -0.000696035412237067 -0.000342018218298634 -0.000275329588208405 0.000279237492315292 -0.00328529451300097 0.000283217133921541
"183" -6.15027750445986e-05 -0.000279443127913061 0.000948052138062801 -0.000222142308424215 0.00127365801017046 -0.000136500081312569 2.75174226832902e-05 -0.000808579057544604 0.00148430548066928 3.69145820498819e-05 -0.000694207248408002 -0.000328521786216133 -0.000244793432145255 0.000277131406528642 -0.00315014154592063 0.000283101770637172
"184" -7.34314363889733e-05 -0.000285751476035841 0.0009426326322107 -0.000227146721591101 0.00124906627289114 -0.000141745979855043 1.26379749116937e-05 -0.000811904241814705 0.00151607126233969 2.97536161883867e-05 -0.000691942276244807 -0.00031524329476936 -0.000214341166674984 0.000274934090579282 -0.00301843505829476 0.000282931515690677
"185" -8.66474342542041e-05 -0.000291809600814887 0.00093683288757429 -0.000231620750405851 0.00122393164672234 -0.000146865846724048 -2.95812406708974e-06 -0.000815207945436565 0.00154200815271897 2.31452673777313e-05 -0.000689268772114467 -0.00030228317793581 -0.000184116473833735 0.00027268411204979 -0.00288954621312622 0.000282740876782571
"186" -0.000101088382991871 -0.00029751407192019 0.000930656840936457 -0.00023546752664935 0.00119851575674806 -0.00015179267746908 -1.91593402572961e-05 -0.000818482257705309 0.00156154240144008 1.71716369587271e-05 -0.00068622755872983 -0.000289741739575719 -0.000154263248343876 0.00027042667119419 -0.00276282232343572 0.0002825618488574
"187" -0.000116682720231284 -0.000302771029051525 0.000924114841795252 -0.000238598027635288 0.00117308782616898 -0.000156454927424682 -3.58468012716958e-05 -0.000821725574011275 0.00157415350331326 1.19005067285849e-05 -0.00068285865342393 -0.000277718731707012 -0.000124929963396076 0.000268206321986988 -0.00263759358503165 0.000282433312895678
"188" -0.000133347759568455 -0.000307483027954571 0.000917224728631807 -0.000240924725414483 0.00114793011866549 -0.000160784174328439 -5.28959875418978e-05 -0.000824930348525557 0.00157938702803179 7.40290497366244e-06 -0.000679196698004842 -0.000266309798883365 -9.6265839430888e-05 0.000266068525588985 -0.00251318860064689 0.000282386352204618
"189" -0.000151004746457893 -0.000311558076280372 0.000909991365120962 -0.000242360343315485 0.00112330899093783 -0.000164711806492725 -7.01895475651766e-05 -0.000828101238976679 0.00157686898197338 3.74156148779535e-06 -0.000675294889663644 -0.000255601746777157 -6.84216699397877e-05 0.000264058633746337 -0.00238896385224942 0.000282457998555466
"190" -0.000169553686262062 -0.000314914210030668 0.000902443380099266 -0.000242830900606046 0.00109950923115953 -0.000168174411872967 -8.76091505996084e-05 -0.000831233099276531 0.00156630552614108 9.76809968781678e-07 -0.000671192894127083 -0.000245681472580958 -4.15463443856627e-05 0.000262219302087611 -0.00226430323417248 0.000282683818701255
"191" -0.000188900589589935 -0.000317466486647761 0.000894596739337151 -0.000242262458657773 0.00107679004456811 -0.000171107576580323 -0.000105028793518118 -0.000834333137049936 0.00154748660193459 -8.3427377362531e-07 -0.000666941884296182 -0.000236626840918965 -1.57829713263704e-05 0.000260599750615844 -0.00213863005222405 0.000283096260285045
"192" -0.000208941368927289 -0.000319142696710811 0.000886478088811104 -0.000240595508513102 0.00105541752959162 -0.000173457407849685 -0.000122335354903607 -0.000837406068561547 0.00152029939628137 -1.64953951181572e-06 -0.000662590920719602 -0.000228505660487951 8.72468524485963e-06 0.00025923326173591 -0.00201143013768704 0.000283728746200008
"193" -0.000229571173588925 -0.000319880724546613 0.000878114416789379 -0.000237775799170843 0.00103564274874439 -0.000175170210592891 -0.000139411626361113 -0.00084045597439655 0.00148473619964413 -1.42620616661913e-06 -0.000658186497982156 -0.000221383915976424 3.18414170680393e-05 0.000258166926204112 -0.00188224797615109 0.000284609665082315
"194" -0.000250674689341702 -0.000319625049442369 0.000869538323466959 -0.00023376151026615 0.00101769873689508 -0.00017620217736894 -0.000156147003295392 -0.000843489132451302 0.00144087575314712 -1.29132412210211e-07 -0.000653778423661836 -0.000215312094180954 5.34429632820703e-05 0.000257433752411683 -0.00175070442230307 0.000285768983135669
"195" -0.000272138218883641 -0.000318333443339695 0.000860777641967543 -0.000228522664244123 0.00100180068906026 -0.00017651336137898 -0.000172435081925685 -0.00084650996478528 0.00138889988032154 2.26347452264092e-06 -0.000649415977341856 -0.000210334615538641 7.34072259084566e-05 0.000257066850226183 -0.0016165073982622 0.000287229899288089
"196" -0.000293842672233393 -0.000315972913328712 0.000851866953619903 -0.000222039585137944 0.000988147581735291 -0.000176077400824358 -0.000188170710968048 -0.000849529012009084 0.00132909488672548 5.76588654443378e-06 -0.000645147255906428 -0.00020648795427019 9.16242993996361e-05 0.000257093891831747 -0.00147944923877267 0.000289014307097437
"197" -0.000315666333063628 -0.000312523938467558 0.000842842788365103 -0.000214308595878666 0.000976912888441901 -0.000174873682904546 -0.000203260070538651 -0.000852551271046942 0.00126182602295723 1.03850239091003e-05 -0.000641011767734134 -0.000203791144006301 0.000107999013562932 0.000257537456370494 -0.00133941177519987 0.000291139568719502
"198" -0.000337489661260223 -0.000307981661347713 0.000833742195441636 -0.000205335856824353 0.000968241347231506 -0.000172895454137739 -0.000217611130189621 -0.000855586266170178 0.00118755522234103 1.61137815737782e-05 -0.000637060375143502 -0.000202261519032442 0.000122440948211031 0.000258419027403784 -0.00119638097321911 0.000293620084904229
"199" -0.000359185515687493 -0.000302354195059723 0.000824596337963571 -0.000195145478816434 0.000962254984215906 -0.000170136572789804 -0.000231144131825985 -0.000858638281670846 0.00110681244513876 2.29418615606778e-05 -0.000633329252393717 -0.000201896941790113 0.000134881683079238 0.000259749702913803 -0.00105044615340436 0.000296462386395404
"200" -0.000380628182021441 -0.000295659892685302 0.000815443700543361 -0.000183773049021826 0.000959040784705876 -0.000166615323143293 -0.0002437804233266 -0.000861719386028083 0.00102020297333091 3.0839345397509e-05 -0.000629854680072048 -0.000202688239696492 0.000145261592399162 0.000261536241988584 -0.000901803106983266 0.000299671234049818
"201" -0.000401691230525167 -0.000287939950379971 0.000806323504867571 -0.000171271782865753 0.000958655862310105 -0.000162351838723476 -0.000255455324626298 -0.000864832773233532 0.000928394635368761 3.97704885556229e-05 -0.000626674217226878 -0.000204615627572245 0.000153539173314099 0.000263780654427652 -0.000750747171141442 0.000303247100298631
"202" -0.000422249824419775 -0.000279243934428536 0.000797275828077877 -0.000157708892620145 0.000961129332992353 -0.000157376983853344 -0.00026610380308568 -0.000867982390703447 0.000832103675264111 4.96899873677795e-05 -0.000623814975646013 -0.000207646288275051 0.000159688243054214 0.000266476026084395 -0.000597681875703862 0.000307180230655777
"203" -0.000442175909795823 -0.000269640214545793 0.000788332687982249 -0.000143161974054452 0.000966441762325159 -0.000151743553976787 -0.000275677372907937 -0.000871177531695006 0.00073209360978394 6.05376550784999e-05 -0.000621302745827478 -0.000211738416726114 0.00016369412195596 0.000269610131342252 -0.000443111748337436 0.000311459159077369
"204" -0.00046134764139094 -0.000259211675943663 0.000779534302847111 -0.000127730587611784 0.000974554420777218 -0.000145504326848668 -0.000284129408385206 -0.000874420270791244 0.000629157301075886 7.22480354513728e-05 -0.000619162867248881 -0.000216836527495146 0.000165563256901569 0.000273164789830505 -0.000287641860420812 0.000316068865207943
"205" -0.000479636872826403 -0.000248054751292053 0.000770911734769877 -0.000111520039261394 0.000985377485733628 -0.000138730722529153 -0.00029142562769701 -0.000877718511548858 0.000524107069778215 8.47368369327023e-05 -0.000617407219486416 -0.000222877482013418 0.000165318310763049 0.000277110436940146 -0.000131961227527196 0.000320984057711649
"206" -0.000496922506368468 -0.000236282004327311 0.000762501544402772 -9.46508143558044e-05 0.000998789575044 -0.000131496575028904 -0.000297536634475828 -0.000881073531517334 0.000417766129077947 9.79193227348929e-05 -0.000616048892353239 -0.000229788189069733 0.000162996341102496 0.000281418471687151 2.31451236347328e-05 0.000326178742624423
"207" -0.000513084178957124 -0.000224021923813039 0.000754333878761015 -7.72584221089929e-05 0.00101463576115744 -0.000123895848563782 -0.000302442982760071 -0.00088448804909171 0.00031095309864259 0.000111695090226224 -0.000615093942460092 -0.000237486709104984 0.000158651136932876 0.000286046778148117 0.000176834169099918 0.000331616100570071
"208" -0.000528003464141086 -0.000211408545126558 0.000746440624806455 -5.94864227102982e-05 0.00103271561823788 -0.000116024251514725 -0.000306133118959525 -0.000887968831848875 0.000204486157161102 0.000125955048615672 -0.000614546407199477 -0.000245881559939788 0.00015234899293305 0.000290954788162716 0.000328180256075338 0.000337260041519191
"209" -0.000541564630714084 -0.000198596016912972 0.000738848940589926 -4.14882922420225e-05 0.00105279777779398 -0.000107993114817242 -0.000308605850676193 -0.000891516780147596 9.91586613079182e-05 0.000140584723032235 -0.000614400579675673 -0.000254874294769584 0.000144176492003262 0.000296085310558111 0.000476213121719937 0.000343065292338935
"210" -0.000553654230751411 -0.000185748754945875 0.000731585782258223 -2.34276744146197e-05 0.00107462163457708 -9.99141726810227e-05 -0.000309859978336143 -0.000895132737833285 -4.26321125862502e-06 0.000155462200387249 -0.000614650520522508 -0.000264361063641703 0.000134230667485911 0.000301388801985529 0.00061991909144338 0.000348984254381038
"211" -0.000564168389479424 -0.000173039860104742 0.000724676680972856 -5.47316105441867e-06 0.00109788275707358 -9.19109272192022e-05 -0.000309910212249532 -0.000898819716822198 -0.000105044669487316 0.000170457750768585 -0.000615283134690973 -0.00027422946078278 0.00012262044668875 0.000306796163913003 0.00075825830069362 0.00035496245932349
"212" -0.000573003438188113 -0.000160645703595978 0.00071813113371042 1.22038315410667e-05 0.00112223952221457 -8.41108253883658e-05 -0.00030877430169342 -0.000902587260364135 -0.000202491635182034 0.000185437186319956 -0.000616279060982218 -0.000284365573170667 0.000109469570291031 0.000312248877218448 0.000890183615602066 0.000360948770349711
"213" -0.00058006107952764 -0.000148758871233073 0.00071197493827256 2.9420104853222e-05 0.00114734219016237 -7.66438463550955e-05 -0.000306476677685327 -0.000906427922723019 -0.000295953499214091 0.000200263958689543 -0.000617619027646646 -0.000294651420282316 9.49120334597001e-05 0.000317672220201634 0.00101465610577514 0.000366878743597243
"214" -0.000585247870287092 -0.000137572052650933 0.000706222564938187 4.59974816052439e-05 0.0011727981525507 -6.96454611390478e-05 -0.000303046128574808 -0.000910347334438039 -0.000384839531462445 0.000214794232988948 -0.000619274237788856 -0.000304964769099339 7.90875246953813e-05 0.000322998343113842 0.00113065862160685 0.000372695834139042
"215" -0.000588480607934485 -0.000127279010782978 0.000700876582467642 6.17594109434569e-05 0.00119819387337944 -6.32470925619961e-05 -0.000298526112084388 -0.000914353535978648 -0.000468608679772386 0.000228892865035323 -0.000621216648046264 -0.000315183440584882 6.21523549974118e-05 0.000328147134038593 0.0012372220868662 0.000378332296471158
"216" -0.000589681130842878 -0.000118076700735045 0.000695947004258785 7.65241194194531e-05 0.00122310639094002 -5.75864599024908e-05 -0.000292953365958763 -0.000918444055712215 -0.000546779496466481 0.000242416082176893 -0.000623414637234643 -0.000325187321960169 4.42604185535519e-05 0.000333042849861731 0.00133342502451288 0.000383724147043312
"217" -0.000588776889608856 -0.000110158812381652 0.000691440476998509 9.01170782034007e-05 0.00124709469501377 -5.27926108171715e-05 -0.000286380656012251 -0.000922620583158963 -0.000618937561475431 0.000255225047349273 -0.000625830611283453 -0.000334856415108318 2.5575760603351e-05 0.000337610103176091 0.00141843345174933 0.000388804346374698
"218" -0.000585713422757264 -0.000103715717590967 0.000687342523842451 0.000102373706899588 0.00126969419562027 -4.89992134153371e-05 -0.000278859918655618 -0.000926894903673701 -0.000684730508230993 0.000267186789158129 -0.000628428350672757 -0.000344071226355788 6.26612013871319e-06 0.000341769329512951 0.00149150049196735 0.000393509973380536
"219" -0.000580430142291917 -9.89315845732712e-05 0.000683656367435785 0.000113131293910637 0.00129046194837753 -4.6324609240364e-05 -0.000270448904524604 -0.000931263137823693 -0.000743877176733751 0.000278170207408623 -0.000631165410548889 -0.000352718582796078 -1.35029342520598e-05 0.000345445340442136 0.00155199837900434 0.000397772211071308
"220" -0.000572891917875183 -9.59821630590646e-05 0.000680369224186287 0.000122238947525565 0.00130893615611011 -4.48872115117939e-05 -0.000261207939968505 -0.000935733741384949 -0.000796169815675312 0.000288053028079927 -0.000634002527878202 -0.000360691718945378 -3.35601821282641e-05 0.000348560082430936 0.00159942047313455 0.000401528918510852
"221" -0.000563066333501807 -9.50303400895895e-05 0.000677465478307002 0.000129556768236375 0.00132467368281355 -4.47971375767218e-05 -0.000251205186577414 -0.000940305256679824 -0.000841466283535792 0.000296720856450503 -0.000636889875832139 -0.00036788982900378 -5.37369947244243e-05 0.000351043939550303 0.00163339863680246 0.000404715838556308
"222" -0.000550940183009636 -9.62179373056908e-05 0.000674919783339849 0.000134956509320905 0.00133723798811281 -4.6151018255775e-05 -0.000240506501226533 -0.000944990978665255 -0.000879703827486093 0.000304067407095363 -0.000639796130584707 -0.000374215204923951 -7.38722724944185e-05 0.00035282758002285 0.00165370690256753 0.000407278385164336
"223" -0.000536499670613526 -9.96888030555516e-05 0.000672714096623921 0.000138328240717297 0.0013462221029169 -4.903700011725e-05 -0.00022918292992636 -0.000949786498879307 -0.000910895447264802 0.000310002007351095 -0.000642666077750524 -0.000379585110875617 -9.38004517518434e-05 0.000353841794087883 0.00166028172563303 0.000409155801820001
"224" -0.000519761676153371 -0.00010554739817331 0.000670812844808127 0.000139574635347817 0.00135123271884096 -5.35322460770618e-05 -0.000217311836605254 -0.00095470050928296 -0.000935127284267849 0.000314443010316534 -0.000645466375737978 -0.000383925323423859 -0.000113368929208758 0.000354027260267849 0.0016532059921931 0.000410299004457411
"225" -0.000500747464042559 -0.000113888695318631 0.000669177744027884 0.000138616705245797 0.0013519118361138 -5.96943532896702e-05 -0.000204963805789852 -0.000959737957797559 -0.000952567254793043 0.000317317965808528 -0.000648150436559269 -0.000387168394473852 -0.00013242942135393 0.00035333117039215 0.00163272419472127 0.000410660859552442
"226" -0.000479492384464972 -0.000124785445366485 0.000667768667582821 0.000135396107354889 0.00134794199858696 -6.75731510452699e-05 -0.000192219093730871 -0.000964901936503787 -0.000963465558149867 0.000318575239078026 -0.000650681330751804 -0.000389262707201785 -0.000150841075624397 0.0003517042804572 0.00159923908710015 0.000410200754734017
"227" -0.000456055180710168 -0.000138278308771954 0.000666541822191888 0.000129869491424713 0.00133904611584368 -7.7202334061042e-05 -0.000179156030511817 -0.000970199063972219 -0.000968147880643379 0.000318177330892899 -0.000653017734009981 -0.000390166828614599 -0.000168474818493621 0.000349105804543045 0.00155329232858869 0.000408882491074749
"228" -0.000430501803581459 -0.000154388002615092 0.000665439545146561 0.00012201760011632 0.0013249899550751 -8.85929384198609e-05 -0.00016584997104717 -0.000975635222894754 -0.000967023461960104 0.00031609606983586 -0.00065512753265816 -0.000389851251019531 -0.00018521273358545 0.000345500158257595 0.00149557708444971 0.000406674985598333
"229" -0.000402923862388104 -0.00017310942481322 0.000664405681520658 0.000111840201327816 0.00130559357388427 -0.000101746885169889 -0.000152384955723351 -0.000981211546727802 -0.000960578244016498 0.000312329555514142 -0.0006569793266523 -0.00038830000562283 -0.000200945806480593 0.000340860254141826 0.00142690876016091 0.000403560302637934
"230" -0.000373425043155622 -0.000194405348891099 0.000663373559773244 9.93604889716422e-05 0.00128073234059949 -0.000116646290005847 -0.00013883509169899 -0.000986938211086129 -0.0009493741042479 0.0003068854329241 -0.000658545193410638 -0.000385508992373728 -0.000215580254993555 0.000335171868407281 0.00134821100830302 0.000399519205201295
"231" -0.000342124930812236 -0.000218214250181662 0.000662275237923002 8.46206461746161e-05 0.00125033059682868 -0.000133260300783452 -0.000125282718490755 -0.000992818889839339 -0.000934042762622173 0.000299785356234411 -0.000659795020942703 -0.000381491792708159 -0.000229036513947131 0.00032842638348125 0.00126050871376159 0.000394549498486766
"232" -0.000309167545647969 -0.000244445793715726 0.000661028872083046 6.76861914825782e-05 0.00121437134151678 -0.00015153089259947 -0.000111804805904853 -0.000998860232849742 -0.000915284047942337 0.000291073518205432 -0.000660715937219593 -0.000376267353283259 -0.000241247303740216 0.000320622567984922 0.00116489291979514 0.000388648732104316
"233" -0.000274704909462953 -0.000272978257834337 0.000659557538784313 4.86413129436578e-05 0.00117290489925676 -0.000171392326402322 -9.84791155537886e-05 -0.00100506543069128 -0.000893863883060224 0.000280805986890775 -0.000661286498136824 -0.000369872383125118 -0.000252165787418337 0.000311768993756895 0.00106251395861784 0.000381825060295408
"234" -0.000238911604847263 -0.000303669778069118 0.000657772201619251 2.75930030501974e-05 0.00112603101797069 -0.000192764503962223 -8.53793004942912e-05 -0.0010114425107963 -0.000870598937177228 0.000269055775050247 -0.000661498033737076 -0.00036235411936913 -0.000261754541800236 0.000301886748024892 0.000954563249431409 0.000374098435699125
"235" -0.000201982660101 -0.000336350202346974 0.000655576457891815 4.6686036346909e-06 0.00107389998000493 -0.000215540899409711 -7.25832537804115e-05 -0.00101799809875194 -0.000846357309142053 0.00025590791863482 -0.000661345336398681 -0.000353769566349979 -0.000269996610429604 0.000291004812877682 0.000842240827220195 0.000365489747146482
"236" -0.000164121563909399 -0.000370822958436409 0.000652874294480867 -1.99893249567887e-05 0.00101673107338907 -0.000239611903288768 -6.01620823829246e-05 -0.00102473964893967 -0.00082205038292853 0.00024146061196816 -0.000660822414156878 -0.000344188096851835 -0.000276886231662449 0.000279161011308756 0.000726749637621865 0.000356034539048328
"237" -0.000125547769655195 -0.000406873591418656 0.000649568625687376 -4.62170576953804e-05 0.000954785329604906 -0.000264847614878396 -4.81838230985584e-05 -0.00103167241750772 -0.000798622681882696 0.000225830413989819 -0.000659935072178087 -0.000333687019099208 -0.000282437688406811 0.00026639912566197 0.000609272451011181 0.000345771006505987
"238" -8.65017635894747e-05 -0.000444262955575844 0.000645541949576054 -7.38323897868814e-05 0.000888366891570434 -0.000291106085083107 -3.67223611551159e-05 -0.00103880452896538 -0.000777042562968212 0.000209134156000367 -0.000658691082762117 -0.000322355320648495 -0.00028668166115889 0.0002527767378206 0.000490940169934757 0.000334750309297537
"239" -4.72340058763909e-05 -0.000482735959923473 0.000640690626667419 -0.000102641729852139 0.000817839602156998 -0.000318233513203835 -2.5840808561798e-05 -0.00104614037619004 -0.000758284175457626 0.000191512304614799 -0.000657104958287514 -0.000310283541207682 -0.000289656637598126 0.000238360617180081 0.000372840528539818 0.000323023404878955
"240" -8.00083115390334e-06 -0.000522028409730899 0.000634903777935247 -0.000132440196467434 0.000743588409219582 -0.000346067727813285 -1.56036645685077e-05 -0.00105368787707733 -0.000743326170593957 0.000173102489466309 -0.000655189057384067 -0.000297573724723102 -0.000291419783926168 0.000223216002519093 0.000255987802565414 0.000310656756737673
"241" 3.09258892461504e-05 -0.000561854895901066 0.000628064074668314 -0.00016299990194283 0.000666038132116838 -0.00037443600421851 -6.07156954506418e-06 -0.00106145498241912 -0.000733124115873539 0.000154052457138393 -0.000652967091960502 -0.000284329197254896 -0.000292044230336711 0.000207429353929257 0.000141318914892059 0.000297713844032873
"242" 6.92700295742271e-05 -0.000601924351232111 0.00062005951446034 -0.000194092839932066 0.000585644890318498 -0.00040315940812932 2.69773480961695e-06 -0.00106944463876069 -0.000728608656828813 0.000134521956532551 -0.00065046448150196 -0.000270661753603565 -0.000291611788490625 0.000191081569177327 2.96713262403397e-05 0.000284268841705097
"243" 0.000106744851882033 -0.000641944273614821 0.000610773441139274 -0.000225479202915723 0.000502882781390319 -0.000432050187744412 1.06532141125089e-05 -0.00107766355862504 -0.000730659496687045 0.000114667913353404 -0.000647705516139783 -0.000256679888149667 -0.000290215467220381 0.000174266031259451 -7.82075588863532e-05 0.000270402439917014
"244" 0.000143066521401714 -0.000681611232678643 0.000600095860052331 -0.00025691140382748 0.000418245489880541 -0.000460920282471355 1.77387084635999e-05 -0.0010861125161747 -0.000740091376851462 9.46535436352547e-05 -0.000644727841188858 -0.000242496785325554 -0.000287958724562514 0.000157081672955074 -0.000181688488317554 0.000256194778181965
"245" 0.000177942898578364 -0.00072062854512607 0.000587916025309045 -0.000288138248584749 0.000332229042024209 -0.000489580030586805 2.39057287190363e-05 -0.00109479763909511 -0.000757638556901189 7.46406386319555e-05 -0.000641555722836232 -0.000228224705922601 -0.000284952994835741 0.000139626509672497 -0.000280239738247908 0.000241734274220568
"246" 0.000211092951310759 -0.000758701952803432 0.000574129016672253 -0.000318906189056933 0.000245349450477309 -0.000517834690340183 2.91150226283829e-05 -0.00110371636812478 -0.000783936610564524 5.47943019858084e-05 -0.000638228869542404 -0.000213977055178889 -0.000281316429452578 0.000122010233635788 -0.000373460767695268 0.000227107587267252
"247" 0.00024223298405273 -0.000795539282714945 0.000558634015795129 -0.000348963033878753 0.000158105316812415 -0.000545494744449568 3.3322094362889e-05 -0.00111287022606894 -0.000819506330878297 3.52703441088123e-05 -0.000634783390093319 -0.000199861613037107 -0.000277171726452239 0.000104339173066844 -0.000461050268091615 0.000212408302950401
"248" 0.00027108655141636 -0.000830864120230013 0.000541337213383503 -0.000378052514854008 7.10027780414019e-05 -0.000572368813746584 3.64879126390891e-05 -0.00112225256160271 -0.000864735623890995 1.62316155907034e-05 -0.000631252412378105 -0.000185982714526438 -0.000272643390914766 8.67215874361398e-05 -0.000542829126872532 0.000197728211899426
"249" 0.000297387611368311 -0.00086440493806319 0.000522146851465882 -0.000405926041537411 -1.5474975342736e-05 -0.000598271401769817 3.85814689626479e-05 -0.00113186290808686 -0.000919865131458446 -2.17437545022697e-06 -0.000627672739566046 -0.000172444279656274 -0.000267857584544406 6.92708161532198e-05 -0.000618724528910813 0.000183156657079037
"250" 0.000320882955883008 -0.00089591255913955 0.000500994049910357 -0.000432342756427255 -0.000100842136196084 -0.000623027509435475 3.95712885312416e-05 -0.00114168889664626 -0.000984988165926637 -1.97975297293563e-05 -0.000624079161125492 -0.000159342132470757 -0.000262939359985459 5.20963726297046e-05 -0.00068876386927556 0.000168785852773284
"251" 0.000341336303063502 -0.000925146654655708 0.00047780784363889 -0.000457064426158136 -0.000184647643513641 -0.000646465351149959 3.94304794204824e-05 -0.00115172114943131 -0.00106002546306945 -3.64989677226209e-05 -0.000620503957728141 -0.000146766818874338 -0.000258012989277697 3.53046390324153e-05 -0.000753088339402897 0.000154710582174299
"252" 0.000358527211881253 -0.000951894338829229 0.000452531003175242 -0.000479867978617188 -0.000266453010236153 -0.000668426867000988 3.81389776007823e-05 -0.00116194398059224 -0.00114473852671531 -5.21509281157882e-05 -0.000616978417881994 -0.000134799436295834 -0.000253196350480866 1.90080531290499e-05 -0.000811920987893333 0.000141014678151787
"253" 0.000372256477032988 -0.000975956886757647 0.000425123210649979 -0.000500540903145892 -0.000345849827081284 -0.000688757262390736 3.56760901592902e-05 -0.00117233743784974 -0.00123870886948105 -6.66324991237181e-05 -0.000613527445503319 -0.000123518642988696 -0.000248599242585246 3.3083789480242e-06 -0.000865584833966614 0.000127781921925154
"254" 0.000382347750268181 -0.000997161501735689 0.000395553683595465 -0.000518885262218657 -0.000422452183820028 -0.000707320892718083 3.20314896530436e-05 -0.00118288073597707 -0.0013413450707758 -7.98331371880592e-05 -0.00061017867444617 -0.000112991446400298 -0.000244330566388522 -1.1698287746933e-05 -0.000914481967153689 0.00011509699737133
"255" 0.000388647858054867 -0.00101535861068919 0.000363808297924909 -0.000534717856858077 -0.000495907456820523 -0.000723994944171695 2.71956165019971e-05 -0.00119354787262001 -0.0014518889146066 -9.16611883271515e-05 -0.000606953847944734 -0.000103277630698395 -0.000240481170961852 -2.59135788439733e-05 -0.000959091472993718 0.000103035214185807
"256" 0.000391038726535189 -0.00103042621834583 0.000329891827805326 -0.000547879202996934 -0.000565890453677333 -0.000738670469977312 2.11634099631491e-05 -0.0012043037386089 -0.00156942099981146 -0.000102031627283428 -0.000603862516019389 -9.44292160566454e-05 -0.000237136794765977 -3.92524302362634e-05 -0.000999941883738712 9.16667958567292e-05
"257" 0.000389425873644095 -0.00104226231533761 0.000293818499422809 -0.000558220534215972 -0.00063211588026986 -0.000751257409769017 1.39339681265827e-05 -0.00121511449000556 -0.0016928650946704 -0.000110872034881722 -0.000600919836884246 -8.64838923947395e-05 -0.000234370483990935 -5.1629862206637e-05 -0.00103763907483402 8.10551605326452e-05
"258" 0.000383740214434472 -0.00105079553866452 0.000255619912847151 -0.000565626495440798 -0.000694323820043731 -0.000761678978572322 5.51691979217097e-06 -0.00122594052946403 -0.00182101382090081 -0.000118134840671321 -0.000598128168263106 -7.94783517460173e-05 -0.000232245839906867 -6.29782416306265e-05 -0.0010728206937893 7.12602127766694e-05
"259" 0.000373951151980377 -0.00105597931491251 0.000215353645489647 -0.000569999993561743 -0.000752295675991545 -0.000769882502023998 -4.07592972290995e-06 -0.00123673327762441 -0.00195254379539623 -0.000123776771756803 -0.000595491247902689 -7.34313942372919e-05 -0.000230813216671676 -7.32303357427432e-05 -0.00110615332167196 6.23290485494417e-05
"260" 0.000360067636080647 -0.00105779416891544 0.000173088512673713 -0.000571270862607853 -0.000805832607109413 -0.000775828835813426 -1.48298633418702e-05 -0.00124743891410146 -0.00208603768119929 -0.000127776651774399 -0.000593005053389141 -6.83558245389226e-05 -0.00023011667765718 -8.23354443574866e-05 -0.00113833316213167 5.43071656793901e-05
"261" 0.000342117115422126 -0.00105624534457465 0.000128915081167211 -0.000569396485088984 -0.000854785202551322 -0.000779501481733994 -2.67178519124689e-05 -0.00125800121625279 -0.00221999372719654 -0.000130126766636251 -0.000590655228384975 -6.42588418375926e-05 -0.000230180399239483 -9.0243817100252e-05 -0.00117006995080131 4.72275475177713e-05
"262" 0.000320171687347377 -0.00105136643023113 8.29368545654643e-05 -0.000564361229735479 -0.00089903006143572 -0.000780903774106053 -3.9710409111892e-05 -0.00126835759598234 -0.00235286168773896 -0.000130836178953747 -0.000588429864910842 -6.11269098536398e-05 -0.000231026736045174 -9.69247581649565e-05 -0.00120206790581248 4.11156788784479e-05
"263" 0.000294331602588832 -0.00104321534587025 3.5286240930588e-05 -0.000556180344070534 -0.000938475475275445 -0.00078006330628423 -5.37709856982544e-05 -0.00127843407437793 -0.00248306087334308 -0.000129935812102185 -0.000586307172751429 -5.89489343889031e-05 -0.000232664334571127 -0.00010235608562308 -0.00123501336211204 3.59875015106179e-05
"264" 0.000264734160074381 -0.00103187130811716 -1.38998910990633e-05 -0.000544900479912875 -0.000973072534278457 -0.000777022618854137 -6.88549140821309e-05 -0.00128816221328968 -0.00260899984371467 -0.000127465382189752 -0.000584261073669059 -5.76947917985854e-05 -0.000235095698134309 -0.000106528876489643 -0.00126957520075321 3.18510023742853e-05
"265" 0.000231544026060038 -0.00101744089973293 -6.44606606351476e-05 -0.00053059125579706 -0.0010027919791447 -0.000771845472813209 -8.49090141897321e-05 -0.00129745906237537 -0.00272911192306011 -0.000123485517953982 -0.000582258098385263 -5.73283350978171e-05 -0.000238315905195533 -0.000109438976610493 -0.00130637905318284 2.87021218587718e-05
"266" 0.000194957349328853 -0.00100004899123227 -0.000116215396032088 -0.000513361370546284 -0.00102764425633213 -0.000764621608956781 -0.000101880684408465 -0.00130624432795122 -0.00284186016385088 -0.000118077147676061 -0.000580271191979522 -5.78063083515674e-05 -0.000242312545371551 -0.000111106654782697 -0.00134599041850299 2.65329528634396e-05
"267" 0.000155205263020447 -0.000979849304163854 -0.000168972308191782 -0.000493345871689519 -0.00104766571586655 -0.000755454388283383 -0.000119700537758256 -0.00131442070516413 -0.00294577812186907 -0.000111324725472853 -0.000578255317214868 -5.90714464959438e-05 -0.000247069953022013 -0.000111550319278705 -0.00138892310075146 2.53223738927008e-05
"268" 0.000112541913276331 -0.00095700693202441 -0.000222520769573333 -0.000470705594041091 -0.00106292304957462 -0.000744465522765512 -0.000138295570677147 -0.00132190344975929 -0.00303947594210186 -0.000103337864533347 -0.000576171840839219 -6.1066379239848e-05 -0.000252563906712756 -0.00011080959227394 -0.00143560944725367 2.50403678264286e-05
"269" 6.7242042436155e-05 -0.000931709653878624 -0.000276642008785401 -0.000445636741471416 -0.00107351498757908 -0.000731802791655095 -0.000157585346830346 -0.0013285916167485 -0.00312165462020757 -9.42397227342045e-05 -0.000573976240059516 -6.37158233408507e-05 -0.000258771011567641 -0.000108930186962136 -0.00148639293898145 2.56480101237693e-05
"270" 1.96106554656521e-05 -0.000904161691572549 -0.000331101862061827 -0.000418356488478652 -0.00107956486295909 -0.000717616866992201 -0.000177486929975222 -0.00133438830435815 -0.00319113281439066 -8.41627669494151e-05 -0.000571624315439967 -6.69444863546764e-05 -0.000265669067093823 -0.000105973881305227 -0.00154152224546428 2.71037722649061e-05
"271" -3.00312890920275e-05 -0.000874582819544006 -0.000385658659390207 -0.000389108108526844 -0.00108122475763719 -0.000702086924915169 -0.000197904971312413 -0.00133919762110731 -0.00324683915277372 -7.32516399337859e-05 -0.000569065667584874 -7.06681029194466e-05 -0.000273229408816551 -0.000102002945921122 -0.00160112724187656 2.93502768112369e-05
"272" -8.1344315152326e-05 -0.000843205731829484 -0.000440052311808087 -0.000358156556736095 -0.00107866568132737 -0.000685398111286062 -0.00021873811766007 -0.00134291175020538 -0.00328783846303396 -6.16678991901374e-05 -0.000566251193300974 -7.47991282546158e-05 -0.000281429188838151 -9.71026213033391e-05 -0.00166522496923624 3.23305862442636e-05
"273" -0.000133971801339831 -0.000810278786672529 -0.000494024192742153 -0.000325787247428791 -0.00107208348045682 -0.000667742894855198 -0.000239880154638909 -0.00134542913326674 -0.00331332675094143 -4.95719327830584e-05 -0.000563131567661691 -7.92426521613706e-05 -0.00029024203500736 -9.13586011141403e-05 -0.00173370260764388 3.59755331284904e-05
"274" -0.000187552925697441 -0.00077605882924293 -0.000547315079494054 -0.000292302009524965 -0.00106170808134125 -0.000649332377395363 -0.000261222566638749 -0.00134665946812066 -0.00332262970506518 -3.71418583114071e-05 -0.000559659713841017 -8.39004157797225e-05 -0.000299651454938314 -8.48597551592555e-05 -0.00180632056262585 4.0213729975629e-05
"275" -0.000241710632565567 -0.000740812665768477 -0.000599646975463675 -0.000258012890414405 -0.00104776990269788 -0.00063037415459042 -0.000282647858199287 -0.001346496899851 -0.00331522161761177 -2.45545207145618e-05 -0.000555781893434463 -8.86778057923318e-05 -0.000309637696731794 -7.77149768952129e-05 -0.00188269913593109 4.49692268343772e-05
"276" -0.00029607106177905 -0.000704811634404339 -0.000650755285219126 -0.000223249130491912 -0.00103053533263772 -0.000611091255586683 -0.00030403406623773 -0.00134485313930188 -0.00329070329169631 -1.19957441474252e-05 -0.000551455968973915 -9.34713633346741e-05 -0.000320186500563371 -7.00257783960601e-05 -0.00196232141036043 5.01607746197351e-05
"277" -0.000350247954181884 -0.000668334589325058 -0.000700369506912555 -0.000188338475310625 -0.00101027740834853 -0.000591698965259562 -0.000325259229671381 -0.00134163514784481 -0.00324881808689679 3.53654269632017e-07 -0.000546630168228303 -9.81858711856123e-05 -0.000331287029933747 -6.19041279041328e-05 -0.002044534099806 5.57048829146621e-05
"278" -0.000403866435827275 -0.000631661522106201 -0.00074822209915787 -0.000153612971775306 -0.000987283125390715 -0.000572420140168301 -0.000346197232985104 -0.0013367625079645 -0.00318943562774254 1.23049331871656e-05 -0.000541266193741408 -0.000102719849592278 -0.000342934045913168 -5.34674437799682e-05 -0.00212854308911477 6.15160847872974e-05
"279" -0.000456549207806538 -0.000595073477575273 -0.000794059001866338 -0.000119406853982205 -0.000961856627228348 -0.000553465332160358 -0.00036671981615405 -0.00133015739748788 -0.00311254922474986 2.3680215976631e-05 -0.000535323204844671 -0.000106982228441566 -0.000355120525492068 -4.48271341046526e-05 -0.00221341691565207 6.75073599970401e-05
"280" -0.0005079268607656 -0.000558851421502681 -0.000837616407202124 -8.60433295210668e-05 -0.000934305489132395 -0.000535047096590123 -0.000386696595182342 -0.00132174896620135 -0.00301828734998722 3.42968517205127e-05 -0.000528757947969801 -0.000110885451709036 -0.000367844661146582 -3.61000918177076e-05 -0.00229810088214441 7.3589392389878e-05
"281" -0.000557644088914287 -0.00052326610274177 -0.000878657035953622 -5.3842591967188e-05 -0.000904944140363679 -0.000517369333572052 -0.000405999344732166 -0.00131147943867138 -0.00290688410140535 4.3988492363677e-05 -0.00052153826048113 -0.000114342676931555 -0.000381104888556671 -2.74044062402457e-05 -0.0023814195921273 7.96809410866889e-05
"282" -0.000605354946783348 -0.000488591300465016 -0.000916946774040994 -2.31081425544756e-05 -0.000874090179672463 -0.000500618441914673 -0.000424501832465787 -0.00129929250915883 -0.00277868690350251 5.25945244686269e-05 -0.000513635329435328 -0.000117279245546281 -0.000394904892801401 -1.88515733147168e-05 -0.00246209148974252 8.56927543805877e-05
"283" -0.000650731126470961 -0.000455084725257358 -0.000952259569572466 5.87166017159231e-06 -0.000842057245205418 -0.000484975046930796 -0.000442079159233155 -0.00128514166748668 -0.00263415630796092 5.99630881317855e-05 -0.000505019632542872 -0.000119629640940832 -0.00040924453779654 -1.05552802437484e-05 -0.0025387406333175 9.15465723714555e-05
"284" -0.000693461635687486 -0.000422995860263842 -0.000984399121255213 3.28273489263893e-05 -0.000809164802600591 -0.000470604123332694 -0.000458606890726381 -0.00126900302141069 -0.00247385163992566 6.59564090032729e-05 -0.000495669901465682 -0.000121336246531005 -0.000424119872423132 -2.61376145947209e-06 -0.00260992265940974 9.71615854315726e-05
"285" -0.000733256847497514 -0.00039255493224169 -0.0010131753551538 5.75136182961836e-05 -0.000775716762993512 -0.000457653455459721 -0.000473968907217032 -0.00125085147681745 -0.00229842272241208 7.04498213900145e-05 -0.000485569359347934 -0.000122350052841511 -0.000439532572663454 4.86560600662072e-06 -0.00267413086174512 0.000102466745989623
"286" -0.000769849210690015 -0.000363984381101844 -0.00103841835427766 7.97037604807761e-05 -0.000742010612408324 -0.000446250302153413 -0.000488054572337603 -0.00123067560150288 -0.00210861613777294 7.33434546970642e-05 -0.00047470808236131 -0.000122637835966623 -0.000455475010840381 1.17945286582419e-05 -0.00272982829560415 0.000107390173243915
"287" -0.000802994395874338 -0.000337478034325653 -0.00105998247159051 9.92052382814995e-05 -0.000708332353194299 -0.000436506203877173 -0.000500755821462666 -0.00120847619793033 -0.00190527167508156 7.45422481331468e-05 -0.000463075021588503 -0.000122176493182814 -0.000471936318538496 1.8083418885103e-05 -0.00277546994251288 0.000111872975037023
"288" -0.000832477639085856 -0.00031321897801146 -0.0010777349155425 0.000115849144438858 -0.000674944726822068 -0.000428506975041668 -0.000511973636828172 -0.00118426681838673 -0.00168931495980822 7.39816304013786e-05 -0.000450673258927727 -0.000120956292013678 -0.000488905266509272 2.36572164244358e-05 -0.00280952727039755 0.000115853128363545
"289" -0.000858110717382163 -0.000291358139567215 -0.00109158215556502 0.000129500658772392 -0.000642100468928426 -0.000422325860792879 -0.000521615409316249 -0.00115807552564852 -0.00146175113629947 7.16091154823765e-05 -0.000437501420208559 -0.000118979980847057 -0.000506356383750311 2.84480068017723e-05 -0.00283051217347059 0.0001192835839773
"290" -0.000879733776222144 -0.000272029982661179 -0.00110143540445519 0.000140055225931105 -0.000610030358322518 -0.000418000938435903 -0.000529599722244755 -0.00112993670438657 -0.00122368404499482 6.73932180795638e-05 -0.000423576358623994 -0.000116263874097059 -0.00052426366302669 3.2394326640538e-05 -0.00283701472229245 0.000122120862647446
"291" -0.00089721854092603 -0.000255336236980879 -0.00110724343535691 0.000147438031270076 -0.000578936718992136 -0.000415560983094416 -0.000535851936529025 -0.00109989837604034 -0.000976288698704972 6.13281559698988e-05 -0.000408909791193762 -0.000112838571462284 -0.00054258940552079 3.545031326425e-05 -0.00282772616485955 0.000124330844502553
"292" -0.000910473015766501 -0.00024135847050836 -0.00110898075231766 0.000151606005916368 -0.000549002313851299 -0.000415003311109768 -0.000540309672907233 -0.00106802574462324 -0.000720824998463795 5.34214856192075e-05 -0.000393527242058126 -0.000108743756600649 -0.000561282357199633 3.75792541458415e-05 -0.00280145842833161 0.000125884790029644
"293" -0.000919426677324273 -0.00023014135275767 -0.00110664158600301 0.000152552293639925 -0.000520379448724614 -0.000416306047766984 -0.000542914910103815 -0.00103438653759712 -0.000458641618003809 4.37062816392019e-05 -0.00037745519726401 -0.000104036079593217 -0.000580289268998795 3.87498070450412e-05 -0.00275717817738214 0.000126765122687038
"294" -0.000924056159983953 -0.000221705548151095 -0.00110026008641354 0.000150300770165703 -0.000493203327831601 -0.000419428944903616 -0.000543630924013693 -0.000999078334043855 -0.000191157328695961 3.22304036965348e-05 -0.000360731646505732 -9.87764793743344e-05 -0.000599536445323951 3.89495451787259e-05 -0.00269401397157143 0.000126961161872393
"295" -0.000924357327261139 -0.000216047426354537 -0.00108988711809216 0.000144902739746273 -0.000467570876171884 -0.000424306488727595 -0.000542421122247372 -0.000962188902340753 8.01189282887109e-05 1.90633402402781e-05 -0.000343395566790941 -9.30433981586564e-05 -0.000618945027387513 3.81709337569387e-05 -0.00261128487487882 0.000126469008823667
"296" -0.000920365008436433 -0.000213127892383808 -0.00107560034108128 0.000136440704372945 -0.000443552964721334 -0.000430856967013541 -0.000539262255946743 -0.000923823983346893 0.000353602012406545 4.2930528803858e-06 -0.000325494624389622 -8.69201112731056e-05 -0.000638427669735038 3.64234479079197e-05 -0.00250851914266905 0.000125294592969034
"297" -0.000912144361176022 -0.000212884658797305 -0.00105750272371191 0.000125025747405074 -0.000421193221665594 -0.000438980309940538 -0.000534142403054016 -0.00088410597192196 0.000627638706945162 -1.19805056285968e-05 -0.000307082785040159 -8.04990059589694e-05 -0.000657878766741528 3.37185923211546e-05 -0.00238546769249295 0.000123449649822879
"298" -0.000899800344679563 -0.00021522660545517 -0.00103574012086861 0.000110793362803685 -0.000400518983474844 -0.000448557929895292 -0.000527067946600088 -0.000843163165158735 0.000900499678262572 -2.96390805521275e-05 -0.000288218099546795 -7.38767816188064e-05 -0.000677191466144969 3.00827695727311e-05 -0.00224209768351509 0.000120954344023962
"299" -0.000883459434047236 -0.000220035439518283 -0.00101046944714386 9.39066940425866e-05 -0.000381524039305976 -0.000459459402378234 -0.000518043412335379 -0.000801135021057302 0.00117039767493024 -4.85531971241964e-05 -0.000268965120785117 -6.7155712341597e-05 -0.000696242608810637 2.55511766855548e-05 -0.00207862290033522 0.000117838748302526
"300" -0.000863279212271882 -0.000227176051282987 -0.000981871581332182 7.45456773902696e-05 -0.000364172141659583 -0.000471536140006021 -0.000507094237242893 -0.00075816461881138 0.00143548415176952 -6.85831046948554e-05 -0.000249392675105638 -6.04429607027957e-05 -0.000714903680582999 2.01737665450164e-05 -0.00189547180165988 0.000114135632182086
"301" -0.000839451433900411 -0.000236482953791297 -0.0009501588539754 5.29099545907871e-05 -0.000348415812736558 -0.000484632975098143 -0.000494251135407268 -0.000714400903940602 0.00169386548736625 -8.95770599385409e-05 -0.000229574184987624 -5.38458809531336e-05 -0.000733039053239772 1.39976537972697e-05 -0.00169330911269587 0.000109883700656605
"302" -0.000812192987877156 -0.000247777765135711 -0.000915561870572171 2.92200272091001e-05 -0.000334183933418611 -0.000498586414178249 -0.000479557041173952 -0.000670008804940401 0.00194361981617819 -0.000111377041786493 -0.000209585186862911 -4.74687383602274e-05 -0.000750511401683869 7.08535837217592e-06 -0.00147300741013825 0.000105130666309963
"303" -0.00078174487889328 -0.000260860855099681 -0.000878333232313279 3.70981819939819e-06 -0.000321381943610043 -0.000513220590519094 -0.000463066976107075 -0.000625147542252265 0.00218280274814966 -0.000133818816448752 -0.000189509792827428 -4.14189614612287e-05 -0.000767174651481621 -4.9423587139456e-07 -0.00123565391591155 9.99253818410474e-05
"304" -0.000748376853952325 -0.000275517090927923 -0.000838743404343092 -2.33773333648427e-05 -0.000309915284642286 -0.000528357499156521 -0.000444842783300204 -0.000579994277627582 0.00240947199567949 -0.000156737100128626 -0.000169430001734722 -3.57977884920768e-05 -0.000782884505599411 -8.67144043935767e-06 -0.000982527796078059 9.43247994819815e-05
"305" -0.000712368566662431 -0.000291528279710841 -0.000797073000102374 -5.17899606317572e-05 -0.000299650186254913 -0.000543819358952858 -0.000424950923412709 -0.00053470946195273 0.0026216977818211 -0.000179958170898772 -0.000149426426787798 -3.07051793315833e-05 -0.000797495659385749 -1.73621807323361e-05 -0.000715079020834489 8.83861507205102e-05
"306" -0.000674034117737797 -0.000308654814802961 -0.000753631598907873 -8.12707775358117e-05 -0.000290470584022065 -0.00055942243154999 -0.000403480667224951 -0.000489474757792639 0.00281760698059189 -0.000203313589849722 -0.00012959015901513 -2.62277246259129e-05 -0.000810866707349471 -2.64868831823484e-05 -0.000434926099650636 8.21714987293572e-05
"307" -0.000633695655092663 -0.000326658430331425 -0.000708728666817951 -0.00011155671563905 -0.000282234298679787 -0.000574984077800135 -0.000380519738772671 -0.000444457308707133 0.00299538414579859 -0.000226635199676479 -0.000110004387382399 -2.24538858464004e-05 -0.000822858039932347 -3.59580659121227e-05 -0.000143811389887712 7.57429906206218e-05
"308" -0.000591687178282669 -0.000345298455727486 -0.000662683973336754 -0.000142385647362237 -0.000274798685437031 -0.000590329710814432 -0.000356163554084188 -0.000399834760424301 0.00315331846413358 -0.00024975773042357 -9.07571480997021e-05 -1.94552149070336e-05 -0.000833340169762027 -4.56890878589499e-05 0.000156396836092145 6.9164252893348e-05
"309" -0.000548365783434676 -0.000364331531779334 -0.000615828192727361 -0.000173497713351485 -0.000268021537451621 -0.000605286405449 -0.00033051888964717 -0.000355773924767321 0.00328983234565569 -0.000272517553628129 -7.1931205647614e-05 -1.73022642671524e-05 -0.000842186212082597 -5.55897423096571e-05 0.00046372655832784 6.25056778661976e-05
"310" -0.000504083285198022 -0.000383517719915973 -0.000568497597878544 -0.000204635755646317 -0.000261755139812715 -0.000619684571264593 -0.000303702939270941 -0.000312441420801485 0.00340349474944358 -0.000294757364024457 -5.36055418275161e-05 -1.60485099518812e-05 -0.000849288424863314 -6.55698591339219e-05 0.000776139814138064 5.58267716405973e-05
"311" -0.000459204515185962 -0.000402619557002782 -0.000521023032178613 -0.000235554940431269 -0.000255861927803725 -0.000633371857201954 -0.000275831482417664 -0.000270002358338906 0.00349306964372762 -0.000316333009678218 -3.58623640286293e-05 -1.57396691511127e-05 -0.00085453769905988 -7.55407728516773e-05 0.00109153595766645 4.91938180744122e-05
"312" -0.000414100789227807 -0.00042140970475524 -0.000473739902766667 -0.000266010412688146 -0.000250197741996079 -0.00064619592590692 -0.000247032473562728 -0.000228612511533897 0.00355753663845483 -0.000337101469291087 -1.87754381211896e-05 -1.641291279753e-05 -0.000857851525186031 -8.54155570114102e-05 0.00140777687025971 4.26692745592772e-05
"313" -0.000369127275751041 -0.000439671213428744 -0.000426977303587898 -0.000295773367906969 -0.000244634501121174 -0.000658024819875518 -0.000217438330070771 -0.000188420317140119 0.00359612450933719 -0.00035693002852743 -2.41040934604615e-06 -1.80905476972891e-05 -0.000859145195950804 -9.51062077246712e-05 0.00172272314031693 3.63120962178171e-05
"314" -0.000324656618127984 -0.000457194641445961 -0.000381058566133492 -0.000324630611535869 -0.000239050258666049 -0.000668733468763164 -0.000187185842715996 -0.000149568229569366 0.00360833033813593 -0.000375701431567673 1.31659301522411e-05 -2.07851093801888e-05 -0.000858356363924889 -0.00010453319873361 0.00203423861110875 3.01833479865968e-05
"315" -0.000281037792924674 -0.000473788759248085 -0.000336299537973528 -0.000352379724544568 -0.000233333534505306 -0.000678210364362753 -0.000156419139008709 -0.000112190830714602 0.00359395093078033 -0.000393302791318866 2.78970391616788e-05 -2.44964017495424e-05 -0.000855430292369354 -0.000113614943940069 0.00234020467203497 2.43331214722944e-05
"316" -0.000238618503066258 -0.000489276400872233 -0.000293001980682568 -0.000378831793233473 -0.000227386284656861 -0.000686364298698451 -0.000125284922060669 -7.64132431778797e-05 0.0035530795223416 -0.000409638501002232 4.17327854709803e-05 -2.92153845064585e-05 -0.000850329748600045 -0.000122282852164467 0.00263854793652225 1.88144798953498e-05
"317" -0.000197726849361008 -0.00050349806996122 -0.000251452053376795 -0.000403825376416621 -0.000221113454722594 -0.000693111907231451 -9.39292354029351e-05 -4.23437813202736e-05 0.00348613387982816 -0.000424617616617192 5.46284868674605e-05 -3.49180895284764e-05 -0.000843026616433924 -0.000130469081796057 0.00292725621102778 1.36682066473638e-05
"318" -0.000158685998523504 -0.000516309243475458 -0.000211929507612203 -0.000427203708922162 -0.000214456000295661 -0.000698394169915338 -6.25069762877361e-05 -1.00899687083577e-05 0.00339384631208736 -0.000438170340804178 6.65503020798607e-05 -4.15728860700136e-05 -0.000833502620648269 -0.000138107583988563 0.00320440515850675 8.94183500949647e-06
"319" -0.000121790421550212 -0.000527586838945857 -0.000174685613821647 -0.000448843552867435 -0.000207357636122304 -0.000702163155453534 -3.11743480061599e-05 2.02566065769464e-05 0.00327727533623388 -0.000450236914963387 7.74711386331015e-05 -4.9135645452221e-05 -0.000821754310582975 -0.00014514579369502 0.00346814725930106 4.66387304201374e-06
"320" -8.73206585464197e-05 -0.000537227481867887 -0.000139955806253085 -0.000468631642606633 -0.00019977340721185 -0.000704389705353909 -8.21061499810329e-08 4.86183983387064e-05 0.00313777357524237 -0.000460767529710959 8.73741083401378e-05 -5.75548684432031e-05 -0.00080778601964081 -0.000151535528477523 0.00371676257716667 8.69216796222618e-07
"321" -5.55304363966847e-05 -0.000545148479801263 -0.000107953553013794 -0.000486483508342754 -0.000191688879272868 -0.000705063339507402 3.06093751065346e-05 7.49243109434557e-05 0.00297698114265117 -0.000469732875173875 9.6248495082218e-05 -6.67679955818797e-05 -0.000791612724479566 -0.000157238081728268 0.00394864553062797 -2.41869578916619e-06
"322" -2.66541163770304e-05 -0.000551281251909682 -7.88773653829551e-05 -0.000502325916144483 -0.00018310258438255 -0.000704188756937798 6.07441951799222e-05 9.91162606597697e-05 0.00279681558402977 -0.00047711036822992 0.000104085139391598 -7.67036092314296e-05 -0.000773254093097069 -0.000162214760481787 0.00416233045157003 -5.18241982045082e-06
"323" -8.84842286541546e-07 -0.00055559155875059 -5.28808056401061e-05 -0.000516120652668943 -0.000174020421061769 -0.000701787141892773 9.01724016437467e-05 0.00012115753306677 0.00259941520847709 -0.000482892759780737 0.000110901385229091 -8.72864106702635e-05 -0.000752744078057112 -0.000166444559293451 0.00435651543176626 -7.4096858168084e-06
"324" 2.1590209693801e-05 -0.000558050358178413 -3.01191903922726e-05 -0.000527838049019068 -0.000164484894635978 -0.000697898813047084 0.000118739127923155 0.000141008551704996 0.00238712678044918 -0.000487090370127201 0.000116706785552835 -9.84268564845229e-05 -0.000730116024008027 -0.000169908904837961 0.00453005655865785 -9.09209131764484e-06
"325" 4.06356204540685e-05 -0.000558661225738705 -1.06946536431542e-05 -0.000537483325366371 -0.000154540485235156 -0.000692582117573772 0.000146296702112282 0.000158655947752432 0.0021624393990698 -0.000489719733587173 0.000121522827862282 -0.000110040074575531 -0.000705412285601953 -0.000172599367359574 0.00468199105176909 -1.02300509118675e-05
"326" 5.61293630212541e-05 -0.000557437122840222 5.29362955838873e-06 -0.000545067241492896 -0.000144255760011716 -0.00068590252498972 0.000172699343077301 0.00017408369520587 0.00192796204061568 -0.000490815435646302 0.00012537983286552 -0.000122024696989905 -0.000678681984180422 -0.000174512836700462 0.00481153745310161 -1.08263695656728e-05
"327" 6.79893334469268e-05 -0.000554416142912738 1.77888180142978e-05 -0.000550633609257054 -0.000133713064074511 -0.000677948934451555 0.000197808588000148 0.000187300242999234 0.00168636075115411 -0.000490421401367168 0.000128313894972258 -0.00013428319260296 -0.000649980571217085 -0.000175656410997552 0.00491809759346516 -1.08939896290897e-05
"328" 7.61664932576669e-05 -0.000549652945835637 2.67544532042215e-05 -0.000554236897036123 -0.000123008536551357 -0.00066882070807173 0.000221492349082239 0.000198317897693879 0.00144033454749743 -0.000488595939638702 0.000130366881338265 -0.000146712140926918 -0.000619369672545639 -0.000176043088725782 0.00500127308978572 -1.04465430201363e-05
"329" 8.06343301330938e-05 -0.000543219398573905 3.21842470074719e-05 -0.000555955763132387 -0.000112257042042019 -0.000658628566311931 0.000243621198658465 0.00020715981300514 0.00119255239859794 -0.000485403335187553 0.000131585655270116 -0.000159205962523557 -0.000586911183423287 -0.000175696539661075 0.00506085506770378 -9.50481791669375e-06
"330" 8.1403018767693e-05 -0.000535204718323483 3.4093516021472e-05 -0.000555884441506 -0.000101580693213048 -0.000647491792480165 0.00026408045763653 0.000213864897083476 0.000945617473137455 -0.000480922449916103 0.00013202625856061 -0.000171659307875463 -0.000552679581393822 -0.000174642643572964 0.0050968204539194 -8.09650633178077e-06
"331" 7.85118595818357e-05 -0.000525709145059728 3.25285863271602e-05 -0.00055413163762681 -9.11152002446538e-05 -0.000635549401410853 0.00028275693361059 0.000218471924140991 0.00070202638409069 -0.000475242258874561 0.000131746989751705 -0.000183963401476072 -0.000516753576107084 -0.000172914151441943 0.00510934255282588 -6.24766323004675e-06
"332" 7.20272496351726e-05 -0.00051484574842014 2.75521565404444e-05 -0.000550818978282095 -8.10081950047947e-05 -0.000622936382912762 0.000299554655015909 0.000221033442426657 0.000464133985570074 -0.000468455649843556 0.000130803048183586 -0.000196014366065752 -0.000479214820856061 -0.000170555202171176 0.0050987619102346 -3.99183086705044e-06
"333" 6.20484530623391e-05 -0.000502748950517134 1.92672858788832e-05 -0.000546085491431716 -7.14045468493815e-05 -0.000609802147099286 0.00031438392547778 0.00022162012809966 0.000234123741814731 -0.000460664702891823 0.000129262466891285 -0.000207706843760031 -0.000440157933870012 -0.000167608217155775 0.00506559688919911 -1.36783359319572e-06
"334" 4.86963694718722e-05 -0.000489552933108898 7.78360991620566e-06 -0.000540079356003309 -6.24622999931167e-05 -0.000596300929098968 0.000327167672532785 0.000220294597964689 1.39925580065635e-05 -0.000451981248605871 0.000127190034759573 -0.000218939033787345 -0.000399681119036267 -0.000164124585573648 0.00501053405464595 1.58380561105873e-06
"335" 3.21154934429592e-05 -0.000475404263977794 -6.76711575571978e-06 -0.000532954998078273 -5.43481576201684e-05 -0.000582586680273946 0.000337841080904722 0.000217132267566855 -0.000194482811135263 -0.000442519617278405 0.000124650515503645 -0.000229613258069538 -0.000357893266188652 -0.000160162174935514 0.00493440256901375 4.82552251921704e-06
"336" 1.24813649561479e-05 -0.000460455760360228 -2.42206993328729e-05 -0.000524878117072596 -4.72166028676578e-05 -0.000568814469018625 0.000346350027298959 0.00021222373528899 -0.000389745394402601 -0.000432397573948742 0.00012171795247511 -0.000239639411473458 -0.000314913918087889 -0.000155773790848528 0.00483817479339865 8.30878978685723e-06
"337" -1.00270198785735e-05 -0.000444869015214862 -4.44138446794367e-05 -0.000516016323101495 -4.12315909279658e-05 -0.000555143471850607 0.000352657965076357 0.000205650714853635 -0.000570475435839557 -0.000421735206480116 0.000118451129861054 -0.000248926077076312 -0.000270867391306943 -0.000151022790014011 0.00472295242940506 1.19919259220453e-05
"338" -3.51908440189161e-05 -0.000428803319606323 -6.71493599737202e-05 -0.000506543106426947 -3.65481210345207e-05 -0.000541724756681764 0.00035673594671217 0.00019751347066739 -0.000735590266020561 -0.000410658200499587 0.000114925675479702 -0.000257396537384194 -0.000225894060979269 -0.000145971236033533 0.00458995129010999 1.58259558300692e-05
"339" -6.27925346459529e-05 -0.000412424621696417 -9.2229105271608e-05 -0.000496628764159055 -3.33165760755913e-05 -0.000528713695962236 0.000358574086802078 0.000187907776613646 -0.000884235873975407 -0.000399287455988768 0.00011120332549061 -0.000264974143558365 -0.000180144596750927 -0.000140681422402777 0.00444048642948255 1.97657766093208e-05
"340" -9.25919199491034e-05 -0.000395892196091375 -0.000119436585495268 -0.000486448917156251 -3.16800062189757e-05 -0.000516248631096307 0.000358177226039536 0.000176940736254542 -0.00101578781152972 -0.000387747474051044 0.000107345833218241 -0.000271595885499481 -0.000133778421546615 -0.000135222335054657 0.004275958993021 2.37648282086129e-05
"341" -0.000124340678461426 -0.000379374772351321 -0.000148550333312273 -0.000476173472740795 -3.17684407237801e-05 -0.000504471467679403 0.000355561714339049 0.000164716146412743 -0.00112984877013853 -0.000376157207746859 0.000103419337308319 -0.000277204181857549 -8.69713183405226e-05 -0.000129652281726 0.00409784981684815 2.77791879149159e-05
"342" -0.000157780865445707 -0.000363022744515187 -0.000179328022408755 -0.000465963880328345 -3.3700715468088e-05 -0.000493506787826353 0.000350756639849808 0.000151350680908459 -0.00122622843971072 -0.000364633266724657 9.94816418037898e-05 -0.000281753927168703 -3.99068119136324e-05 -0.000124041234152617 0.00390770625130431 3.17649128928131e-05
"343" -0.000192646519973827 -0.000346994370899896 -0.000211539575872855 -0.000455984491498595 -3.7580187613574e-05 -0.000483471462985531 0.000343813669883269 0.00013695637150555 -0.00130492749793036 -0.000353288736194231 9.5587769262906e-05 -0.000285206624565608 7.22157661202229e-06 -0.000118447265851982 0.00370712926644294 3.5675645834927e-05
"344" -0.000228672666082275 -0.000331432564788832 -0.000244940908411155 -0.000446379494452873 -4.34957710881776e-05 -0.000474474648375009 0.000334785509272446 0.000121646735836914 -0.00136613252578663 -0.000342230663829951 9.17853083438073e-05 -0.000287538332198729 5.42081101508083e-05 -0.000112929800572178 0.00349776332092397 3.94759809627501e-05
"345" -0.00026558774638491 -0.000316472313587776 -0.000279285192695948 -0.00043729359085716 -5.15177490300352e-05 -0.000466609560806908 0.000323752522752881 0.000105538704839584 -0.00141019510271147 -0.000331558438013471 8.81282505719983e-05 -0.000288733257391826 0.00010083759930666 -0.000107543846783379 0.00328128931465235 4.31264278827299e-05
