"V1" "V2" "V4" "V5" "V7" "V8" "V10" "V11" "V13" "V14" "V15" "V17" "V18" "V20" "V21" "V23"
"1" 0.000452056983047273 0.000369276764142406 0.000383133156635877 0.000403863372965812 0.000374797583993004 0.000329083762162596 0.000559456010238402 0.000487781894666838 -4.37129964394813e-05 0.000111819068723485 0.000365996979936414 0.000360622656600841 0.000121372954017859 0.000577611820978662 0.00226735719273672 -0.00127715392713393
"2" 0.000448795839149116 0.000368994837614164 0.000386901349527091 0.00041404591972397 0.000381649088452143 0.000336923791876622 0.000568575906438458 0.000496613243943349 -2.50290600241875e-05 0.000133471764979534 0.000380728022646688 0.000363519666357432 0.000140580922306405 0.000584429544857027 0.0021933204702337 -0.00123832217180018
"3" 0.000445786113979621 0.000369042770984534 0.000390611933260592 0.000424058872452458 0.000388962621821684 0.0003451428753536 0.000577963485143665 0.000505654879943623 -5.10881307174984e-06 0.000156227584883374 0.000395673275362326 0.000365078476347383 0.000160040183287944 0.000587509887335097 0.00211752831897887 -0.00119180557963096
"4" 0.000442970425384653 0.000369377168068338 0.000394217954322848 0.000433809649231963 0.000396675430908617 0.000353643385445362 0.000587490103736365 0.000514780300086597 1.58332326616326e-05 0.000179884517105401 0.00041064570754577 0.000365198340332709 0.000179537126987026 0.000586943839810716 0.00204002873322267 -0.00113808772597743
"5" 0.000440275317185131 0.000369954299033918 0.000397660042577113 0.000443211319716712 0.000404706832587082 0.000362320618372703 0.00059701702688523 0.000523859120799191 3.75712594039142e-05 0.000204235872039539 0.000425460358070823 0.000363781216593477 0.000198839553221962 0.000582850362044083 0.00196087504744918 -0.00107776271959405
"6" 0.000437634759628349 0.000370724519985618 0.000400889856923922 0.000452171264930711 0.000412970825438835 0.000371064912970702 0.000606407375927966 0.00053276163398966 5.98776255823851e-05 0.000229063874777265 0.000439939201279169 0.000360745643195034 0.000217730661781507 0.000575374854271336 0.00188014079754863 -0.00101149175344481
"7" 0.000434976813462369 0.000371641420416725 0.000403842342900768 0.000460599934116687 0.000421376952425427 0.0003797623861106 0.000615518361101012 0.000541353424449826 8.25170891851787e-05 0.000254143202447212 0.000453905688256587 0.000356018877213136 0.000235982418495707 0.000564682348141179 0.0017979133640609 -0.000940025231152586
"8" 0.000432223856723962 0.00037265371987699 0.000406453798746662 0.000468408851907246 0.000429824853901057 0.000388292955454823 0.000624208449752141 0.000549501428108118 0.000105248094407999 0.000279246414422259 0.000467186327017452 0.000349547700813739 0.000253374341243299 0.000550964865505493 0.00171431142874344 -0.0008641716304243
"9" 0.000429300844513085 0.000373712485214202 0.000408664909710801 0.000475513952427251 0.000438203637534584 0.000396535965483035 0.00063234020442383 0.000557084920258816 0.000127834693965768 0.000304143455493803 0.000479622573225467 0.000341287689810556 0.00026969029968815 0.00053443064870804 0.00162947307042143 -0.000784800037266661
"10" 0.000426132948995462 0.000374768176161738 0.000410411587206154 0.000481833337671623 0.000446399081208798 0.000404371793417532 0.000639770916406957 0.000563974991185881 0.000150033858494248 0.000328606066527704 0.000491053844345633 0.000331208099115672 0.00028472149197904 0.000515312300506492 0.00154356866348917 -0.000702828429768526
"11" 0.000422644999435699 0.000375771524628795 0.000411632150082785 0.000487286878551746 0.000454292031911787 0.000411672482112252 0.000646369578972633 0.000570052368086115 0.000171612038562647 0.000352406692600947 0.000501336714161074 0.000319301640822961 0.000298268159525703 0.000493848844755753 0.00145679583571323 -0.000619201194508774
"12" 0.000418759926657782 0.000376673885271538 0.000412258963315534 0.000491807029973643 0.000461762087563819 0.000418319432521563 0.000651998716247542 0.000575204546117624 0.000192332712070474 0.00037532564186179 0.000510338571052457 0.000305569896138372 0.000310138804891367 0.000470311443316205 0.00136939687398393 -0.000534887311727115
"13" 0.000414410751065208 0.000377427728416588 0.000412237410962832 0.000495323505137684 0.000468683442720427 0.000424189629867823 0.000656532845638085 0.000579326254371018 0.000211976885420817 0.00039714928607819 0.000517931353935584 0.000290029541148458 0.000320154556538083 0.000444969759808524 0.00128162365072289 -0.000450857950424021
"14" 0.000409525900597644 0.000377992299658625 0.000411506920925969 0.000497779835171524 0.000474923056572375 0.000429166394046578 0.00065985194746347 0.000582314303712988 0.000230321926793617 0.000417672262866534 0.000524011381776072 0.000272717847566891 0.000328157773191663 0.000418112238146973 0.00119376760544676 -0.000368066748380153
"15" 0.000404043023611042 0.000378324308924933 0.000410012914654694 0.000499125806361523 0.000480361468811136 0.00043313365860115 0.000661839404259061 0.000584082535719273 0.000247162996697786 0.000436705231652264 0.000528480781767198 0.000253686306151024 0.000333999450606423 0.000390036648741852 0.00110613376898302 -0.000287444362600086
"16" 0.000397902627775035 0.00037838586981907 0.000407707317339405 0.000499318937512442 0.000484870157507933 0.000435986491579065 0.00066239392103834 0.000584548544235138 0.00026230939621608 0.00045406514763083 0.000531258740155932 0.000232998544137251 0.000337551598913516 0.00036104261142448 0.00101905135655346 -0.000209875239154204
"17" 0.000391054633910283 0.000378141351393919 0.000404544825689379 0.0004983260122744 0.000488325817333681 0.000437620883527985 0.000661414279910761 0.000583640386443251 0.000275581672972077 0.000469595436204971 0.000532279132876591 0.000210739565620615 0.000338706238300193 0.000331436375859105 0.000932856081171127 -0.000136187680944453
"18" 0.000383449780452012 0.000377562262161328 0.000400487454141674 0.000496120503756141 0.000490604987515746 0.000437943448402589 0.000658818437317825 0.000581301267821943 0.000286817624778037 0.00048314752044008 0.000531496076624581 0.000186996189211159 0.000337373120830523 0.000301521877790525 0.0008478923936429 -6.71333314676731e-05
"19" 0.000375047185561636 0.000376620568466161 0.000395499458376867 0.0004926898599472 0.000491599557525549 0.000436867882545701 0.000654528867182295 0.000577483488830303 0.000295869151608412 0.000494594251286587 0.000528870820044186 0.000161883851706274 0.000333485336173419 0.000271606494738796 0.0007645023444962 -3.37677681742952e-06
"20" 0.000365822906810474 0.000375293794447749 0.0003895530535847 0.00048802878075328 0.000491200653295621 0.000434316918191299 0.000648482618200447 0.000572149097528002 0.000302616974787551 0.000503830434065289 0.000524389970446245 0.000135519662578705 0.000326995493201351 0.000241981507028871 0.000683008164009211 5.45118392385826e-05
"21" 0.000355748744531566 0.000373564480006831 0.000382625836563772 0.000482139803247026 0.000489299686781193 0.000430226920375563 0.000640631421064986 0.000565271574561099 0.000306957004739839 0.000510778032159553 0.000518050837186565 0.000108032048023165 0.00031787829214533 0.000212929392597174 0.000603727815167719 0.000106074215340064
"22" 0.000344810317946245 0.000371418378141105 0.000374708013248562 0.000475038815738529 0.000485813042098552 0.000424543954296391 0.000630935717010473 0.000556846497315068 0.000308803047772299 0.000515363732575724 0.000509864550438774 7.95626306941196e-05 0.000306129342813694 0.000184734578972072 0.000526951900149224 0.000150971770150411
"23" 0.000333004633822477 0.000368849149220508 0.000365790799403721 0.000466749265533567 0.000480650418785227 0.000417223833968184 0.000619372282733812 0.000546871571299156 0.000308097306083472 0.000517557423761734 0.000499856985022008 5.02611274041147e-05 0.000291767634723512 0.00015765398862266 0.000452941957989015 0.000188980789322303
"24" 0.000320338177726035 0.000365851290247381 0.000355876368287987 0.000457304273582193 0.000473748426869499 0.000408239580460266 0.000605933488912594 0.000535363799930602 0.000304804418937674 0.000517337419523168 0.00048807463247147 2.02774635234351e-05 0.000274832265696216 0.000131926625503978 0.000381925446789892 0.000220006034127055
"25" 0.000306823915420137 0.00036242526802802 0.000344967999552861 0.000446743707285228 0.000465042423782529 0.000397575291804981 0.000590623081493989 0.000522349110581133 0.000298910000200546 0.000514709333758183 0.000474569215466451 -1.02176143000596e-05 0.000255387532117131 0.000107782725283928 0.000314094709142307 0.000244083184602379
"26" 0.000292482565125336 0.000358577447161131 0.00033307862224389 0.000435115761768786 0.000454481763759435 0.000385223563664532 0.000573462225495819 0.000507869604205075 0.000290422167354442 0.000509703619297072 0.000459406976030524 -4.1068718106916e-05 0.000233513270008057 8.54213515805887e-05 0.000249602092495929 0.000261370497957452
"27" 0.00027735496992176 0.000354318939327896 0.000320236046909764 0.000422478273286631 0.000442039298345812 0.000371202268666141 0.000554483531270877 0.000491975636231293 0.000279377152144117 0.00050237263753939 0.000442669988149972 -7.2100667968398e-05 0.000209309220478629 6.50225883220098e-05 0.000188564254783801 0.000272149543438004
"28" 0.000261480136269984 0.000349663673445417 0.000306461970909544 0.00040889521559086 0.000427685846623583 0.000355534343505091 0.000533737785808555 0.000474734117079453 0.000265832591664674 0.000492790983884564 0.000424445458359436 -0.000103149911796841 0.000182893517048528 4.67360729561716e-05 0.000131055487623219 0.000276815761083468
"29" 0.000244906041956874 0.000344632203243584 0.000291796640389414 0.000394435453394798 0.00041142484807335 0.000338259299844639 0.000511289152347382 0.000456223695669608 0.000249860536304525 0.000481048554903546 0.000404830023341809 -0.000134043733330714 0.00015440439680371 3.06934331444517e-05 7.71174917209907e-05 0.000275878624725516
"30" 0.000227699835076097 0.00033924260578322 0.000276273361056232 0.000379173465678397 0.000393257001822841 0.000319427708278999 0.000487213115912443 0.000436525695939283 0.000231567829176216 0.000467258685993889 0.000383935554115974 -0.00016461574768288 0.000123991993931019 1.69936153218757e-05 2.67523403506061e-05 0.000269939330299281
"31" 0.0002099282265007 0.00033352572587639 0.000259945132865175 0.000363190247430394 0.00037320653143571 0.000299107011065587 0.000461601311852727 0.00041574212538558 0.000211073520913724 0.000451554993500135 0.000361872235149395 -0.000194702707065731 9.18221888017352e-05 5.71053867068559e-06 -2.00570970621746e-05 0.000259689760151056
"32" 0.000191669378634848 0.000327512885448584 0.000242861627405021 0.000346569296506769 0.000351319679825603 0.000277378700007583 0.000434559631007877 0.000393976631953522 0.000188513839634908 0.000434080244487425 0.000338759815717763 -0.000224139436636271 5.80755058309292e-05 -3.10552215204902e-06 -6.33608208411294e-05 0.000245900122175356
"33" 0.000172999939446829 0.000321230805992497 0.000225074306796781 0.000329394085815965 0.000327640611486514 0.000254328584340042 0.000406198101996546 0.00037134453037453 0.000164045608018373 0.000414996243836534 0.000314724395420424 -0.000252774819879052 2.29380132149987e-05 -9.43316304505516e-06 -0.000103215165227382 0.000229401057114291
"34" 0.000154012529461628 0.000314717836762155 0.000206649159627581 0.000311755038352959 0.000302239177684755 0.000230063389384638 0.000376648458894084 0.000347969339232299 0.000137843226958552 0.00039447724444121 0.000289894246225232 -0.000280459290932604 -1.33903822401382e-05 -1.32711397812665e-05 -0.000139695251375515 0.000211074128565609
"35" 0.000134799489566179 0.000308014058197012 0.00018765203501344 0.000293743625848127 0.00027520243621856 0.000204693167670563 0.000346042954814759 0.000323978312528947 0.000110089011877613 0.000372702711110366 0.000264403037978583 -0.000307047732964352 -5.06992403413778e-05 -1.46402982253081e-05 -0.000172878894748416 0.000191837522889647
"36" 0.000115457005814448 0.000301152933334904 0.000168149085518629 0.000275446878415755 0.000246624037205955 0.000178342132810236 0.000314527777557604 0.000299502412211826 8.09843696993388e-05 0.000349863409258554 0.000238385167948308 -0.000332408504340189 -8.87767053676692e-05 -1.35860664313463e-05 -0.000202846348668658 0.000172625736863976
"37" 9.60886073417979e-05 0.000294177685748042 0.000148211301537366 0.000256957533643831 0.000216616164176514 0.000151139254314296 0.000282257264599003 0.000274683288217181 5.07360006608701e-05 0.000326155870950754 0.000211980870918841 -0.000356417342452473 -0.000127403332239961 -1.01660601326042e-05 -0.000229675274880039 0.000154396059747969
"38" 7.67897255032256e-05 0.000287130906690929 0.000127914379937113 0.000238364645110126 0.000185298852555975 0.000123224417883725 0.000249387367397622 0.000249654996221488 1.95623816131098e-05 0.00030177847049081 0.000185324537925385 -0.0003789594214447 -0.000166357025754513 -4.45693607345065e-06 -0.000253439071332333 0.000138081258729157
"39" 5.76688924884602e-05 0.000280051942944981 0.000107331919374181 0.000219753412136054 0.000152810104002459 9.47414221925497e-05 0.000216082144547631 0.000224559965994711 -1.23128243300088e-05 0.000276927662233854 0.000158554805928557 -0.000399929815860741 -0.000205416088691957 3.45637491592004e-06 -0.000274196955705938 0.000124619086288145
"40" 3.88244200110618e-05 0.000272983360517545 8.65409703529176e-05 0.000201212874134257 0.000119296000240259 6.58394253219752e-05 0.000182509550938603 0.000199538054242998 -4.46646730375038e-05 0.000251810523901067 0.000131816151984928 -0.000419235064515655 -0.000244357482524547 1.34728815689127e-05 -0.000292002721687394 0.000114904428955434
"41" 2.03548883601982e-05 0.00026596237316324 6.56256300327066e-05 0.000182826313976968 8.49072490977977e-05 3.66676315098887e-05 0.000148835715383158 0.00017472796001028 -7.72590621768484e-05 0.000226614454401554 0.000105239324414981 -0.000436798865880982 -0.000282954642667788 2.54913715899915e-05 -0.00030689574471251 0.000109796584638577
"42" 2.36421157057989e-06 0.000259031287933231 4.46588777747344e-05 0.000164673493739883 4.98128398733714e-05 7.3838076926086e-06 0.000115233664483644 0.000150264505308247 -0.000109869323210584 0.000201530310376546 7.89662783129344e-05 -0.000452545318821843 -0.000320989886753478 3.94018922445984e-05 -0.000318899712008852 0.000110110852646604
"43" -1.50598766745579e-05 0.000252228656902241 2.37265934637862e-05 0.000146830584006118 1.41813368569209e-05 -2.1857555406121e-05 8.18707105235484e-05 0.000126282032534264 -0.000142264321848557 0.000176743661527608 5.31283664221648e-05 -0.000466419247407133 -0.000358248190667684 5.50923765624399e-05 -0.000328029243775987 0.000116605401654215
"44" -3.18226638529077e-05 0.000245589166642945 2.9005584797199e-06 0.000129371793432036 -2.18054345661029e-05 -5.09038187865106e-05 4.89130036352235e-05 0.000102906136189285 -0.000174221205896421 0.000152421986936655 2.78551643871236e-05 -0.0004783767541941 -0.000394516020384475 7.24550644795304e-05 -0.000334278840165729 0.000129972972326054
"45" -4.7842539536681e-05 0.000239148749056431 -1.77382893883617e-05 0.000112363862771606 -5.79710881420155e-05 -7.96010188660836e-05 1.65230725052034e-05 8.02596441009213e-05 -0.000205516892129192 0.000128732711575017 3.27893541835985e-06 -0.000488382036632525 -0.000429594628710605 9.13792868061571e-05 -0.00033763934504671 0.000150836580584671
"46" -6.30409830639102e-05 0.000232937069856721 -3.811457357374e-05 9.58697436046569e-05 -9.41249630503255e-05 -0.000107800688443683 -1.51391654196777e-05 5.84556313771448e-05 -0.000235938562860474 0.000105825117263729 -2.04725059736969e-05 -0.000496414377915957 -0.000463286119112108 0.000111759306896653 -0.000338086507181152 0.000179732504006211
"47" -7.73452898371957e-05 0.000226984425219565 -5.81536594829074e-05 7.99508746694381e-05 -0.000130079234485405 -0.000135357109814945 -4.59202628603574e-05 3.76060341224848e-05 -0.00026527971806819 8.3834634448519e-05 -4.32834140633348e-05 -0.000502467681869626 -0.000495406161081941 0.000133484323830974 -0.000335599095594044 0.000217122184544021
"48" -9.06859671323139e-05 0.000221319444784387 -7.77804844783223e-05 6.46570648488363e-05 -0.000165653527526252 -0.000162128678251052 -7.56733763599372e-05 1.78024787344514e-05 -0.000293346453858667 6.28861958564666e-05 -6.50363787024898e-05 -0.000506545230946582 -0.000525777389246666 0.000156461307638011 -0.000330142064202881 0.000263364793997742
"49" -0.000103012263379113 0.000215958406643287 -9.69331443238867e-05 5.0034934489879e-05 -0.000200656243933764 -0.000187985330614065 -0.000104263585988095 -8.57200397733023e-07 -0.000319956616085216 4.30838217241747e-05 -8.56206840345618e-05 -0.000508657997945394 -0.000554240999187526 0.00018059335967265 -0.000321676743998441 0.000318734919099934
"50" -0.000114274214961883 0.000210928960132785 -0.000115540296665373 3.61296305495793e-05 -0.000234904607667955 -0.000212798874496185 -0.000131555601517452 -1.82957937349606e-05 -0.000344936970422365 2.45194793249999e-05 -0.000104939877760234 -0.000508832801599424 -0.0005806410421378 0.000205796238248029 -0.000310166688393078 0.000383401485131
"51" -0.000124430984496286 0.000206240759685361 -0.000133547231220703 2.29704147723104e-05 -0.000268222192323389 -0.000236455401254524 -0.000157433846975975 -3.44423389862594e-05 -0.000368130016885542 7.26829928886035e-06 -0.000122890303916799 -0.000507109503878654 -0.000604849860405773 0.000231974638740201 -0.000295581240342061 0.000457423792120829
"52" -0.000133450373023548 0.000201908012466787 -0.000150889252049838 1.05878233983115e-05 -0.000300436519376791 -0.000258843948555166 -0.000181784251631525 -4.92363429669247e-05 -0.000389395130896665 -8.61335180166283e-06 -0.000139395421307062 -0.000503525922830067 -0.000626741305252697 0.000259055699155182 -0.00027789303484021 0.000540766472379171
"53" -0.000141309749509518 0.000197940482405832 -0.000167518776786664 -9.9870376467859e-07 -0.00033138359960796 -0.000279869918989332 -0.000204508041281052 -6.26254045275807e-05 -0.000408603820589267 -2.30846020888555e-05 -0.000154369337991329 -0.000498147009645229 -0.000646216237720787 0.000286955882084684 -0.000257083685848998 0.000633271181470014
"54" -0.000147995761972017 0.000194339865745945 -0.000183392029087092 -1.17741985033518e-05 -0.000360909897514394 -0.000299442948656427 -0.000225516693922409 -7.45723497931893e-05 -0.000425647405241494 -3.61170039384678e-05 -0.000167744867088814 -0.000491028107906259 -0.000663181883204117 0.000315595583719043 -0.000233149060470262 0.000734673172973642
"55" -0.0001535013494468 0.000191114207656822 -0.000198462521109383 -2.17298705665753e-05 -0.000388861970825726 -0.000317491150453706 -0.000244733051199981 -8.50424620005691e-05 -0.000440429558293064 -4.77042098019675e-05 -0.00017946864263455 -0.000482247093696587 -0.000677574427241234 0.000344897363576225 -0.000206100282607896 0.000844590246051561
"56" -0.000157830403381361 0.00018825223859032 -0.000212700569013646 -3.08680736967217e-05 -0.000415112209778056 -0.000333949957879688 -0.000262087587324095 -9.40175197746749e-05 -0.000452878771693711 -5.78557061719542e-05 -0.000189497101559019 -0.00047187974450608 -0.000689340945172395 0.000374781140227469 -0.000175960644438235 0.000962522773227059
"57" -0.000160995911865515 0.000185752896596668 -0.000226071845771052 -3.91930867078512e-05 -0.000439538880428331 -0.000348767225162031 -0.000277531403026196 -0.000101491385163288 -0.000462939220932104 -6.65901109107133e-05 -0.000197789458147437 -0.000460012124340492 -0.000698447895604896 0.000405164856611529 -0.000142778196436932 0.00108784934768885
"58" -0.000163013531499698 0.000183604775066457 -0.000238557544229915 -4.67184299072839e-05 -0.000462031583963153 -0.000361903997971726 -0.000291020811158341 -0.00010746373718281 -0.000470566226495127 -7.39399973667517e-05 -0.000204326160032292 -0.00044673594335301 -0.000704884556545443 0.000435959173017365 -0.000106624396503863 0.00121983532788828
"59" -0.000163915646692412 0.000181793653514386 -0.000250140768194318 -5.34657328960602e-05 -0.000482494266216647 -0.000373336096603628 -0.000302525436328294 -0.00011194469725949 -0.000475746376955807 -7.99616938861943e-05 -0.000209098109934503 -0.000432146663343484 -0.000708660068877368 0.000467072023962229 -6.75882280358664e-05 0.00135763470840216
"60" -0.000163737993344998 0.000180303429014206 -0.000260812102881684 -5.94619649263203e-05 -0.000500852890850957 -0.000383049316636966 -0.000312031444374932 -0.000114957033611512 -0.000478476302543984 -8.47120326287837e-05 -0.000212105753202358 -0.000416347323657181 -0.000709795741572481 0.000498403334297818 -2.57944768881845e-05 0.00150028029575243
"61" -0.000162517433552749 0.000179112751680297 -0.000270561888898405 -6.47340172799387e-05 -0.000517039546724957 -0.000391043061953922 -0.000319532533209882 -0.000116529710147195 -0.000478773528261432 -8.82615218542038e-05 -0.000213366624101156 -0.000399438142005804 -0.00070833882205856 0.000529841281364275 1.86127020122228e-05 0.00164669829819293
"62" -0.000160309903614378 0.000178199001441486 -0.000279402381756654 -6.93232973375705e-05 -0.000531006073875173 -0.000397329329015495 -0.000325037556540963 -0.000116703013533082 -0.000476672975474422 -9.06921249217052e-05 -0.00021290700665529 -0.000381529616192179 -0.000704352715858344 0.000561267347762535 6.5455127651139e-05 0.00179571832740385
"63" -0.000157168273489685 0.000177534849124875 -0.000287337295746876 -7.32718612071637e-05 -0.000542726153683119 -0.000401934790280266 -0.000328565471317099 -0.000115525325632296 -0.000472229328568011 -9.20964693936343e-05 -0.000210765035632962 -0.000362730454426056 -0.000697919654995475 0.000592559444279422 0.000114529548613609 0.00194606949287491
"64" -0.000153150345329002 0.000177092383863403 -0.000294377986139933 -7.66236484791874e-05 -0.000552177878972858 -0.000404894966050855 -0.000330148881599759 -0.000113057281444342 -0.000465513697482645 -9.25681234807395e-05 -0.000206996474930512 -0.000343150067348274 -0.000689139730467546 0.000623569408682454 0.000165589459072807 0.00209639670828621
"65" -0.000148328459490842 0.000176840847667055 -0.000300549266697392 -7.94295493677195e-05 -0.000559364930626109 -0.000406257379180997 -0.000329831338023934 -0.000109358252079031 -0.000456613915948433 -9.22070979719845e-05 -0.000201660793528121 -0.000322898856740475 -0.000678123567491776 0.000654151047249212 0.000218368334291721 0.00224527893765975
"66" -0.000142767958688254 0.000176749798538997 -0.000305870738090896 -8.17432171111444e-05 -0.000564298626476717 -0.000406082367292318 -0.000327665802158188 -0.000104501752360909 -0.000445633682990356 -9.11236335285406e-05 -0.000194832398440393 -0.000302086614835639 -0.000665004081515147 0.000684146284375108 0.000272553641299003 0.00239123273430652
"67" -0.000136547389131876 0.000176782512376069 -0.000310374730040568 -8.36197990656946e-05 -0.000567017587715095 -0.000404439861640969 -0.000323719499478338 -9.85696440756079e-05 -0.000432692664111539 -8.941946067512e-05 -0.000186598440331968 -0.000280827392849228 -0.00064992944363637 0.000713383820032367 0.000327814144884048 0.00253274125467329
"68" -0.000129745610331661 0.000176902344975879 -0.000314093565034304 -8.51172142598521e-05 -0.000567563736618463 -0.000401412418314994 -0.000318066405121845 -9.16411379110955e-05 -0.000417924815094095 -8.72123799345444e-05 -0.000177048825273672 -0.000259225082275513 -0.000633052455995844 0.000741688836218983 0.00038377831323961 0.00266825939247635
"69" -0.000122438508773535 0.000177075824285956 -0.000317058024295093 -8.62924258659098e-05 -0.000565995763662827 -0.000397083181290092 -0.000310790748263316 -8.3814683221372e-05 -0.000401476628473973 -8.46019200640512e-05 -0.000166286198216482 -0.000237389495051684 -0.000614539869347796 0.000768874610962432 0.000440044716758979 0.00279625905505856
"70" -0.000114713603317386 0.000177268565633884 -0.000319311396403145 -8.7202457780866e-05 -0.000562386592674627 -0.00039155383772362 -0.000301985956546102 -7.51764833809301e-05 -0.000383505901768481 -8.1703963402359e-05 -0.000154421807444621 -0.000215420651269615 -0.000594570220539903 0.000794756530072829 0.00049618666958795 0.00291523229910992
"71" -0.00010665103922174 0.000177441769907254 -0.000320893622187267 -8.79048420805266e-05 -0.000556825225964616 -0.000384927932101309 -0.000291756958616675 -6.58337047403207e-05 -0.000364181967676605 -7.86181756691721e-05 -0.000141570637063221 -0.000193423241856738 -0.00057332843786048 0.000819135297131033 0.000551749496827589 0.0030237283888811
"72" -9.83392181548325e-05 0.000177561553037818 -0.000321846691755817 -8.84576197812726e-05 -0.000549407521662765 -0.000377311844798375 -0.000280210019042276 -5.58843499323653e-05 -0.000343681929530591 -7.54446681697374e-05 -0.000127854002856877 -0.000171496309047688 -0.000551004509882758 0.000841813726827286 0.00060625194721307 0.00312037352293844
"73" -8.98568235163224e-05 0.000177593886120536 -0.00032221208572342 -8.89122948767832e-05 -0.000540237626225618 -0.000368824603238418 -0.000267460281298492 -4.54332311652931e-05 -0.000322190062728221 -7.22795688696944e-05 -0.000113395222031787 -0.000149728515188324 -0.000527791762970624 0.000862593897006443 0.000659203060203936 0.00320390672457555
"74" -8.12914493132588e-05 0.00017750344602551 -0.000322038925028841 -8.9323042136676e-05 -0.000529435577618989 -0.000359582392290817 -0.000253632591950637 -3.458812380505e-05 -0.000299903863462833 -6.9213991216267e-05 -9.83305159356109e-05 -0.000128214129545411 -0.000503887843136123 0.000881281295820703 0.00071009608682706 0.00327319568047713
"75" -7.272163400543e-05 0.000177266950307336 -0.00032136737939931 -8.97361810358136e-05 -0.000517123496717585 -0.000349706703818077 -0.000238847320631184 -2.34554080120759e-05 -0.000277015271233339 -6.63272785506949e-05 -8.27844669980836e-05 -0.00010703269415559 -0.000479484700893394 0.000897681565980806 0.000758414499854638 0.00332727732002301
"76" -6.4225801922841e-05 0.0001768515949241 -0.000320241358827025 -9.01948619077742e-05 -0.000503430938394072 -0.000339322630399623 -0.000223238771193696 -1.2142327471629e-05 -0.000253723497807889 -6.36928743303857e-05 -6.68947722194128e-05 -8.62692584821543e-05 -0.000454780653049832 0.000911603068145778 0.00080363869734571 0.00336536633295727
"77" -5.58775803789416e-05 0.000176232894924229 -0.00031870329986038 -9.07405108214818e-05 -0.000488499646879528 -0.00032855226867814 -0.000206935726685653 -7.5719279053904e-07 -0.000230227957893833 -6.13750349291211e-05 -5.07943453264759e-05 -6.59960898542467e-05 -0.000429967451662134 0.000922866541327546 0.000845257573363384 0.00338688959501393
"78" -4.77523584580259e-05 0.000175388449310671 -0.00031679585448765 -9.14079187215318e-05 -0.000472466335906943 -0.000317518032235726 -0.000190073976647819 1.06004842552476e-05 -0.00020672843920949 -5.94309160310018e-05 -3.46138241234591e-05 -4.628201755095e-05 -0.000405226794314545 0.000931299939489465 0.000882773697581813 0.00339149490830657
"79" -3.99156456944727e-05 0.000174303433145697 -0.000314552158829439 -9.22275259696045e-05 -0.00045547695410983 -0.000306339359577063 -0.000172787839196936 2.18259707707603e-05 -0.000183422963440157 -5.79013927645467e-05 -1.84875159087645e-05 -2.7189231942172e-05 -0.000380744719744584 0.000936739613552723 0.000915706479176314 0.00337906596306614
"80" -3.24247371841622e-05 0.000172959331733234 -0.000312016214375335 -9.32220090349464e-05 -0.000437677726456892 -0.000295136432866997 -0.000155209761086708 3.2819349474468e-05 -0.000160499548832801 -5.68247569662011e-05 -2.53505454538556e-06 -8.78374039834868e-06 -0.000356688733737384 0.000939034683439969 0.000943602623175892 0.00334972015354998
"81" -2.53368369814905e-05 0.000171346958579447 -0.000309220826653119 -9.44106740777081e-05 -0.00041921534425497 -0.000284021686079808 -0.000137472635776894 4.34916625345447e-05 -0.000138148143565705 -5.62282747956488e-05 1.31097003823529e-05 8.88432941716426e-06 -0.000333226239662338 0.000938052650979407 0.000966040881967428 0.00330382421402765
"82" -1.87001381016732e-05 0.000169461490093919 -0.00030619509522637 -9.58080412804727e-05 -0.000400237155676202 -0.000273102966027681 -0.000119707709630719 5.37467519393184e-05 -0.000116545162632362 -5.61243908100253e-05 2.83329885094194e-05 2.57684629593228e-05 -0.000310505643136852 0.000933678433453019 0.000982647278730551 0.00324198002764749
"83" -1.25581434933966e-05 0.000167298587842778 -0.000302968957006265 -9.7419211803862e-05 -0.000380888100946438 -0.000262484723970907 -0.000102038865360422 6.35031086772213e-05 -9.5860915257129e-05 -5.65183074378325e-05 4.30214501148505e-05 4.18188881467859e-05 -0.000288668597303984 0.000925810429759836 0.000993088612348785 0.00316501446741485
"84" -6.94293307048979e-06 0.000164863198603796 -0.000299568488376866 -9.92441890967458e-05 -0.000361311762178497 -0.000252261351436531 -8.45913478974942e-05 7.2684509566638e-05 -7.62542558643238e-05 -5.7408520081325e-05 5.7060844989034e-05 5.70026960918266e-05 -0.000267847354033177 0.00091436991253681 0.000997093317986712 0.00307396821476125
"85" -1.87988208620896e-06 0.000162158918821039 -0.000296014698891656 -0.000101279089204936 -0.000341648240125324 -0.000242517901573826 -6.7478431486123e-05 8.12179340020126e-05 -5.78708702457497e-05 -5.87786583798559e-05 7.03535979010972e-05 7.12793585565112e-05 -0.000248157523714925 0.000899291410942551 0.000994443549030008 0.00297006762518032
"86" 2.60991254020737e-06 0.000159198844347609 -0.000292327505302665 -0.00010351350477672 -0.00032203045963026 -0.000233338317629221 -5.08124305757279e-05 8.90389758299097e-05 -4.08442892615439e-05 -6.06063303753701e-05 8.28056269702837e-05 8.46224079183467e-05 -0.000229698999285848 0.000880541730345977 0.000984992564093765 0.0028547119527818
"87" 6.51621078083829e-06 0.000155996496989434 -0.000288528979265095 -0.000105930211287934 -0.000302592319746428 -0.000224791310344891 -3.46963598979493e-05 9.60889043863058e-05 -2.52933745940593e-05 -6.28613169294556e-05 9.43304050942016e-05 9.70058035999178e-05 -0.000212564754320003 0.000858096324856572 0.000968660037466124 0.00272943837287748
"88" 9.83902300926383e-06 0.000152572553972555 -0.000284627377421044 -0.000108506079353242 -0.000283455992129895 -0.000216938427265565 -1.92253486947269e-05 0.000102324044744674 -1.13243648418205e-05 -6.55094898229735e-05 0.000104844682967043 0.000108406559090444 -0.000196827711431433 0.000831962265059145 0.000945444170929012 0.00259589145347695
"89" 1.25798323591593e-05 0.000148950219688196 -0.000280633298071939 -0.000111214814679736 -0.00026474100826523 -0.000209828996622617 -4.48561838441655e-06 0.000107700173778963 9.78996441571474e-07 -6.85055182232685e-05 0.000114283793916901 0.000118808126859325 -0.000182554079687026 0.000802166184442291 0.000915416138889046 0.00245580403783586
"90" 1.47549244168427e-05 0.000145156105675033 -0.00027655885800809 -0.000114027209163936 -0.000246552516054324 -0.000203506265508152 9.44263684032115e-06 0.000112186222195399 1.15426117652993e-05 -7.18058301569484e-05 0.000122581794048901 0.000128193909687494 -0.000169785495879844 0.000768761496785111 0.000878727818457566 0.00231095087261991
"91" 1.63897885974333e-05 0.000141218536335539 -0.000272407736971473 -0.000116905041105494 -0.000228998712203119 -0.000198001142947151 2.24903008766857e-05 0.000115758399242272 2.03167093941563e-05 -7.53481779737604e-05 0.000129689843271213 0.000136554580564813 -0.000158559248233846 0.000731818415959071 0.00083561108368709 0.00216313103288852
"92" 1.7503680450536e-05 0.000137172065780975 -0.000268185853510041 -0.000119812098454321 -0.000212170441267611 -0.000193334039705743 3.459886870912e-05 0.000118403800758316 2.72587795765104e-05 -7.90884452432168e-05 0.000135561937875262 0.000143879250162991 -0.000148893213226225 0.00069144094008898 0.000786377675205645 0.00201413333714261
"93" 1.81403168645494e-05 0.000133053925933983 -0.000263889651101155 -0.00012270163961979 -0.000196151025226892 -0.000189514233592065 4.57168710453602e-05 0.00012011252495676 3.23559256828323e-05 -8.2961190084678e-05 0.000140167647503429 0.000150163937227326 -0.000140795854001516 0.000647748301537804 0.000731415735137114 0.00186571062494907
"94" 1.83378670674582e-05 0.000128897668809673 -0.000259523726244295 -0.000125535365291505 -0.000181017677678908 -0.000186544221367307 5.58077225442618e-05 0.00012089250113456 3.55995254591186e-05 -8.69132431924779e-05 0.000143477675978374 0.000155404351742766 -0.000134260133497108 0.00060088679475237 0.000671193390487245 0.00171956075439449
"95" 1.81407664127192e-05 0.000124744578699174 -0.000255085760809166 -0.000128262595350043 -0.000166836076367623 -0.000184413657382075 6.48399243802989e-05 0.000120748975360895 3.70079039392058e-05 -9.08872771616259e-05 0.00014548105027083 0.000159603834460461 -0.000129270065651152 0.000551030243191979 0.000606252822793013 0.00157730470201711
"96" 1.76072518263833e-05 0.000120637594690032 -0.00025057007983713 -0.000130837659359676 -0.000153663092882851 -0.000183103317235715 7.2797930092499e-05 0.000119701857583821 3.66103357165372e-05 -9.48217010088826e-05 0.000146174179979014 0.000162762005259712 -0.000125793384139541 0.00049836996185544 0.000537202348845113 0.00144046349614317
"97" 1.67891239779766e-05 0.000116613917752421 -0.000245977115793004 -0.000133210726207162 -0.0001415393682399 -0.000182588682495879 7.96687919500596e-05 0.000117782920225113 3.44563884066775e-05 -9.86691702296435e-05 0.000145553387778863 0.000164882467540081 -0.000123793654512736 0.000443121305338575 0.000464718888252161 0.00131045950707163
"98" 1.57456627325796e-05 0.000112717041125404 -0.000241299898529141 -0.000135337200604535 -0.000130503142227595 -0.000182829054587578 8.5458308316039e-05 0.000115020064748021 3.06046279168534e-05 -0.00010237322829489 0.000143636871059618 0.000165978128333884 -0.000123213782288054 0.000385528170475866 0.00038953809281182 0.00118858293807628
"99" 1.45431965596673e-05 0.000108989069012598 -0.000236535257020969 -0.000137165882352356 -0.000120581333464914 -0.000183783834006894 9.01725144881042e-05 0.000111460623544312 2.51339303611667e-05 -0.000105889278832522 0.000140448526976541 0.000166054600446544 -0.00012399867382162 0.000325849089654038 0.000312448120487038 0.00107600055774661
"100" 1.32451579658763e-05 0.00010546850735823 -0.000231678074769142 -0.000138655712932546 -0.000111783932743529 -0.000185400153723407 9.38348927336302e-05 0.000107147791304028 1.81337751801533e-05 -0.000109172714270844 0.000136015035827619 0.000165125664091675 -0.000126076300273261 0.000264365118192368 0.000234279106950626 0.000973747959076357
"101" 1.19130706859198e-05 0.000102193480966834 -0.00022672305013815 -0.000139757701714851 -0.00010412246258068 -0.000187621383445573 9.64700954534327e-05 0.000102137139191961 9.70499968122703e-06 -0.000112190606240115 0.00013038003936367 0.000163204607418196 -0.000129373054421495 0.000201384729235974 0.000155895570382757 0.000882720409617454
"102" 1.06124553615267e-05 9.92036262679612e-05 -0.00022167271417965 -0.000140435648585547 -9.75855519800146e-05 -0.000190385495650192 9.81180205455089e-05 9.64861528456351e-05 -4.15283284525456e-08 -0.000114908095504488 0.000123589926164689 0.000160309337282745 -0.000133806347104897 0.00013722577831003 7.81973057353043e-05 0.000803680799400672
"103" 9.41077196102854e-06 9.65326685552877e-05 -0.000216514748419487 -0.000140648010044099 -9.21675052950348e-05 -0.000193624012133425 9.88235974341705e-05 9.02624738392067e-05 -1.09805499297868e-05 -0.000117300464847817 0.000115701754001311 0.000156458627305726 -0.000139281526509192 7.22290344592988e-05 2.09313598112996e-06 0.000737248214529591
"104" 8.36258995115654e-06 9.42112650498121e-05 -0.000211254663815442 -0.000140362538531352 -8.78440704230319e-05 -0.000197265677344033 9.86320948581841e-05 8.35289111324407e-05 -2.29824916564972e-05 -0.000119350347121663 0.000106778495104815 0.000151679289145684 -0.000145708263809321 6.75529728628539e-06 -7.14887853590928e-05 0.000683904799346817
"105" 7.53326674390825e-06 9.22682375000914e-05 -0.000205888499695453 -0.000139546944446969 -8.45814652614656e-05 -0.00020123729996933 9.76064890211024e-05 7.63566310424684e-05 -3.59070700682498e-05 -0.000121042574143198 9.68939486819625e-05 0.00014599036433899 -0.000152984629754737 -5.88283720713714e-05 -0.000141639488913633 0.000643993230155997
"106" 6.97249225537234e-06 9.07270645956066e-05 -0.000200416275667771 -0.000138178128185095 -8.23437532543549e-05 -0.00020545982097637 9.58089721486376e-05 6.88198029843559e-05 -4.96126795540531e-05 -0.000122376065758392 8.61216879272832e-05 0.000139424644414302 -0.000161010035222475 -0.000124130016860758 -0.000207449075515239 0.000617732536614012
"107" 6.73906584243547e-06 8.96123771852411e-05 -0.000194839398073766 -0.000136233796867427 -8.10890673847893e-05 -0.000209857049835602 9.33035801175279e-05 6.09934178257373e-05 -6.39461319223581e-05 -0.00012334703111688 7.45531370095923e-05 0.000132008822809419 -0.000169678858708472 -0.00018876059217138 -0.000268051118277845 0.000605203064850039
"108" 6.87022342441111e-06 8.89353463964524e-05 -0.000189165860110986 -0.000133699807053402 -8.07614333921073e-05 -0.000214350827734509 9.01622970429431e-05 5.29516397125231e-05 -7.87634566545319e-05 -0.000123967377089632 6.22749704303199e-05 0.000123782842337958 -0.000178883222969156 -0.000252306026456988 -0.000322597440715459 0.000606368509937673
"109" 7.4131072639178e-06 8.87115263144412e-05 -0.000183393576138635 -0.000130564298502422 -8.13100478872744e-05 -0.000218864354154065 8.64590957651345e-05 4.47716094149167e-05 -9.39040379273472e-05 -0.000124247543755246 4.93800705094986e-05 0.000114782843332786 -0.000188514704040097 -0.0003143555768028 -0.000370309903108183 0.000621064208526215
"110" 8.40044705268261e-06 8.89491329265744e-05 -0.000177533563369902 -0.00012682204129499 -8.26665081225309e-05 -0.00022331997952035 8.22691569379519e-05 3.65290131914594e-05 -0.000109216691900279 -0.000124204690706536 3.59701184297657e-05 0.000105045163877947 -0.000198469852167471 -0.000374494502621898 -0.000410459342741135 0.000649002580881567
"111" 9.86076867797512e-06 8.96468215747726e-05 -0.000171593277993286 -0.00012247400369145 -8.47696789671628e-05 -0.000227644806567016 7.76712244133998e-05 2.82942630743134e-05 -0.000124546551933008 -0.000123866745140793 2.21513243754061e-05 9.46170812383263e-05 -0.000208634325813984 -0.000432297314998523 -0.000442388259598825 0.000689782524874173
"112" 1.18152361595085e-05 9.08064041759007e-05 -0.000165582179084747 -0.000117525842708111 -8.75489926766523e-05 -0.000231766258636321 7.27408214690654e-05 2.01443713717584e-05 -0.000139746747848837 -0.000123259094829735 8.02452478243662e-06 8.35496684628513e-05 -0.000218906707655508 -0.000487335034549249 -0.000465517415149944 0.000742888610841116
"113" 1.4282560443833e-05 9.24161987505645e-05 -0.000159509836099978 -0.000111987578008958 -9.09351854213097e-05 -0.000235617180324405 6.75577057404515e-05 1.21481194422376e-05 -0.000154665763241873 -0.000122408512089323 -6.30067376417827e-06 7.18884277993652e-05 -0.000229184198164108 -0.000539200729182101 -0.000479362560625075 0.000807687042949935
"114" 1.72638421295721e-05 9.44678386588848e-05 -0.000153389467390067 -0.000105877703144663 -9.48527900462997e-05 -0.000239133963727712 6.22001618919835e-05 4.37330853494528e-06 -0.000169166290345199 -0.000121357574522311 -2.07162107447967e-05 5.96887829275722e-05 -0.000239364997888499 -0.000587468820755477 -0.000483522970135769 0.000883447093635133
"115" 2.07677863128597e-05 9.69458470997503e-05 -0.000147229983694176 -9.92136511066117e-05 -9.92265928868128e-05 -0.00024225520848694 5.6739238592404e-05 -3.11650811066585e-06 -0.000183109581485933 -0.00012013945640313 -3.51108183827817e-05 4.70091040103499e-05 -0.000249350530403968 -0.000631737638618516 -0.000477716092297383 0.000969321211439286
"116" 2.47825872701896e-05 9.98236713758691e-05 -0.000141050617569514 -9.20265507660996e-05 -0.000103982854782969 -0.000244929004199423 5.12496249107347e-05 -1.02611311113315e-05 -0.00019636747486253 -0.000118791994569979 -4.93779067104048e-05 3.39104753136586e-05 -0.000259049456688471 -0.000671618387652182 -0.000461748713445645 0.00106436445520772
"117" 2.92972482757031e-05 0.000103079724184149 -0.000134863609193686 -8.43427404613607e-05 -0.000109051888052455 -0.000247108331710809 4.57993215841176e-05 -1.70030475483285e-05 -0.000208820856824955 -0.000117356545595923 -6.34109114723394e-05 2.04548673477296e-05 -0.000268372523540499 -0.000706729990173161 -0.000435554601348412 0.0011675321623495
"118" 3.42929280700077e-05 0.000106685043053508 -0.000128684191948316 -7.61984089335182e-05 -0.00011436101994097 -0.000248748839028259 4.04578925268076e-05 -2.32932151953272e-05 -0.00022035664955378 -0.000115873526269919 -7.71079285866585e-05 6.70884155261903e-06 -0.000277241123119722 -0.000736718524607284 -0.000399170749124122 0.00127768860879722
"119" 3.97389237363181e-05 0.000110603431954556 -0.000122530873392198 -6.76326247465688e-05 -0.000119839996214195 -0.000249815939311549 3.52820141414262e-05 -2.9080482304752e-05 -0.000230876362823935 -0.000114382193369983 -9.03664404688514e-05 -7.2597449753818e-06 -0.000285572139690105 -0.000761259657470276 -0.000352749183353698 0.00139360511157459
"120" 4.56097594404701e-05 0.0001148015353488 -0.000116419187712756 -5.86883101359837e-05 -0.000125421605812358 -0.00025027939610025 3.03320652917142e-05 -3.43222277486254e-05 -0.000240286623630494 -0.000112919558182388 -0.000103089919965336 -2.13795405640761e-05 -0.00029330166231325 -0.000780050168397608 -0.000296557746288066 0.00151396919147634
"121" 5.18635601725495e-05 0.000119236438489653 -0.000110365011860222 -4.94099143818881e-05 -0.000131040312398763 -0.00025011912109384 2.56616619145039e-05 -3.89875725141737e-05 -0.000248511965855622 -0.000111525517306877 -0.000115191740322411 -3.55820104685369e-05 -0.00030035898622979 -0.000792823835549896 -0.000230973375229596 0.00163739079777957
"122" 5.84533348660343e-05 0.00012386779889632 -0.000104390439454256 -3.98449070116588e-05 -0.000136638864280485 -0.000249320208568017 2.13138167868211e-05 -4.30383531585999e-05 -0.000255483343755095 -0.000110231261069426 -0.00012658334436488 -4.97888261948882e-05 -0.000306695270142745 -0.000799354551236458 -0.000156475084594595 0.00176241736372765
"123" 6.53370906800987e-05 0.000128647657203606 -9.85062574018838e-05 -3.00440395770455e-05 -0.000142166102252942 -0.000247874702293566 1.7330083904277e-05 -4.64541151862658e-05 -0.000261149237298739 -0.000109067349080824 -0.000137188329279688 -6.39333189363274e-05 -0.00031225579314012 -0.000799461497727504 -7.36523201683026e-05 0.00188753199787474
"124" 7.24578639913821e-05 0.000133530795643535 -9.27309307818157e-05 -2.00617864165683e-05 -0.000147569628370514 -0.000245784591543372 1.37445896212059e-05 -4.92109260235633e-05 -0.000265467604404931 -0.000108064757052172 -0.000146937985107583 -7.79380485111734e-05 -0.000317000393414723 -0.000793005849059457 1.68206720593958e-05 0.00201117344228822
"125" 7.97616582210788e-05 0.000138467189726613 -8.70838225136282e-05 -9.9492108317142e-06 -0.000152803322179253 -0.000243050912493868 1.05887484283662e-05 -5.12968754814623e-05 -0.000268412023622311 -0.000107244205359014 -0.000155766103715595 -9.17301178427124e-05 -0.000320896359915005 -0.000779900532014046 0.00011417676449543 0.00213175477823493
"126" 8.71862121733778e-05 0.00014340970507514 -8.1582371564724e-05 2.38920238966836e-07 -0.000157832158880843 -0.000239691776078399 7.87841646305393e-06 -5.27025158863129e-05 -0.000269968234580828 -0.000106626564264072 -0.00016362415552391 -0.000105240568077183 -0.000323915257483878 -0.000760117477249436 0.000217567387351082 0.00224766517882206
"127" 9.46705899543573e-05 0.000148303584663762 -7.62427039614287e-05 1.0443720382768e-05 -0.000162622249275667 -0.00023572525012782 5.63299148980657e-06 -5.34231692939373e-05 -0.000270137111443303 -0.000106224139484672 -0.000170462319289323 -0.00011840025612459 -0.000326039928064432 -0.000733680000961108 0.000326071229083093 0.00235730057000915
"128" 0.000102149605788661 0.000153101529983353 -7.1080488530177e-05 2.06095146996548e-05 -0.00016715264364561 -0.000231184100317758 3.85870112470724e-06 -5.34668649025874e-05 -0.000268929659545269 -0.000106049084690084 -0.00017624626032139 -0.000131143709586604 -0.000327258976663263 -0.000700674250783951 0.000438708430524581 0.00245908131049126
"129" 0.000109555710162623 0.000157751550146861 -6.61159247369172e-05 3.06801084310883e-05 -0.000171398243369829 -0.000226094831708708 2.55556264344738e-06 -5.28367830032977e-05 -0.000266373082941012 -0.000106107644616932 -0.000180951552568121 -0.000143410044286163 -0.000327569874475415 -0.00066125010679795 0.000554449042190385 0.00255147371967425
"130" 0.000116825807794579 0.000162201014506037 -6.1359188457283e-05 4.05996454006004e-05 -0.00017534693321827 -0.000220502575754424 1.72222090977996e-06 -5.15525355381084e-05 -0.00026250657089716 -0.000106398817563034 -0.0001845631629903 -0.000155141165874125 -0.000326976975771324 -0.000615618507079633 0.00067221474431007 0.00263300748425227
"131" 0.000123890099246875 0.000166404097406124 -5.68326106415429e-05 5.03101517683156e-05 -0.000178997077579721 -0.000214454091471053 1.34166868377017e-06 -4.96318687318254e-05 -0.000257380553150665 -0.000106918283393918 -0.00018706790875722 -0.000166287727868054 -0.000325492054505855 -0.000564055657745627 0.000790895444262073 0.00270230156001602
"132" 0.000130679681662081 0.000170308324830864 -5.25501996645741e-05 5.97581431228009e-05 -0.000182346677518069 -0.000207996677039748 1.39830730841967e-06 -4.71004109318089e-05 -0.000251061527758908 -0.000107660599674817 -0.000188478364119952 -0.000176803643645709 -0.000323138566015746 -0.000506896434375698 0.000909361294623025 0.00275809720934055
"133" 0.000137132122240912 0.000173867659458408 -4.85287715407119e-05 6.88890683651549e-05 -0.00018540160960591 -0.000201190228411309 1.86382546901255e-06 -4.39935498152203e-05 -0.000243619551661912 -0.000108605694185094 -0.000188801428629607 -0.000186652480630089 -0.000319938066370937 -0.000444541893725127 0.00102646177015134 0.00279926618924917
"134" 0.000143184030165394 0.00017704163729665 -4.4782910342382e-05 7.7649013405825e-05 -0.000188177097228092 -0.000194092746874927 2.71280369455463e-06 -4.03391958227715e-05 -0.000235143235109358 -0.000109740837070445 -0.000188061893440225 -0.000195799543162726 -0.000315923049818723 -0.000377444522178405 0.00114105306404289 0.00282485069641735
"135" 0.000148770461916283 0.000179785108053799 -4.13286132584921e-05 8.59899620570474e-05 -0.000190684268998018 -0.00018676889923656 3.90483673087207e-06 -3.61847353289009e-05 -0.000225728090090467 -0.000111041856639056 -0.000186293660574933 -0.000204224912332774 -0.000311137642605687 -0.000306111359495587 0.00125198990890771 0.00283406387922886
"136" 0.000153833758546818 0.000182060450493796 -3.8181398934882e-05 9.38604390906019e-05 -0.000192955097001113 -0.000179286881648215 5.39894506136845e-06 -3.15777727783664e-05 -0.000215471365581459 -0.000112484970401945 -0.000183531760365936 -0.000211916900433308 -0.000305626334873314 -0.000231104191484752 0.00135814557592075 0.00282631696423176
"137" 0.000158317471323564 0.000183832054617757 -3.53569282587637e-05 0.000101215723642092 -0.000195014078092977 -0.000171718374519737 7.15034651365113e-06 -2.65621416298937e-05 -0.000204491739999624 -0.000114042357895023 -0.000179830314413296 -0.000218861903251674 -0.00029943699932018 -0.000153011385465033 0.00145842811328343 0.00280124558723311
"138" 0.000162172853685768 0.00018506605790783 -3.28693923425267e-05 0.00010800949782491 -0.000196892628619498 -0.000164132659500557 9.10785694958114e-06 -2.11975874188417e-05 -0.000192903718795095 -0.000115687313170246 -0.000175246310426199 -0.000225069274979112 -0.000292628229734947 -7.24684506216634e-05 0.00155177063630622 0.00275870093800822
"139" 0.000165346338131958 0.000185734181639688 -3.07356968935679e-05 0.000114203176652875 -0.00019862802740672 -0.000156606030862281 1.12160437504123e-05 -1.55394023597509e-05 -0.000180833145990004 -0.000117388530518446 -0.000169845013602555 -0.000230552076628499 -0.000285260238619833 9.86813257387677e-06 0.00163715910200314 0.0026987594482307
"140" 0.000167796501635367 0.000185814602584126 -2.89678093116567e-05 0.000119756438940274 -0.000200264980194234 -0.000149211069488638 1.34188037471244e-05 -9.64736507383413e-06 -0.000168409799140773 -0.000119113230205073 -0.00016369634430603 -0.000235328240762116 -0.000277398989415175 9.33173985493123e-05 0.00171363447073379 0.00262173612502776
"141" 0.000169488025060603 0.000185285892774645 -2.75810073399367e-05 0.000124633745014245 -0.000201840085375687 -0.000142025693359694 1.56543965274995e-05 -3.58960661770701e-06 -0.000155762183931263 -0.000120830151562921 -0.00015688259666114 -0.000239436033619893 -0.000269113240493284 0.00017719282059903 0.00178030171862849 0.002528157768386
"142" 0.000170385869647009 0.000184133970768109 -2.65857838329316e-05 0.000128807580816616 -0.000203400953309846 -0.000135118848985426 1.78612687217444e-05 2.5707961719793e-06 -0.00014302798571098 -0.000122506774544206 -0.000149481314875135 -0.000242911787264898 -0.00026047292172213 0.000260800656447305 0.00183633733093363 0.0024187729182786
"143" 0.000170459683238387 0.000182347642821617 -2.60019179230319e-05 0.000132242301751216 -0.000204996413191975 -0.000128566215680831 1.99784592044738e-05 8.76358784776412e-06 -0.000130343680411879 -0.000124121979757584 -0.000141584284289671 -0.000245808353274139 -0.000251556065280038 0.000343458251678894 0.00188101151443257 0.00229453218061586
"144" 0.000169691768254475 0.000179924273167712 -2.58352570359772e-05 0.000134921439553556 -0.000206665361934645 -0.000122435181763704 2.19378864402833e-05 1.49205524559799e-05 -0.000117840941461382 -0.000125641441125447 -0.000133282696693538 -0.000248186570683409 -0.000242437182468589 0.00042449354769858 0.00191367618185647 0.00215656400459953
"145" 0.000168068068647445 0.000176860829989454 -2.61006453302083e-05 0.000136821171646634 -0.000208461630053283 -0.00011679831818723 2.36785656123293e-05 2.09694012101619e-05 -0.00010565881187021 -0.00012704394940909 -0.000124673190347159 -0.000250111482774093 -0.000233193998784673 0.000503257209220547 0.00193379163592655 0.00200616053451623
"146" 0.000165582141364905 0.000173164807202601 -2.68039793195084e-05 0.000137928070855587 -0.000210423921373878 -0.00011171498118252 2.51367373275999e-05 2.684109033067e-05 -9.39254281452393e-05 -0.000128309373550938 -0.000115852491935193 -0.000251654863358331 -0.000223907910121141 0.000579135524092106 0.00194092145195203 0.00184474987895358
"147" 0.000162227369191801 0.000168847710373695 -2.79539222624085e-05 0.000138230419858028 -0.000212602283703917 -0.000107249135716878 2.62530313261977e-05 3.24648141006068e-05 -8.27695925237908e-05 -0.000129422616949218 -0.000106918423573321 -0.000252905032074558 -0.000214652817614691 0.000651543900628072 0.00193474525014357 0.00167387710340567
"148" 0.000158008357989773 0.000163923636258486 -2.9562424465745e-05 0.000137720098021519 -0.000215031968018336 -0.000103454112131345 2.69673254618853e-05 3.77697770571234e-05 -7.23146082672226e-05 -0.000130368220766386 -9.79665957097457e-05 -0.000253944632170017 -0.000205513677382238 0.000719947818484977 0.00191506457658089 0.00149516362012803
"149" 0.000152939038316399 0.000158415117680277 -3.16268344231375e-05 0.000136398038624677 -0.000217758249117433 -0.000100382089336012 2.72208722825854e-05 4.26917404854771e-05 -6.2677434503345e-05 -0.000131145668963582 -8.91005539805379e-05 -0.000254862866130115 -0.000196567728309794 0.000783855998904953 0.00188181784763995 0.00131029084456241
"150" 0.000147039150521691 0.000152348951057508 -3.41515000682403e-05 0.000134265113224778 -0.000220811751421588 -9.8079869698022e-05 2.69654316596485e-05 4.71582093713563e-05 -5.39659220084401e-05 -0.00013174739658088 -8.04120664227532e-05 -0.000255761449908117 -0.00018789055272902 0.00084283302449671 0.0018350614695338 0.0011209705006616
"151" 0.000140328403882618 0.000145757520106154 -3.71389304967107e-05 0.000131329384126147 -0.000224220377508879 -9.65824089923272e-05 2.61523515719313e-05 5.11144304990366e-05 -4.62793606766864e-05 -0.000132177716280123 -7.1996903275781e-05 -0.000256735371702227 -0.000179558801899676 0.000896496292851366 0.0017750015628862 0.000928918274353095
"152" 0.00013283917983788 0.00013867350473787 -4.05858156588654e-05 0.000127608078112197 -0.000228017932749122 -9.59259960684232e-05 2.47390592038789e-05 5.44937778913251e-05 -3.97116103636942e-05 -0.000132449493849168 -6.39449293088505e-05 -0.000257885456757946 -0.000171637715371395 0.000944526986613704 0.0017019795911515 0.000735838788193142
"153" 0.000124612985643395 0.000131144023098551 -4.44822043496973e-05 0.000123116439947481 -0.000232215708057437 -9.61321417947446e-05 2.2687763267456e-05 5.72468275038551e-05 -3.43424635375878e-05 -0.000132574650036718 -5.63400374222831e-05 -0.000259308913298705 -0.000164201479552205 0.000986665193733582 0.00161647049675843 0.00054339360521273
"154" 0.000115689513781253 0.00012321140002588 -4.88231285257274e-05 0.000117878335422585 -0.000236828515592809 -9.72219512177245e-05 1.99693515488375e-05 5.93210467357571e-05 -3.02411977809882e-05 -0.000132573298609568 -4.92653959049843e-05 -0.00026110153736392 -0.000157310545149474 0.00102270828059042 0.00151909747639326 0.000353193135259017
"155" 0.000106118296732431 0.000114923044421584 -5.35967948342391e-05 0.000111925183370655 -0.000241867776673942 -9.92036949994982e-05 1.65586150639686e-05 6.06671757289779e-05 -2.74654563211224e-05 -0.000132472004037562 -4.27919553881838e-05 -0.000263364618206805 -0.000151028433003609 0.00105251430113341 0.00141061966451926 0.000166767923036602
"156" 9.59544909838671e-05 0.000106337979187876 -5.87851685077409e-05 0.000105288867695339 -0.000247329956441401 -0.00010208109246638 1.24408446463391e-05 6.12506700848982e-05 -2.60606932279224e-05 -0.000132295863231044 -3.69890604463226e-05 -0.000266177906624774 -0.000145403844868231 0.00107600384230626 0.00129192947088063 -1.44242913399392e-05
"157" 8.52588026938368e-05 9.75085466999775e-05 -6.43659962908236e-05 9.8008626349536e-05 -0.000253210812703917 -0.000105850432391611 7.60525568800994e-06 6.10345445422468e-05 -2.60592949082467e-05 -0.00013208036414004 -3.19143177867643e-05 -0.000269631666552886 -0.000140489823185801 0.00109315337862075 0.00116404870882763 -0.000189038010362832
"158" 7.40987272093041e-05 8.84961226100677e-05 -7.03179330796549e-05 9.0131114106657e-05 -0.000259496053088587 -0.000110494139495508 2.05362770974767e-06 5.99967446784566e-05 -2.74782939638593e-05 -0.000131860320412573 -2.76210241187455e-05 -0.000273793546285719 -0.000136327143448502 0.00110399095502534 0.00102811275049067 -0.000355823148840741
"159" 6.25403817622919e-05 7.93635776231082e-05 -7.66105937707182e-05 8.1703144870331e-05 -0.000266164269028192 -0.000115994779324656 -4.20783338676629e-06 5.8116087542704e-05 -3.03228283733105e-05 -0.000131672198444292 -2.4148345095938e-05 -0.000278736138764306 -0.000132949191018618 0.00110860562196088 0.000885374477500527 -0.000513639551491651
"160" 5.06594042347058e-05 7.01723428558438e-05 -8.3211994253683e-05 7.27810563794588e-05 -0.00027318676752395 -0.000122319838991803 -1.11614815439469e-05 5.53784748163534e-05 -3.45834087060864e-05 -0.000131556901550619 -2.15330558430687e-05 -0.000284506111841063 -0.000130382488150319 0.00110712835635763 0.000737184478622833 -0.000661465960980422
"161" 3.85329058477517e-05 6.09889423537591e-05 -9.00863959353908e-05 6.34199246063241e-05 -0.000280526685212066 -0.000129432212834327 -1.87823174064345e-05 5.17874294987526e-05 -4.02390244758583e-05 -0.000131555331519467 -1.97945940622609e-05 -0.00029115022304329 -0.000128652485854115 0.00109973694903017 0.000584981521532377 -0.000798396004653012
"162" 2.62454000722628e-05 5.18832980367096e-05 -9.71881171236845e-05 5.36847354757579e-05 -0.000288137555063352 -0.000137287067009014 -2.70392740556643e-05 4.73412376376356e-05 -4.72495669037489e-05 -0.00013170270919763 -1.89468838599959e-05 -0.000298692865084149 -0.000127763339149283 0.00108665455539884 0.000430268772248563 -0.000923641681129363
"163" 1.38781111210079e-05 4.292214984786e-05 -0.000104470416915475 4.36431512057949e-05 -0.000295967201597012 -0.00014582872800327 -3.58857596293005e-05 4.2055607197678e-05 -5.55624169530238e-05 -0.00013203993237852 -1.89892446249759e-05 -0.000307147064163472 -0.000127724694694256 0.00106813316968105 0.000274604599555493 -0.00103652986305857
"164" 1.51752192789437e-06 3.41712518210633e-05 -0.00011188257547047 3.33645396005052e-05 -0.000303959633138212 -0.000154998976375206 -4.52745348453517e-05 3.5953177629109e-05 -6.51167724948269e-05 -0.000132598815105014 -1.99162101643992e-05 -0.000316513319747098 -0.000128528305815853 0.00104446528538949 0.000119574930699129 -0.00113649897043302
"165" -1.07450851163658e-05 2.56986432799793e-05 -0.000119369133754222 2.2922597519698e-05 -0.00031205137191375 -0.000164727868509011 -5.5141204574949e-05 2.90640168733786e-05 -7.58304361311974e-05 -0.000133410242288096 -2.17062928266049e-05 -0.000326768255062801 -0.000130161043100756 0.0010159687835744 -3.32179927593206e-05 -0.00122311114783382
"166" -2.28227317332349e-05 1.75721534705123e-05 -0.000126871722666432 1.23936217468679e-05 -0.0003201683035726 -0.000174941210704398 -6.54214178003495e-05 2.14295151753817e-05 -8.7613386820522e-05 -0.000134499593919359 -2.43336890422531e-05 -0.000337872745332217 -0.000132593535490481 0.00098299068678883 -0.000182182041437787 -0.00129602190402631
"167" -3.46230577351164e-05 9.85457344360445e-06 -0.000134323268760226 1.86028817204009e-06 -0.000328229729201405 -0.000185558345120931 -7.60378031789311e-05 1.30953421121775e-05 -0.000100366428503651 -0.000135890643385122 -2.77544455701129e-05 -0.00034977540418811 -0.000135798511419937 0.000945892913516653 -0.000325762192882687 -0.00135500422785473
"168" -4.60548315552148e-05 2.60681074565395e-06 -0.000141658619815594 -8.60019200082885e-06 -0.000336156185155168 -0.000196492145569373 -8.69057983272307e-05 4.11665446989285e-06 -0.000113970567590036 -0.000137592418896573 -3.19209269381293e-05 -0.000362401722258822 -0.00013972969891837 0.00090505737952427 -0.000462458853296264 -0.00139993572066293
"169" -5.70224380334348e-05 -4.10386562413047e-06 -0.00014880270122024 -1.89013668174987e-05 -0.000343861276382574 -0.000207648228977905 -9.79396722624657e-05 -5.43745352715048e-06 -0.000128301040620033 -0.000139608766243713 -3.67676197498011e-05 -0.000375658195799076 -0.000144337586335644 0.000860873564858332 -0.000590856054130129 -0.00143078652041538
"170" -6.74415697340788e-05 -1.02250561647042e-05 -0.000155683466395572 -2.89605361961739e-05 -0.00035125020232467 -0.000218930190765507 -0.000109036757032237 -1.54962446026939e-05 -0.000143229348473965 -0.000141939061110421 -4.22350309266898e-05 -0.000389432017776787 -0.000149563342543697 0.000813743727474235 -0.000709631455761158 -0.00144763103509492
"171" -7.72151337110003e-05 -1.56996624304773e-05 -0.000162223386203354 -3.86912836527821e-05 -0.000358228260786069 -0.000230237371755028 -0.000120100514336707 -2.59839178830181e-05 -0.000158604576198013 -0.000144569672385103 -4.82375217073587e-05 -0.00040359841765948 -0.000155332952377748 0.000764069463997906 -0.000817603721616169 -0.00145063612651248
"172" -8.62606756980465e-05 -2.04776315442722e-05 -0.00016834055403825 -4.80087537456274e-05 -0.000364700166425603 -0.000241465953068372 -0.000131018298867645 -3.68075459024349e-05 -0.000174279513792412 -0.000147477133397385 -5.46948567557786e-05 -0.000418010044775207 -0.000161574937546314 0.000712255971087463 -0.000913731242002293 -0.0014400573208321
"173" -9.44876300961257e-05 -2.45139592581135e-05 -0.000173957033034296 -5.68287728042641e-05 -0.000370564771818599 -0.000252504216756994 -0.000141683295894433 -4.78778075141819e-05 -0.00019009804281511 -0.000150628936097039 -6.15123317199148e-05 -0.000432508746736863 -0.000168202598561875 0.000658710950798291 -0.000997134416824984 -0.00141623685135856
"174" -0.000101812654701629 -2.77596597668278e-05 -0.000178987357897751 -6.50668901170366e-05 -0.000375721691550959 -0.000263245053691837 -0.000151974097701249 -5.90907915882565e-05 -0.000205895743270246 -0.000153985351131966 -6.85954512567703e-05 -0.000446915602123097 -0.000175122852974899 0.000603835047133508 -0.00106711260680046 -0.00137960504994623
"175" -0.000108155742719881 -3.01868007043411e-05 -0.0001833488235749 -7.26434065982773e-05 -0.000380071551740217 -0.000273574787581122 -0.000161778631045022 -7.03497631817185e-05 -0.000221501603585393 -0.000157485494684913 -7.58319283105325e-05 -0.000461045449483065 -0.000182235743712287 0.000548012349429932 -0.00112316277370867 -0.00133068071602626
"176" -0.000113438982193797 -3.17590954689121e-05 -0.000186962239692982 -7.94761426961111e-05 -0.000383515538401267 -0.000283380381290876 -0.000170974176741472 -8.15370312998062e-05 -0.000236748943407187 -0.000161071595730507 -8.3120686301304e-05 -0.000474696160396093 -0.000189438265185893 0.000491635992772587 -0.00116496929396228 -0.00127004818732713
"177" -0.000117588916837318 -3.24491732647963e-05 -0.000189739126397158 -8.5489299303988e-05 -0.000385954193509618 -0.000292550973616226 -0.000179437582163689 -9.25491043341794e-05 -0.000251463489652525 -0.000164663898307693 -9.03450294246443e-05 -0.000487659381256977 -0.000196617666351341 0.000435076651864276 -0.00119242471725032 -0.00119838339458037
"178" -0.000120534805057651 -3.22350572904644e-05 -0.000191606159947353 -9.06101342140382e-05 -0.000387297004808013 -0.000300972744374208 -0.000187054898269906 -0.000103262439892155 -0.000265472416959079 -0.000168179938901818 -9.73949062771449e-05 -0.000499717071731765 -0.000203661655431738 0.000378689840596128 -0.00120561800936177 -0.00111643556593185
"179" -0.000122214936005285 -3.110493540789e-05 -0.000192480525821151 -9.47697045533675e-05 -0.000387447639630369 -0.000308536356048077 -0.000193699695718402 -0.000113563618580419 -0.000278603602223498 -0.000171530177227825 -0.000104153908995414 -0.000510644290117152 -0.000210447157590801 0.000322827018948563 -0.00120484202612484 -0.00102503271989501
"180" -0.00012257586163169 -2.90506887672498e-05 -0.000192292777562006 -9.79017165915739e-05 -0.000386326887938063 -0.000315133418079072 -0.000199257881522526 -0.000123335116211954 -0.000290685120603057 -0.000174604669955326 -0.000110503576556671 -0.000520223057789388 -0.000216858743760923 0.000267815624744081 -0.00119057706685168 -0.000925065745642209
"181" -0.000121554505138832 -2.60686224466951e-05 -0.000190965402732517 -9.99469138529265e-05 -0.000383849733610698 -0.000320658782528213 -0.000203615091970243 -0.000132457553207596 -0.000301547545607395 -0.00017729832284097 -0.000116328701610769 -0.000528227172447925 -0.000222770669222414 0.000213967163657499 -0.00116349257421718 -0.000817507395574287
"182" -0.000119116152424985 -2.21641325862272e-05 -0.000188435333538309 -0.0001008542048502 -0.000379943817102579 -0.000325012008202118 -0.000206661943661175 -0.000140813429383052 -0.000311030961429049 -0.000179492106474985 -0.000121520920661187 -0.00053443283747341 -0.000228056715606616 0.00016157435732152 -0.00112441817230694 -0.000703388679491171
"183" -0.000115216167033029 -1.73498477209837e-05 -0.000184642062908457 -0.000100574354004727 -0.000374544889428942 -0.000328096236807309 -0.000208291192528996 -0.000148288723359714 -0.000318973388628203 -0.000181063616225312 -0.000125961633402355 -0.00053863088967776 -0.00023259988215714 0.000110911591925452 -0.0010743488329519 -0.000583799013143902
"184" -0.00010982824264205 -1.16422504110933e-05 -0.000179528275267706 -9.9066732559416e-05 -0.000367590553457554 -0.000329821465790133 -0.000208405306930114 -0.000154767717428049 -0.000325225635259242 -0.000181886344239815 -0.000129550983834118 -0.000540602953003595 -0.000236269623568583 6.22315362332276e-05 -0.00101440750700816 -0.000459882061431291
"185" -0.000102924800038634 -5.06877128516745e-06 -0.000173049249234843 -9.63007438489546e-05 -0.00035903387518636 -0.000330100354795999 -0.000206911599108642 -0.000160139886121475 -0.000329645273324723 -0.000181832243100442 -0.000132184485907151 -0.000540157771766886 -0.000238954288524659 1.57660375517749e-05 -0.000945838421503418 -0.000332834500771679
"186" -9.44917771043285e-05 2.33820390876988e-06 -0.000165160347071493 -9.22448976499897e-05 -0.000348834998272563 -0.00032885756100575 -0.000203726209256084 -0.000164307173207085 -0.000332095941835714 -0.000180768707520274 -0.000133762145307859 -0.000537109501983822 -0.000240534289958441 -2.827976585477e-05 -0.000869994550684874 -0.000203891289322831
"187" -8.4526041787358e-05 1.05401790103169e-05 -0.000155831303609191 -8.68858443518294e-05 -0.000336964699815258 -0.000326021953237712 -0.000198778661994578 -0.000167167220152144 -0.000332451368515147 -0.000178564813225568 -0.000134196637416092 -0.000531290728317621 -0.000240894830844479 -6.97244664418797e-05 -0.000788304044197908 -7.43199935471285e-05
"188" -7.30274730912005e-05 1.94896095183777e-05 -0.000145038026907036 -8.02135599627776e-05 -0.000323406525839993 -0.000321531994570453 -0.000191998812447736 -0.000168630216879952 -0.000330603492403595 -0.000175096313865785 -0.00013340192583485 -0.0005225517805229 -0.000239935508230109 -0.000108411533109029 -0.000702258057181007 5.4588616409999e-05
"189" -6.00112174242243e-05 2.9138721943731e-05 -0.000132763013928626 -7.22266780787605e-05 -0.000308152498567736 -0.000315335648218209 -0.000183336429697001 -0.000168606725501904 -0.000326447153511081 -0.00017023506981722 -0.000131305459162819 -0.000510758156870279 -0.000237549021746912 -0.000144209997257565 -0.000613400253573881 0.000181531714866416
"190" -4.54972517099102e-05 3.94243720778164e-05 -0.000119004141969762 -6.29323174145943e-05 -0.000291203520416547 -0.000307390926900302 -0.000172748118437161 -0.000167028690685081 -0.000319897679776248 -0.00016386175075135 -0.00012783573369513 -0.000495804128281155 -0.000233648315545536 -0.000177013532518513 -0.000523301349118171 0.000305208913588066
"191" -2.95215014802593e-05 5.02829875503715e-05 -0.000103767570797173 -5.23490797997472e-05 -0.0002725856845216 -0.000297664050703374 -0.000160203455967003 -0.000163821660495652 -0.000310880287803852 -0.000155870192935976 -0.000122940267177529 -0.000477607019481897 -0.000228147948429087 -0.000206752047354632 -0.000433538215693747 0.000424331385681972
"192" -1.21214415628162e-05 6.16452049629743e-05 -8.70610116790602e-05 -4.05006457046435e-05 -0.000252319566301097 -0.000286133902302826 -0.000145685275910861 -0.000158935755653213 -0.000299337319275228 -0.000146154304338972 -0.000116565172363992 -0.000456105535077191 -0.000220968221477452 -0.000233380006950089 -0.000345691596303977 0.000537645984666495
"193" 6.64848988272248e-06 7.34337949094822e-05 -6.89179425809222e-05 -2.74217849186033e-05 -0.000230455668418551 -0.000272789569694841 -0.000129190192036987 -0.000152320479273518 -0.000285223927354485 -0.000134621193403128 -0.000108675654325206 -0.000431271514099762 -0.000212049789154482 -0.000256876570577082 -0.000261315107415817 0.000643935868242329
"194" 2.67253374275922e-05 8.55705694444492e-05 -4.93711923087047e-05 -1.31563937440243e-05 -0.000207042926286566 -0.000257632002518402 -0.000110729885570051 -0.000143942675209841 -0.000268516618852157 -0.000121196838537717 -9.92437228173095e-05 -0.000403100110346103 -0.00020133497530287 -0.000277258154971384 -0.000181929217227141 0.000742049781308088
"195" 4.80370709809609e-05 9.79710818577296e-05 -2.84679483418859e-05 2.24106374115843e-06 -0.000182147819366758 -0.000240672877147528 -9.03268445482136e-05 -0.000133777959795304 -0.000249205807831993 -0.000105815843754538 -8.82512490146527e-05 -0.000371618467697724 -0.000188778514577414 -0.000294565035226154 -0.000109005998696671 0.000830908143884552
"196" 7.05024479866768e-05 0.000110545598658948 -6.26989395809684e-06 1.87089901270283e-05 -0.000155856508816976 -0.000221939362070947 -6.80217649426314e-05 -0.000121818791674134 -0.000227298591821141 -8.84293798289953e-05 -7.56928141771036e-05 -0.000336882686394248 -0.000174354862145756 -0.000308878553313697 -4.39555414454697e-05 0.000909522971437125
"197" 9.40261560679058e-05 0.000123205163785815 1.71611623474416e-05 3.61791101656257e-05 -0.000128255071781838 -0.000201468321638675 -4.386753863943e-05 -0.000108064117792128 -0.000202823641267324 -6.90102725560339e-05 -6.15776049897075e-05 -0.00029897743955634 -0.000158041717300088 -0.000320300287673382 1.18933593416723e-05 0.000977016687187724
"198" 0.000118510563915625 0.000135857012053343 4.17377228888548e-05 5.4571503531206e-05 -9.94492939627031e-05 -0.000179310023325804 -1.79328278857674e-05 -9.25273495031473e-05 -0.000175827055515944 -4.75458714812246e-05 -4.59191407634511e-05 -0.00025801525369705 -0.000139834952114953 -0.000328967586459536 5.72942582851031e-05 0.00103263175896087
"199" 0.000143842535052066 0.000148409669716497 6.73737891920006e-05 7.37989477491398e-05 -6.95529712237726e-05 -0.000155525109984443 9.69877358137053e-06 -7.52360983509212e-05 -0.000146369032269116 -2.4044657965553e-05 -2.87479011781625e-05 -0.000214146915004279 -0.000119744319750031 -0.000335041108259596 9.1110060390782e-05 0.00107574329119797
"200" 0.000169900866767589 0.00016076545461386 9.39747392734308e-05 9.3769307706739e-05 -3.86872099988386e-05 -0.00013018797634845 3.89318888853345e-05 -5.62358461907097e-05 -0.000114531416766443 1.46289627624728e-06 -1.0106153058166e-05 -0.000167547325847239 -9.77906938159006e-05 -0.000338709958242196 0.000112312323829022 0.00110586342638679
"201" 0.000196565111129215 0.00017283445360878 0.000121425380656287 0.00011438135156704 -6.98906520074941e-06 -0.000103385479361101 6.96575927911456e-05 -3.55734484605141e-05 -8.04188725699025e-05 2.89233953859011e-05 9.95231253783096e-06 -0.000118418106425689 -7.40119162460366e-05 -0.000340188530262451 0.000120003694692163 0.00112266577019267
"202" 0.00022369840122797 0.000184523535404163 0.000149610943338004 0.000135525455443284 2.54019815871917e-05 -7.52162001878472e-05 0.000101747986176858 -1.33179500670259e-05 -4.41486835983607e-05 5.8260096117481e-05 3.13627910378999e-05 -6.69923758396307e-05 -4.84604429869342e-05 -0.000339712941852461 0.000113421086768657 0.00112596728616875
"203" 0.000251161948293051 0.000195742894803334 0.000178406327530717 0.000157090140577622 5.83317577782236e-05 -4.57889887967997e-05 0.000135071370721966 1.04528865050339e-05 -5.85656532563245e-06 8.93791089460657e-05 5.40509933471676e-05 -1.35300612926139e-05 -2.11990830837469e-05 -0.000337531927955988 9.19526901215819e-05 0.00111575171746676
"204" 0.000278808272119466 0.000206405154107014 0.000207677419233631 0.000178954548267619 9.16469580954404e-05 -1.5223330141732e-05 0.000169474230444614 3.56500988442971e-05 3.43012747610894e-05 0.000122158009730698 7.7925591696802e-05 4.16872054007011e-05 7.69307839937494e-06 -0.00033391052774129 5.51428517425649e-05 0.00109215009135468
"205" 0.000306487832059121 0.00021642822973847 0.000237286362862568 0.000200999025750183 0.000125183443882623 1.63506649293371e-05 0.000204804557500939 6.21703738563621e-05 7.6155332345108e-05 0.000156450758307906 0.000102888174182658 9.83510104342486e-05 3.81161682555287e-05 -0.000329126664730151 2.7072545167962e-06 0.00105545256377933
"206" 0.000334053645031375 0.000225737222585877 0.000267088605136017 0.000223094568277625 0.000158772315246155 4.87953761363881e-05 0.000240887561250766 8.9901485125479e-05 0.000119517127654293 0.000192097247418299 0.000128830670096356 0.000156134061332406 6.99640337071183e-05 -0.000323461082272757 -6.5463757782691e-05 0.00100608367524
"207" 0.000361345030646948 0.000234258898702256 0.000296938848751702 0.000245113411314702 0.000192252759705056 8.19613902989866e-05 0.000277552818077214 0.000118721504436479 0.000164185503375217 0.000228905889029556 0.000155631100277887 0.00021468285561646 0.000103114900925369 -0.000317196974053811 -0.000149299216939239 0.000944603986597572
"208" 0.000388212337837526 0.000241928676347284 0.000326681172890802 0.000266924861218643 0.000225444660035273 0.000115694022593567 0.000314609297405121 0.000148498194480451 0.000209942886395642 0.000266667995571513 0.000183158880920827 0.000273637555979734 0.000137433245991289 -0.000310611223435567 -0.000248531966927601 0.00087170098072742
"209" 0.000414500130754528 0.000248692623131326 0.000356166153217097 0.00028839550175761 0.000258183871027261 0.000149836570422377 0.0003518763429579 0.000179090111656018 0.000256560861756992 0.000305161601994482 0.000211277968322682 0.000332617267379955 0.000172768519869074 -0.000303976690771379 -0.000362710837114116 0.000788168496369859
"210" 0.000440056365400716 0.000254497099440656 0.00038523619815703 0.000309396505065079 0.000290297477405332 0.000184218210913807 0.000389153509127779 0.000210349919035626 0.000303803039611095 0.000344140881416651 0.000239837848884505 0.000391231367227559 0.000208960842356366 -0.00029754883696804 -0.000491181920794415 0.000694891302089269
"211" 0.000464731842411007 0.000259306158643279 0.000413739493602049 0.000329800605846677 0.000321620704879297 0.000218672234849107 0.000426249737065989 0.000242123610709246 0.000351415683087441 0.000383344249424899 0.000268685256448517 0.000449082485871418 0.000245839336968821 -0.000291565485079065 -0.0006330977371357 0.000592829340370534
"212" 0.000488382161338182 0.000263086955838083 0.000441528160572677 0.00034947843621361 0.000351987939267393 0.000253022531920413 0.000462963967607677 0.000274253342525392 0.000399144577167317 0.000422498994199562 0.000297658750273524 0.000505768422083045 0.000283223283190696 -0.000286246292302648 -0.000787415876048746 0.000483009282826056
"213" 0.000510873497819394 0.000265820224011108 0.00046844980595756 0.000368307175474036 0.000381245218262205 0.000287099931888575 0.000499102162800107 0.000306572494488174 0.000446729483242843 0.000461323245165992 0.000326593954418756 0.000560882901235546 0.000320916444371448 -0.000281785748001392 -0.000952908869182931 0.000366489501170908
"214" 0.000532075079833153 0.000267490574473076 0.000494367469018972 0.000386172416146425 0.000409245003182662 0.000320730071534051 0.000534470346924365 0.000338915487560809 0.000493900343873292 0.000499525455478913 0.000355317411034619 0.000614029568899953 0.000358724054797545 -0.000278351806727958 -0.00112816218137237 0.000244365607803566
"215" 0.000551860869805987 0.000268098675027207 0.000519143510612225 0.000402960996714193 0.000435839486936642 0.000353737355933037 0.000568878598590614 0.000371114956933556 0.0005403921224247 0.000536812621566827 0.000383658750539585 0.000664811896635976 0.000396440838812178 -0.000276088270805943 -0.00131159095250345 0.000117742198182372
"216" 0.000570126202874757 0.000267652426735109 0.000542646058385086 0.000418568876450587 0.000460900595361789 0.000385958218808386 0.000602139754910025 0.000403004694271058 0.000585937394162554 0.000572881019903447 0.000411443777715774 0.000712848169816641 0.000433853532934494 -0.000275096547297202 -0.00150144458439533 -1.22807333182861e-05
"217" 0.000586762127402511 0.000266168308755312 0.000564759915340645 0.0004329023199593 0.000484308088809288 0.000417224744330407 0.000634080947031343 0.000434412400218212 0.000630269608909888 0.000607436612301367 0.000438497527652797 0.000757767452295873 0.000470753978417121 -0.000275457158842962 -0.00169583152090638 -0.000144622636744871
"218" 0.000601691037864043 0.000263674627160022 0.000585376031504894 0.000445877385428182 0.000505949317168389 0.00044738162023459 0.000664528544058504 0.000465177032892258 0.000673133396727205 0.000640190792180499 0.000464653222723624 0.000799219372641448 0.000506922599414996 -0.000277220415764147 -0.00189273637002493 -0.000278228107747779
"219" 0.000614830710362746 0.000260208789573976 0.000604398335544433 0.000457416721148694 0.000525730718193442 0.000476277235436885 0.000693330277048351 0.000495135468470279 0.000714274426626584 0.000670856810217532 0.00048973565005738 0.000836876053404359 0.000542146394285406 -0.000280403536832983 -0.0020900334047532 -0.000412088030683994
"220" 0.000626121262778574 0.000255816042816114 0.000621737444180039 0.000467457606697264 0.000543565813665215 0.000503768660951049 0.000720335813589029 0.000524131658957383 0.000753448529461249 0.000699163217488174 0.000513580684074754 0.000870438666924203 0.000576214545581781 -0.000284985835355299 -0.00228552022818167 -0.000545237137501811
"221" 0.000635519862771614 0.000250549436135186 0.000637327589794532 0.000475949724957061 0.000559389558035762 0.000529725746493481 0.000745412484463996 0.000552014988214825 0.0007904308068562 0.000724857060121363 0.000536038295974401 0.000899634376700561 0.000608918882630481 -0.000290937312168541 -0.00247695564889278 -0.000676778760596961
"222" 0.000642986643862428 0.000244467458688938 0.000651106637124272 0.000482853623736677 0.000573144180791791 0.000554026174780892 0.000768440413601133 0.000578643154817772 0.000824999077877595 0.00074769549818351 0.000556956212394126 0.000924226640446743 0.000640053125146252 -0.000298186368681708 -0.00266206793715519 -0.000805871566621879
"223" 0.000648513967428793 0.000237645746928516 0.000663039559885498 0.000488146498489761 0.000584800164636177 0.000576565611719926 0.000789315700432455 0.00060388117457328 0.000856955702090525 0.000767464730120237 0.000576191745082828 0.000944013801984434 0.000669428281666326 -0.00030664427595615 -0.00283861182664645 -0.000931746418822677
"224" 0.000652093026668686 0.000230151099262299 0.000673094191855815 0.000491815200926335 0.000594322776074199 0.000597247777528335 0.00080794889761446 0.000627604412210965 0.000886116044729417 0.000783970400863596 0.000593621803491512 0.000958835480145939 0.000696856279678523 -0.000316199855654472 -0.00300438221992725 -0.00105371317292156
"225" 0.000653740819916362 0.000222066733422187 0.000681259876103255 0.000493863592187682 0.000601710358900815 0.000615990380677939 0.000824270204593662 0.00064969834392755 0.000912315191988551 0.000797047290772437 0.000609130261654831 0.000968570614577313 0.000722167920694633 -0.000326726299788758 -0.00315727450447242 -0.00117115500287202
"226" 0.000653487655133047 0.000213475646877472 0.000687543764640991 0.000494310000690907 0.000606969101304177 0.000632730776117155 0.000838221250354254 0.000670062129440762 0.00093541094603716 0.000806556201085249 0.000622616341556507 0.000973143871627878 0.000745198833101739 -0.000338079751984087 -0.00329530395055432 -0.00128353156744561
"227" 0.000651376308785601 0.000204465205890139 0.000691962472149532 0.000493184787176109 0.000610124732034595 0.000647417890796397 0.000849765051948463 0.000688603309497515 0.000955280845048847 0.000812389704635786 0.00063399494145563 0.000972524727672251 0.000765810910718741 -0.000350101196193157 -0.00341664282021672 -0.00139038906139317
"228" 0.000647462845423815 0.000195121830009055 0.000694558744692461 0.000490533100537633 0.000611208970410712 0.000660017003603092 0.000858880468524333 0.00070524349570053 0.000971828865303478 0.000814475522149901 0.000643193779236267 0.000966727268177084 0.000783872704522262 -0.000362625491763407 -0.00351965859671086 -0.00149135349740335
"229" 0.00064181973252675 0.000185539093268315 0.000695376844289343 0.000486412580887935 0.000610279958965371 0.000670511108955634 0.000865565348643419 0.000719921595621541 0.00098497768969957 0.000812770271501301 0.000650162423661969 0.000955814733204174 0.000799278486253207 -0.000375477765698981 -0.00360293934975705 -0.00158611753531979
"230" 0.00063452987456731 0.000175810580601822 0.00069448459845318 0.000480893810011772 0.000607401464268456 0.000678898760792922 0.000869833064408576 0.000732586544666148 0.000994677797333896 0.00080726858792863 0.000654861412755308 0.000939892597989099 0.000811939489002366 -0.000388475924843333 -0.00366531464863368 -0.00167446441481015
"231" 0.000625690255571495 0.000166021569630369 0.000691961982882641 0.000474058700038928 0.000602646899968677 0.000685193813316631 0.000871715100745115 0.000743203962584785 0.00100089939299915 0.000797994020780912 0.000657271641141844 0.000919115975308736 0.000821778893567517 -0.000401436853761414 -0.00370588469789496 -0.00175624030810836
"232" 0.000615407739106653 0.000156267705302994 0.000687900706167735 0.00046600417848319 0.000596112989351917 0.00068942681593568 0.000871256166965091 0.000751751972807242 0.00100364431043856 0.000785012050250023 0.000657398678642535 0.000893678238132336 0.000828754946921486 -0.000414179323496192 -0.00372402547368236 -0.00183137621976962
"233" 0.000603796615900672 0.000146633547508258 0.000682399497945556 0.00045683121888351 0.000587892063436724 0.000691639738093719 0.000868523235832165 0.000758227112845313 0.00100293158287289 0.000768414642668445 0.000655252300781178 0.00086381676581663 0.000832835546119691 -0.000426521517999389 -0.00371939252721824 -0.00189985727249472
"234" 0.000590979367153769 0.000137200034777131 0.000675573069010793 0.000446652499486457 0.000578097474784776 0.000691893761702868 0.000863589066627073 0.000762637069886921 0.000998807120599676 0.000748327621515162 0.000650871075488248 0.000829806812328643 0.000834018681216242 -0.000438290671701876 -0.00369192854607253 -0.00196173674109579
"235" 0.000577085169878095 0.0001280512703943 0.000667543491089998 0.000435588895815389 0.000566848161748613 0.000690260344845644 0.000856546142701523 0.000765006015777437 0.000991334735357996 0.000724909678830856 0.000644303930338937 0.000791958641204327 0.00083231810032943 -0.000449308958008125 -0.00364184557250646 -0.00201712633054146
"236" 0.000562251536368115 0.00011926258897104 0.00065843767525757 0.000423766185025892 0.000554264237486396 0.000686825209946916 0.000847497502484444 0.000765371952372 0.000980609481198496 0.000698348097886306 0.000635617218056703 0.000750611868951363 0.00082776616030169 -0.000459417129638676 -0.00356962312177176 -0.00206620066447123
"237" 0.00054662126610755 0.000110901535081652 0.000648390072448258 0.000411316658856646 0.000540476120501922 0.000681688340666266 0.000836557402418354 0.000763782076435912 0.00096673956717312 0.00066885914058065 0.000624897203923274 0.000706136590724961 0.000820429870119401 -0.000468460463125602 -0.00347597691246886 -0.00210917518938114
"238" 0.000530328602323743 0.000103035202120492 0.00063754098828564 0.000398373389892247 0.000525617973730838 0.000674952948030126 0.000823855413206754 0.000760302036455973 0.000949851821394815 0.000636672886378998 0.000612233665592483 0.000658921983354708 0.000810377865461086 -0.000476291359883254 -0.00336184004791286 -0.00214630894044035
"239" 0.00051352192751356 9.5716829884914e-05 0.000626027318863192 0.000385074285391564 0.000509827031756101 0.000666741247457489 0.000809520310763077 0.000755009685559292 0.000930097416731959 0.000602060593444214 0.000597741595365187 0.000609378615766292 0.000797709191506689 -0.000482779953720038 -0.00322836054649523 -0.00217790324774989
"240" 0.000496345191283785 8.8999744862568e-05 0.000613989555298433 0.000371556548369393 0.000493238631245152 0.000657175836357629 0.000793696940772349 0.000747987241905236 0.000907639412031859 0.000565294989577563 0.000581542207867211 0.00055793195544625 0.000782539136986896 -0.000487806182147988 -0.00307684189673377 -0.00220429290895951
"241" 0.00047893755582894 8.29264727204377e-05 0.000601569739970942 0.000357953037759737 0.000475991608607594 0.000646385833705094 0.000776532528132954 0.000739336321534724 0.000882652721364055 0.000526673676400109 0.000563762588418216 0.000505008622316415 0.00076499627530497 -0.000491261574026982 -0.00290872233214935 -0.00222583257773527
"242" 0.000461438217880127 7.75302923087159e-05 0.00058890099231368 0.000344400500472286 0.000458217694474572 0.000634511572206348 0.000758179880004659 0.000729157740289355 0.000855330284881899 0.000486507730142937 0.000544547147959732 0.000451049088897981 0.000745226746023725 -0.000493055114284827 -0.00272556822319833 -0.00224290873697964
"243" 0.00044398276959379 7.28380082196871e-05 0.000576120834948303 0.000331026962877743 0.000440054217606389 0.000621690955351114 0.000738794223255092 0.000717568040401213 0.000825875302433284 0.000445109581012719 0.000524039664653675 0.000396486705124308 0.000723385383871583 -0.000493105350032369 -0.00252903204218503 -0.00225591769031498
"244" 0.000426699835296826 6.88689801185373e-05 0.000563349821802186 0.000317954780892579 0.000421626981547137 0.000608071334634654 0.000718535510387277 0.000704689310276713 0.000794502319303495 0.000402812935418292 0.000502397660171989 0.000341749369815744 0.000699642453523844 -0.00049135130958577 -0.00232082604362873 -0.00226526883286441
"245" 0.00040971055686851 6.56313271148617e-05 0.000550710535160019 0.000305305510316476 0.000403058744723071 0.000593791572009761 0.000697557760246663 0.000690642992918497 0.000761426835426269 0.000359937826374447 0.000479776266558241 0.000287259261776444 0.000674175443059137 -0.00048773692296778 -0.00210270560081857 -0.00227137320219279
"246" 0.000393133118009787 6.31297829463841e-05 0.000538310884857779 0.000293187681791393 0.000384470951895232 0.000578997537017691 0.000676023970047555 0.00067555938424524 0.000726875381118578 0.000316818672145905 0.000456336106937227 0.000233423702990833 0.000647169314478729 -0.000482232195605256 -0.00187645318795655 -0.00227464403991821
"247" 0.000377076057360759 6.13538016547777e-05 0.000526251871668089 0.000281700579860847 0.000365972380595932 0.000563831442102263 0.000654086931929845 0.00065957486454104 0.000691077797664749 0.000273777895903188 0.000432242510033295 0.000180629721264898 0.000618814008063038 -0.00047481309163714 -0.00164384340750805 -0.00227547938651168
"248" 0.000361630851899618 6.02883736867745e-05 0.000514624296176296 0.000270937897206055 0.000347662921539676 0.000548429201523589 0.000631898375485047 0.000642816010703724 0.000654264796245811 0.000231138809725965 0.000407657188967766 0.000129249731106029 0.000589305200289419 -0.00046547455197862 -0.0014066531735074 -0.00227427636524596
"249" 0.000346893531275776 5.99101207638161e-05 0.000503500574468658 0.000260975505652317 0.00032963842651014 0.000532926966304669 0.000609605878557712 0.000625423918249816 0.000616669473790544 0.000189206944795568 0.000382738594557743 7.96252157979025e-05 0.000558840518394782 -0.000454221434747108 -0.00116662351784924 -0.00227140455108124
"250" 0.000332935674822222 6.01879190388117e-05 0.000492948148279535 0.000251889338242877 0.000311987418035185 0.000517453913496675 0.000587355115359504 0.000607531679438591 0.000578518402823645 0.000148288396268558 0.000357647198906784 3.20769070626295e-05 0.000527611307640095 -0.000441074922402578 -0.000925468281012717 -0.00226722070486351
"251" 0.000319826009270571 6.10830500575835e-05 0.000483015167884679 0.000243732029132942 0.000294779593596123 0.000502133090854068 0.000565277511254623 0.000589265173605916 0.00054004334223845 0.000108662454612101 0.000332538133120343 -1.31022207020853e-05 0.000495813317146319 -0.000426067976371001 -0.00068485201872321 -0.00226204850964671
"252" 0.000307619613783271 6.2547944622625e-05 0.000473742119647367 0.000236548208302129 0.000278088355926651 0.000487078716356282 0.000543505957607187 0.00057075717192365 0.000501465526214592 7.06010349787157e-05 0.000307562750710387 -5.56535154361481e-05 0.000463636354551427 -0.000409240719857458 -0.00044639085921015 -0.00225617931373489
"253" 0.000296354677716235 6.45312004143711e-05 0.000465145023349866 0.000230369771138446 0.00026196387376554 0.000472397258938278 0.000522157660333076 0.000552128315384644 0.000463000444265755 3.43515635650918e-05 0.000282864761370662 -9.53451838541831e-05 0.000431268853991917 -0.000390647466464731 -0.000211632874548912 -0.00224988119032371
"254" 0.000286065370698746 6.69721404465198e-05 0.000457234407727259 0.000225215458567536 0.000246457543639491 0.000458186188349698 0.000501342659136143 0.000533494787147394 0.00042486149136363 1.44339615499849e-07 0.000258585375937893 -0.000131981151501428 0.000398889207118789 -0.000370347628119289 1.793409411274e-05 -0.00224337534154342
"255" 0.000276768546768193 6.98074018368336e-05 0.000450007752391421 0.000221091552665332 0.000231600792671872 0.00044453403884872 0.000481166807762637 0.000514969833494643 0.000387247304811903 -3.18118972812031e-05 0.000234856585172669 -0.000165399629369106 0.000366668842385699 -0.00034840956859109 0.000240898226231572 -0.00223685278360367
"256" 0.000268468712461028 7.29713329309369e-05 0.000443440335900524 0.000217986740419404 0.000217429401162477 0.000431518801602745 0.000461718186544295 0.000496660031587841 0.000350352237329504 -6.13333033007325e-05 0.000211800163732484 -0.000195466928975461 0.000334773713161946 -0.000324911008169316 0.000455928342401265 -0.00223045507325897
"257" 0.000261156661274246 7.63820534209528e-05 0.000437498837922157 0.000215883418995788 0.000203950709618789 0.000419206369712102 0.000443074714309422 0.000478658464713157 0.00031435443023122 -8.82681920508906e-05 0.000189533521865643 -0.000222085338950465 0.00030335733304222 -0.000299928026601935 0.000661773426603085 -0.00222428802355232
"258" 0.000254813135326566 7.9971599529985e-05 0.000432133599496628 0.000214748160696712 0.000191182156278151 0.000407651743160814 0.000425308626501105 0.000461054403435306 0.000279422851450778 -0.000112477509396186 0.000168164643978121 -0.000245190960779706 0.000272563059284032 -0.000273549284776138 0.000857269511596153 -0.00221841891689627
"259" 0.000249408651253565 8.36555305075258e-05 0.00042728614368161 0.00021453387516036 0.000179120255945781 0.000396901333764988 0.000408477424762042 0.000443927852211234 0.000245718471715082 -0.000133860419631617 0.000147791490679491 -0.000264752434681365 0.000242525792892446 -0.000245869139023553 0.0010413432358108 -0.00221286858210448
"260" 0.000244894312133458 8.73588794130173e-05 0.000422883224185821 0.000215183729368408 0.000167754956197464 0.000386984361638655 0.000392626873287381 0.00042734803173388 0.000213382387532584 -0.000152342163700301 0.000128500152296646 -0.00028076542125016 0.000213367319234171 -0.000216972742856486 0.00121302460965307 -0.00220761814150661
"261" 0.000241219781292362 9.09962551978021e-05 0.000418847010221529 0.000216631646551976 0.0001570797941714 0.000377924341360792 0.000377794038790106 0.000411373114519411 0.000182543891226745 -0.000167868828326963 0.000110377938429707 -0.000293260722782389 0.0001851997804848 -0.000186963839726352 0.00137143310419097 -0.00220260193590412
"262" 0.000238316927259779 9.44918089725567e-05 0.000415082021654329 0.000218801034503579 0.000147070267623857 0.000369730003634753 0.000363998460095201 0.000396057218422151 0.000153318833449396 -0.000180427317133584 9.34873341792995e-05 -0.000302295647815221 0.00015812163298178 -0.00015593344608365 0.00151580841154756 -0.002197730514825
"263" 0.000236114088069049 9.77648228364395e-05 0.000411493262115936 0.000221602846821234 0.000137698060886141 0.000362400287926122 0.000351257753823038 0.000381440123581956 0.000125809949959755 -0.00019001828780126 7.78962111197912e-05 -0.000307959484692142 0.00013222009910401 -0.000123991308995601 0.00164548431087598 -0.00219286907974112
"264" 0.000234522740885862 0.000100739622522237 0.000407968724957041 0.000224943234956262 0.000128935470979456 0.000355919943885446 0.000339568292659146 0.000367550963947141 0.000100100296508551 -0.000196683506143168 6.36488476322671e-05 -0.00031035554021502 0.00010757421243847 -9.1226916244404e-05 0.00175992568443641 -0.00218784951190131
"265" 0.000233453111005691 0.0001033443288521 0.000404404416831173 0.000228723667836378 0.000120744456102636 0.00035026755921839 0.000328922024326988 0.000354410936251073 7.62623643028817e-05 -0.000200480031494055 5.07919435403575e-05 -0.000309625781907094 8.42398821684213e-05 -5.77501557641735e-05 0.00185869394317364 -0.0021824791750133
"266" 0.000232804025139278 0.000105508283200976 0.00040068258381534 0.000232834685099671 0.000113087160616796 0.00034541042587082 0.00031929789141881 0.000342032878851195 5.4353147836343e-05 -0.00020150072035466 3.93556506364612e-05 -0.000305924432877682 6.22749394225809e-05 -2.36562739164729e-05 0.00194147991546169 -0.00217653522564788
"267" 0.000232472848995572 0.000107169869016656 0.000396682715102914 0.00023716793828899 0.000105922144492315 0.00034129996998353 0.00031066711573188 0.000330416940087103 3.44117766271362e-05 -0.000199855842690007 2.93640413738203e-05 -0.000299423193471975 4.17162307328376e-05 1.09529066069608e-05 0.00200809063822185 -0.00216977672258222
"268" 0.000232349105196453 0.000108272160757913 0.00039229521479344 0.000241607539254887 9.92067370637582e-05 0.000337890530071973 0.000302992215428886 0.00031955673432 1.64678145625305e-05 -0.000195684770731256 2.08336901059242e-05 -0.000290320195358801 2.25936060331976e-05 4.59781679088741e-05 0.00205845321202641 -0.00216194347210529
"269" 0.00023232354345621 0.000108764441090251 0.000387401338171716 0.000246038002755719 9.28973274948629e-05 0.000335120169445035 0.000296222726040414 0.000309436152461584 5.33914718005078e-07 -0.000189145576088286 1.37647277680638e-05 -0.000278818873535419 4.9237002153622e-06 8.13250495592111e-05 0.00209261324029543 -0.00215275879417173
"270" 0.000232276825280792 0.0001086024777936 0.000381892807048653 0.000250343682932828 8.69507694679716e-05 0.000332919033165529 0.000290307801148152 0.000300032488937687 -1.33945922961595e-05 -0.000180416074492422 8.15624036966098e-06 -0.000265140844798235 -1.12893143140572e-05 0.000116902862078466 0.00211074265316455 -0.0021419330023444
"271" 0.000232101609590468 0.000107755693801701 0.000375654645742543 0.000254409197508297 8.1327797044674e-05 0.000331214569791149 0.000285182830617869 0.000291315500343335 -2.53252277057284e-05 -0.000169696572733819 3.99810802233414e-06 -0.000249513100530425 -2.604219369799e-05 0.000152620656900631 0.00211312210740004 -0.00212917214666088
"272" 0.00023167860136502 0.000106192603960949 0.000368591417649406 0.000258121563541614 7.59793845453996e-05 0.00032992845337554 0.000280779493218046 0.000283247547788347 -3.52873767317065e-05 -0.000157199941735569 1.27456537125574e-06 -0.000232173156341768 -3.93548113052004e-05 0.000188390864695211 0.00210015631332904 -0.00211418265623307
"273" 0.000230900724214255 0.000103900028816899 0.000360604312250419 0.000261370203681025 7.0871559322678e-05 0.000328976050221812 0.0002770245851765 0.000275783942817828 -4.33142460375437e-05 -0.000143150889332032 -4.34996646710231e-08 -0.000213362415996486 -5.12517561694636e-05 0.000224133199495227 0.0020723520891795 -0.00209667472168176
"274" 0.000229658842044353 0.0001008647110512 0.000351611771008057 0.000264051017126732 6.59612721681578e-05 0.00032827187486132 0.000273844193480948 0.000268872542616794 -4.94555920127424e-05 -0.000127790169590858 9.42269686989853e-09 -0.000193321239569405 -6.1757610660653e-05 0.000259771971184224 0.0020303348456463 -0.00207635076147661
"275" 0.000227848835467999 9.7090435187168e-05 0.000341532572135225 0.00026606002030763 6.1220114846846e-05 0.000327723771381351 0.000271156207412274 0.000262464701344458 -5.3765768511864e-05 -0.00011135994621774 1.39724497554984e-06 -0.000172293173381828 -7.09196469453468e-05 0.000295235897485017 0.00197482597324745 -0.00205293861989929
"276" 0.000225383599836574 9.25864230399394e-05 0.000330311881922886 0.000267311083793299 5.66133021858818e-05 0.000327244643170883 0.000268877058140235 0.000256494482777176 -5.63081702631522e-05 -9.41112248555788e-05 4.07698949751243e-06 -0.00015051737337675 -7.87834934071534e-05 0.000330461180454475 0.00190664291545676 -0.00202617666018695
"277" 0.000222169423947328 8.73675849805006e-05 0.000317891039828089 0.000267712531204458 5.21130701815336e-05 0.000326742555213984 0.000266923803400919 0.000250908395051862 -5.71572069063858e-05 -7.62980712150605e-05 7.99427468347615e-06 -0.000128226980118232 -8.54051036087196e-05 0.000365387281842144 0.00182670120212954 -0.00199581688012868
"278" 0.000218134183182278 8.14673538329749e-05 0.000304231588190259 0.000267193452836774 4.76962873252403e-05 0.000326129033121876 0.000265214540826041 0.000245632055161659 -5.6387560590918e-05 -5.81745600373877e-05 1.31000909078653e-05 -0.000105648359400969 -9.08508094985811e-05 0.000399957632589355 0.00173599060077206 -0.00196163646337304
"279" 0.00021320835474707 7.49127961197919e-05 0.000289310331314579 0.000265683904505749 4.33471331589028e-05 0.000325317655725061 0.000263662625436342 0.000240604364549797 -5.40831866522243e-05 -3.99851193397716e-05 1.93363278849586e-05 -8.29987540940648e-05 -9.51841155412353e-05 0.000434127844007819 0.00163558356466134 -0.00192344127362769
"280" 0.000207330320749746 6.77520802929215e-05 0.000273112306495031 0.000263126385739654 3.90456689629134e-05 0.000324224425264667 0.00026218818773823 0.000235755660756497 -5.03284114993835e-05 -2.19788997466965e-05 2.66370007442792e-05 -6.04819413810371e-05 -9.84821055855404e-05 0.000467857220498119 0.00152662026642663 -0.00188106130054457
"281" 0.000200461500567957 6.003354348494e-05 0.000255643525079193 0.000259477825525519 3.47805164653132e-05 0.000322770312480571 0.000260712375216377 0.000231015094138916 -4.52151849777366e-05 -4.38490373333013e-06 3.49419852184233e-05 -3.82914747520566e-05 -0.000100826382834627 0.000501105616747608 0.00141029651159709 -0.00183436914493965
"282" 0.000192566047762186 5.18134509926835e-05 0.000236922794850759 0.00025470365456627 3.05498682590424e-05 0.000320881391647464 0.000259159189566542 0.000226317491611035 -3.8832488659737e-05 1.25725803862853e-05 4.41832138272752e-05 -1.65999216325123e-05 -0.000102295480510208 0.000533842447811494 0.001287860987907 -0.00178326844719776
"283" 0.00018362828215492 4.31516402300684e-05 0.000216982991350627 0.000248779538048581 2.63525308810333e-05 0.000318488658678171 0.000257456436645469 0.000221591634910492 -3.12747709393548e-05 2.86833832071305e-05 5.42936997494153e-05 4.43348327327713e-06 -0.000102977250431201 0.000566037791994526 0.00116060716064868 -0.00172770583022994
"284" 0.00017363748581399 3.41161416755009e-05 0.000195864258198726 0.000241696271337957 2.21859563405207e-05 0.000315532769058455 0.000255538647362598 0.000216773945996366 -2.26315634421174e-05 4.37556979520526e-05 6.52015160074177e-05 2.46670841315473e-05 -0.000102958567321418 0.000597664371742371 0.00102985612289748 -0.00166766536406287
"285" 0.000162602258687251 2.47780819106943e-05 0.000173634902615577 0.000233454162102505 1.8063013284544e-05 0.000311961071919656 0.000253342717694779 0.000211803918506159 -1.29989992401616e-05 5.76165613804419e-05 7.68399274463468e-05 4.39762830964608e-05 -0.000102332087436309 0.000628693944027726 0.000896952866812038 -0.00160318060662742
"286" 0.000150543253796186 1.52100417585143e-05 0.000150365934222949 0.000224066590475394 1.39983285042582e-05 0.000307730265755878 0.000250818724028589 0.000206615953728245 -2.46770916764857e-06 7.0109673418368e-05 8.91335369827375e-05 6.22593502254286e-05 -0.000101180930683019 0.00065910560178482 0.000763253006744141 -0.00153432663867126
"287" 0.000137492667850032 5.48881758662263e-06 0.000126143738856037 0.000213556143864665 1.00041356996309e-05 0.000302802303771781 0.000247913020495733 0.000201158215194088 8.87158601090325e-06 8.11005963726524e-05 0.000102014655345615 7.94305590066547e-05 -9.96015676477574e-05 0.000688870319338582 0.000630114539208641 -0.00146123026741095
"288" 0.000123492148008904 -4.31007058070772e-06 0.000101070425939208 0.000201961372980295 6.10290699504402e-06 0.000297155829921058 0.000244584981236902 0.000195377474715448 2.09316634564556e-05 9.04791981821015e-05 0.000115410421698766 9.54302707135732e-05 -9.76761455219754e-05 0.000717959200746482 0.000498889906318566 -0.00138406047808003
"289" 0.000108603124007769 -1.4106326046624e-05 7.52524313324516e-05 0.000189328887458207 2.32113902924082e-06 0.000290770475770979 0.000240803655102233 0.000189231063374626 3.36228289664674e-05 9.8154791534846e-05 0.000129251303396658 0.000110207630089556 -9.54948325718008e-05 0.000746344894249076 0.000370919402733685 -0.00130303600711978
"290" 9.28912673650738e-05 -2.38242296926048e-05 4.88100674353862e-05 0.000175714918922922 -1.31433891667724e-06 0.000283642932002405 0.000236544447741192 0.00018267813602443 4.68625755135107e-05 0.000104062702845315 0.00014346415571261 0.000123738556004496 -9.31358409565845e-05 0.000773997404739126 0.000247506572440974 -0.00121842332575126
"291" 7.6431419435403e-05 -3.33894841795414e-05 2.18728757674389e-05 0.000161183396001727 -4.77155095447631e-06 0.000275773861143033 0.000231785662508516 0.000175682513636815 6.05652298835135e-05 0.000108156740216475 0.000157977493235079 0.000136016920514536 -9.06789041756864e-05 0.000800879550505812 0.000129924676737237 -0.00113054457076323
"292" 5.9313093846701e-05 -4.27228784857935e-05 -5.42153331188229e-06 0.000145815145724498 -8.01069764723578e-06 0.000267182306006935 0.000226520291856159 0.000168224518011428 7.46496276333995e-05 0.00011041941602976 0.00017271982088868 0.000147045576734107 -8.82002719960408e-05 0.000826951010262588 1.93903105641547e-05 -0.00103976040260714
"293" 4.16314718408386e-05 -5.17578537639327e-05 -3.29331095015566e-05 0.000129687325661777 -1.10002041906551e-05 0.000257888880994885 0.000220747530669564 0.000160281991126875 8.90383188351309e-05 0.000110852803456393 0.000187621380547648 0.0001568489298968 -8.57670589757807e-05 0.00085216522909713 -8.29376713014741e-05 -0.000946475033270642
"294" 2.34834524599885e-05 -6.04222537898711e-05 -6.05118754798721e-05 0.000112892554953085 -1.36936683111761e-05 0.000247929084694162 0.000214472988779964 0.000151845325196951 0.000103652765462 0.00010947604822939 0.000202610874705895 0.000165465599664251 -8.34395421419725e-05 0.000876472057234094 -0.00017597121255641 -0.000851140966729931
"295" 4.97968544797676e-06 -6.86524779888201e-05 -8.80113311632615e-05 9.55257778732879e-05 -1.60519596900582e-05 0.000237344797483338 0.000207711201045396 0.000142914904722073 0.000118419025871166 0.000106340929709564 0.000217618385509104 0.000172941940183401 -8.12771247842593e-05 0.000899813016235071 -0.000258708395583351 -0.000754245875450545
"296" -1.37728294103195e-05 -7.63904237535936e-05 -0.000115275176593227 7.76878209198877e-05 -1.80333665418294e-05 0.00022618803686867 0.000200484840830714 0.000133492660965623 0.000133261903815377 0.000101506561938304 0.000232572749671838 0.000179338761091955 -7.93308594846037e-05 0.000922126995061983 -0.00033023790932609 -0.000656326175486028
"297" -3.26560431828362e-05 -8.35799190688226e-05 -0.000142154403840319 5.94807017767311e-05 -1.95887129931735e-05 0.000214518029372583 0.000192820064702877 0.000123596531879731 0.000148108906590762 9.50550698925413e-05 0.00024740448410809 0.000184718881453919 -7.76422497488555e-05 0.00094334518045706 -0.000389756954210634 -0.000557936821349929
"298" -5.15558827648097e-05 -9.01663406310123e-05 -0.000168490732286423 4.10165619833407e-05 -2.06711329255565e-05 0.00020240351532613 0.000184756495498075 0.000113249282500795 0.000162893132310573 8.70839972784253e-05 0.000262043945958091 0.000189156632574557 -7.62455294691082e-05 0.000963391826448522 -0.000436569217759295 -0.000459669899140089
"299" -7.03546517870883e-05 -9.61122342989965e-05 -0.000194136710871927 2.23999786433944e-05 -2.12414732494878e-05 0.000189914082177707 0.000176335383581334 0.000102478122468311 0.000177542651203691 7.77020346246784e-05 0.000276421043333556 0.000192728401920859 -7.51727452669895e-05 0.000982189146225655 -0.00047010521095755 -0.000362141018820892
"300" -8.89380533935001e-05 -0.000101373956452554 -0.000218944175614668 3.74198024897523e-06 -2.12510955533546e-05 0.00017713588555378 0.00016760184345731 9.1322713837032e-05 0.000191992494119008 6.70378618282433e-05 0.000290465197780711 0.000195515087313906 -7.44428886644231e-05 0.000999647001381125 -0.000489918231248337 -0.000265982239716368
"301" -0.000107188884436415 -0.00010592184912278 -0.000242772239920523 -1.48485158533642e-05 -2.06536328270694e-05 0.000164149046753825 0.000158613731465582 7.98316232128759e-05 0.000206177346073107 5.52202163363736e-05 0.000304114060269556 0.000197592091324214 -7.40755873895289e-05 0.00101568033739863 -0.000495698638345952 -0.000171840011005704
"302" -0.00012499930959343 -0.000109726700135159 -0.000265481099010951 -3.32634496399028e-05 -1.9411847657115e-05 0.000151044537833546 0.000149425029025664 6.80502685236917e-05 0.000220037431087822 4.23924547403956e-05 0.000317301511340897 0.000199039059702564 -7.40793821145369e-05 0.00103019508069219 -0.000487282983194071 -8.03684199977843e-05
"303" -0.000142260101807987 -0.000112770651050708 -0.000286943613298573 -5.13965296863411e-05 -1.74847620978778e-05 0.000137911897372026 0.000140097830823066 5.60380952687889e-05 0.000233510569500512 2.87047964010795e-05 0.000329959762928355 0.000199927783350633 -7.44505302066697e-05 0.0010430950044991 -0.000464640995381832 7.77854509187664e-06
"304" -0.000158866106903122 -0.000115041194848135 -0.000307036630441475 -6.91474113935884e-05 -1.48351500575229e-05 0.000124847326824118 0.000130695250764525 4.38611873713813e-05 0.000246538387685242 1.43038195796335e-05 0.000342029388169193 0.000200328048088068 -7.51909664018671e-05 0.00105428873929843 -0.000427890143617667 9.19521726818588e-05
"305" -0.000174726334860023 -0.000116526061367886 -0.000325647237410344 -8.64154294973279e-05 -1.14253277358423e-05 0.000111945452942725 0.000121282994211068 3.15845465312453e-05 0.000259071292051279 -6.53923555225004e-07 0.000353453645600721 0.000200296332240813 -7.62910805385808e-05 0.00106367737367441 -0.000377293471020627 0.000171512933754541
"306" -0.000189744315986937 -0.000117230524108406 -0.000342670751059939 -0.000103105283488373 -7.232359655842e-06 9.93016400073086e-05 0.000111926584663815 1.92757353814419e-05 0.000271053742472047 -1.60163574073709e-05 0.000364177216920501 0.000199892173897979 -7.77385302420572e-05 0.00107117726230716 -0.000313241357649701 0.000245850050883714
"307" -0.000203836511712919 -0.00011715335181357 -0.00035801186630152 -0.000119127718943994 -2.22392187367028e-06 8.70098646626719e-05 0.000102695593120545 7.01175523292232e-06 0.000282443103037485 -3.16269888269496e-05 0.000374153694442569 0.000199160593492363 -7.95117244594984e-05 0.00107669833254828 -0.000236265768619679 0.000314381994656703
"308" -0.000216932989091375 -0.000116311277397932 -0.000371592426969611 -0.000134400205105115 3.61925003357928e-06 7.51634335224275e-05 9.36563289358644e-05 -5.13322588493322e-06 0.000293193015633125 -4.73447694774713e-05 0.000383331518667456 0.000198135955974148 -8.15907197048659e-05 0.00108015926676871 -0.000147027207937216 0.000376559479858853
"309" -0.000228961373976775 -0.000114718079247204 -0.000383334902022633 -0.000148844916229662 1.03176787489732e-05 6.38537431491869e-05 8.48749351806992e-05 -1.70822944076361e-05 0.000303267330543899 -6.30217451320928e-05 0.000391677596135603 0.000196847612140935 -8.39465921777126e-05 0.00108149806774052 -4.63035933532548e-05 0.000431888612498429
"310" -0.000239864745939959 -0.000112393873067131 -0.000393182798047731 -0.000162389546513172 1.7878719196526e-05 5.31656162892901e-05 7.64142263998675e-05 -2.87609356367661e-05 0.000312636410625941 -7.85252526233717e-05 0.000399155731911477 0.00019531156099857 -8.65581149976156e-05 0.00108065272525827 6.50192244726319e-05 0.000479918768428198
"311" -0.000249591723187309 -0.00010937009560313 -0.000401088355644573 -0.000174971210256818 2.63110807788411e-05 4.31829979227495e-05 6.83354580221447e-05 -4.00932608591751e-05 0.000321269657158433 -9.37248653421117e-05 0.000405736894496074 0.000193530841213656 -8.93918587489242e-05 0.00107757815493109 0.000185953052884033 0.000520267572681583
"312" -0.000258106156333904 -0.000105676850978011 -0.000407018268202638 -0.000186534868825417 3.56179105466302e-05 3.3980568023726e-05 6.06976917387845e-05 -5.10046618155646e-05 0.000329144326897899 -0.000108503990521704 0.000411405396621559 0.000191503355968575 -9.24160166022334e-05 0.00107224902587138 0.000315428784608957 0.000552619765514778
"313" -0.000265374336299651 -0.000101349492443583 -0.000410949246598758 -0.000197029837629816 4.57894767389589e-05 2.56330973728643e-05 5.35541452256865e-05 -6.14251843464849e-05 0.000336247174549328 -0.000122756893689214 0.000416144247113567 0.000189210519631046 -9.55981383749475e-05 0.00106465562856085 0.000452305586660374 0.000576738400318933
"314" -0.000271377841687849 -9.64306285543988e-05 -0.000412866992402364 -0.000206414248405333 5.68177413198869e-05 1.82009632956143e-05 4.69514384714014e-05 -7.1290036420178e-05 0.000342568527922771 -0.000136379843677683 0.000419953342283497 0.00018662981856144 -9.89100028731786e-05 0.00105480687508422 0.000595380892125413 0.000592467607695965
"315" -0.0002761040719119 -9.0963113829765e-05 -0.000412782235335859 -0.000214655970592905 6.86882966088324e-05 1.17464335374794e-05 4.09373870458798e-05 -8.05304509097805e-05 0.000348103726414387 -0.00014929224979847 0.000422832307675358 0.000183724980186585 -0.000102313476662156 0.00104273880707771 0.000743410495243012 0.000599747238205241
"316" -0.000279556458060843 -8.49947284981117e-05 -0.000410702997030375 -0.000221729249381166 8.137679011711e-05 6.31642456959688e-06 3.55493702697079e-05 -8.9089902741048e-05 0.000352853932479233 -0.000161415301636979 0.000424790170221545 0.000180453308604376 -0.000105779620523455 0.00102850625238916 0.000895119786017228 0.000598606554170648
"317" -0.000281736687945606 -7.85771186646437e-05 -0.000406659073855331 -0.000227617703481479 9.48553585082656e-05 1.9531375458554e-06 3.08170884386132e-05 -9.69181656834532e-05 0.000356830300170407 -0.000172696865651707 0.000425843331181653 0.000176763821999199 -0.000109277286666674 0.00101219106414367 0.00104922141570461 0.000589172778736534
"318" -0.000282669107444873 -7.17606541168375e-05 -0.00040069490479334 -0.000232309536522274 0.000109092646618343 -1.31090002935718e-06 2.67683254977919e-05 -0.000103963314134597 0.000360044695800028 -0.000183082298621646 0.000426017567888343 0.000172595506533912 -0.000112776983980989 0.000993897656013279 0.00120441685500995 0.000571663698441443
"319" -0.000282380373803845 -6.45994672688859e-05 -0.00039285575787292 -0.00023580342521865 0.000124047233958217 -3.44994203347727e-06 2.34225600612217e-05 -0.000110186374953948 0.000362519010588772 -0.000192536536850194 0.000425347958787241 0.000167886580944066 -0.000116252472082769 0.000973755298885093 0.00135942267269691 0.000546405453850889
"320" -0.000280908464538419 -5.7147933805049e-05 -0.000383208773288091 -0.000238109561220062 0.000139675278209009 -4.45062021321872e-06 2.07903685614436e-05 -0.000115552642686528 0.00036427540085213 -0.000201040031803766 0.000423860620742794 0.00016257068209156 -0.000119673695516135 0.000951925405106824 0.00151297584130429 0.000513816171677315
"321" -0.000278296237525266 -4.94659763053547e-05 -0.000371824825694702 -0.000239238409173673 0.00015592877813659 -4.30417449830926e-06 1.88743925540316e-05 -0.000120035964607054 0.000365348144326338 -0.000208582075681221 0.000421609392175269 0.000156570953487477 -0.000123022563351552 0.000928587226351454 0.0016638481533065 0.000474400597900906
"322" -0.00027460070589351 -4.16063783075635e-05 -0.000358792110584512 -0.000239213308260768 0.00017275101444222 -3.01908455016881e-06 1.7677099046084e-05 -0.000123616824373825 0.000365767701148356 -0.000215160855654733 0.000418640628292409 0.000149816886184644 -0.00012627616010021 0.000903942783317037 0.00181084955795025 0.000428751738551614
"323" -0.000269884620390357 -3.36232871030881e-05 -0.00034419890833236 -0.000238060588734883 0.000190083625283441 -6.0350145470964e-07 1.71857236035199e-05 -0.000126278960901668 0.000365574209005927 -0.000220795655580604 0.000415001496316704 0.000142237823310941 -0.000129414338011999 0.000878226622565566 0.00195284804714981 0.00037754565913918
"324" -0.000264214518225209 -2.55781072092788e-05 -0.000328154819931963 -0.000235821037068523 0.000207864264891428 2.91572971826833e-06 1.73835344426244e-05 -0.000128023731038204 0.000364806310362622 -0.000225503491576466 0.000410752942510323 0.000133758070761615 -0.000132426157904897 0.000851680233100614 0.00208876650594223 0.000321520553914371
"325" -0.000257668924877658 -1.75223843328423e-05 -0.000310769301898288 -0.000232535425793647 0.00022602465756733 7.50747090977001e-06 1.82475922454451e-05 -0.000128848279366894 0.000363509594521101 -0.000229325414617842 0.000405946891130905 0.000124316234862151 -0.000135298336454814 0.000824568612298508 0.00221759717927405 0.000261487333600974
"326" -0.000250330706879583 -9.50682869285974e-06 -0.000292162939025681 -0.000228252313042793 0.000244496247817772 1.31309591527683e-05 1.9743815525159e-05 -0.000128768606193531 0.000361728733333662 -0.000232296816222648 0.000400646195260168 0.000113843643135294 -0.000138021023972007 0.000797170434286816 0.0023384009864281 0.000198291514122148
"327" -0.000242288413298972 -1.58524434638188e-06 -0.000272463433827503 -0.000223030330803382 0.000263200879636591 1.97343747387626e-05 2.18356083329366e-05 -0.000127803065311201 0.000359507280695554 -0.000234475806403634 0.000394907560958804 0.000102288868364246 -0.000140589814724436 0.00076977344652851 0.00245032540332356 0.000132831277271538
"328" -0.000233636410776683 6.19653268341189e-06 -0.000251800220953207 -0.000216930176268314 0.00028206616435433 2.72581064521192e-05 2.44822098798986e-05 -0.000125974641127095 0.000356892137884672 -0.000235922166389968 0.000388792742446368 8.96027470399182e-05 -0.00014300384273876 0.000742672204062462 0.00255259586437199 6.60186505291345e-05
"329" -0.000224470371068146 1.37888404526428e-05 -0.00023031820701672 -0.000210019681573457 0.000301011689314705 3.56334577892329e-05 2.76276608273301e-05 -0.000123322789547896 0.000353925635039586 -0.000236698068479659 0.000382355244203501 7.57470055098156e-05 -0.000145259343132295 0.000716167401713956 0.00264452368854987 -1.21862326564828e-06
"330" -0.000214893320423427 2.11504501550959e-05 -0.000208155590605503 -0.000202370229341158 0.000319952904245905 4.47880557730693e-05 3.12197866564384e-05 -0.000119885084924843 0.000350652547427695 -0.000236878247629414 0.000375647978754748 6.06994549748251e-05 -0.000147365356917626 0.000690549379074475 0.00272551419753423 -6.79591628620827e-05
"331" -0.000205010915133645 2.82390861723429e-05 -0.000185458941762802 -0.000194062737046699 0.000338810011090168 5.46346831925426e-05 3.51948890793815e-05 -0.000115713264677739 0.000347111895625007 -0.000236537696569683 0.000368727196709514 4.44460766337112e-05 -0.000149329766408717 0.000666110175140085 0.00279506298523037 -0.000133294197248019
"332" -0.000194924542943146 3.50207024721953e-05 -0.000162380542547641 -0.000185175653121417 0.000357502078458722 6.50855361814523e-05 3.94866535837971e-05 -0.00011086080986489 0.000343342377514363 -0.000235754409017571 0.000361637721858769 2.69870225880577e-05 -0.000151159484601967 0.000643130856399761 0.0028527618222775 -0.00019633245356409
"333" -0.000184744457969558 4.14588447100606e-05 -0.00013907156499177 -0.000175795766342515 0.000375935795089342 7.60402092867232e-05 4.40244620817908e-05 -0.000105391085996647 0.000339376174974601 -0.000234612095029623 0.000354417210985229 8.34121850025704e-06 -0.000152870599371986 0.000621874954807761 0.0028982946558841 -0.000256229548965669
"334" -0.00017457840596902 4.7522913414442e-05 -0.000115678327081192 -0.000166010410386561 0.000394027600201337 8.74013136741486e-05 4.87323666061702e-05 -9.93695303868663e-05 0.000335241417409751 -0.000233196034189841 0.000347102461477579 -1.1459753167981e-05 -0.000154482806851595 0.000602588454157371 0.00293144267616688 -0.000312181220673558
"335" -0.000164532315806234 5.31876637709197e-05 -9.23561121173417e-05 -0.000155913727636988 0.000411698608142735 9.90570880134278e-05 5.35365845327769e-05 -9.28701427203354e-05 0.00033096293751434 -0.000231589305150598 0.000339722653629494 -3.23655148661308e-05 -0.000156011449120471 0.000585498669436743 0.00295207942728909 -0.000363438701029995
"336" -0.000154709890108979 5.84257095442664e-05 -6.92533535088476e-05 -0.000145596198525784 0.000428854826761517 0.000110900484306825 5.83525796611347e-05 -8.59736268585995e-05 0.000326559711608375 -0.000229871751054243 0.00033230418127948 -5.43110532391715e-05 -0.000157482308338466 0.000570800197434187 0.00296016201256282 -0.000409320167928112
"337" -0.000145214966033406 6.32209932763049e-05 -4.65164324538703e-05 -0.00013515367665372 0.000445419128658195 0.000122813333898442 6.31003620811445e-05 -7.87610200116946e-05 0.000322041473019746 -0.000228129149608075 0.000324855395286061 -7.7213624581171e-05 -0.000158919423737644 0.000558670013499048 0.00295574948668358 -0.000449209916091619
"338" -0.000136150733873072 6.75513214848297e-05 -2.42900602361113e-05 -0.000124682209877301 0.000461304386616356 0.000134679519758462 6.76963454829087e-05 -7.13188792043812e-05 0.000317419280800941 -0.00022643678603808 0.000317392071654922 -0.000100975661542121 -0.000160351217450954 0.000549245116328525 0.00293898262716647 -0.000482568472835398
"339" -0.000127610481387399 7.14051384353794e-05 -2.70915952672649e-06 -0.000114277874889973 0.000476424261004294 0.000146382243935012 7.20586042803049e-05 -6.37392128788748e-05 0.00031268703605888 -0.000224875869044327 0.000309906609455311 -0.000125477460338148 -0.00016180629172729 0.000542638571476445 0.00291008821969373 -0.000508928145638859
"340" -0.000119685995354016 7.47697731813255e-05 1.80876489103867e-05 -0.000104033373206588 0.000490708915784475 0.000157802134115799 7.6099497200844e-05 -5.61131757385648e-05 0.000307844187927375 -0.000223511643877907 0.000302398768942774 -0.000150595315207848 -0.000163316478512458 0.000538920486245314 0.00286937151953211 -0.00052790541538886
"341" -0.000112463806902199 7.76378817190734e-05 3.79771552046645e-05 -9.40441900012926e-05 0.00050407160214343 0.00016882079066856 7.97403978005556e-05 -4.85329898917575e-05 0.000302873845193736 -0.000222411481394974 0.000294851400710545 -0.000176185740241169 -0.000164917498414934 0.000538131862531676 0.00281721629480604 -0.000539191786109371
"342" -0.000106025029480975 8.00004376223236e-05 5.68355606797256e-05 -8.44017517620242e-05 0.000516441356005685 0.000179321974121065 8.29014975602439e-05 -4.10986651938474e-05 0.0002977604904001 -0.000221639510279235 0.000287249696457889 -0.000202093955347027 -0.000166644663936103 0.000540269388097678 0.0027540772959795 -0.00054256653516608
"343" -0.000100439369160085 8.18551558647028e-05 7.45555655935483e-05 -7.51955727390633e-05 0.000527745573703078 0.000189192891922977 8.5502113539207e-05 -3.39029267770449e-05 0.000292478194001778 -0.000221245809710916 0.000279558864896988 -0.000228159558823574 -0.000168530363959958 0.000545298225710977 0.00268047835232129 -0.000537877786752322
"344" -9.57743106011848e-05 8.31961078751314e-05 9.10319249476263e-05 -6.65141785287603e-05 0.000537919653534434 0.000198322386157866 8.74667575627948e-05 -2.70443677728875e-05 0.000286998302721921 -0.000221278535269306 0.00027175368651516 -0.000254213866275301 -0.000170611529573174 0.000553141076715922 0.00259701191176022 -0.000525057467202587
"345" -9.2089936631982e-05 8.40260658196179e-05 0.000106168403947402 -5.843703560419e-05 0.000546893595144733 0.000206604337569748 8.87281831915944e-05 -2.06159786387841e-05 0.000281285590757622 -0.00022178312548318 0.000263793770371527 -0.000280081249223135 -0.000172928004349587 0.00056368848568117 0.00250431470491974 -0.000504113889454032
"346" -8.94325789866377e-05 8.43419278365765e-05 0.000119886667153322 -5.10398176733494e-05 0.000554609982153133 0.000213940690403502 8.92181619953334e-05 -1.47093177802164e-05 0.000275300499391806 -0.000222785511066931 0.000255637296365153 -0.000305589086731284 -0.000175513972767649 0.000576793288923686 0.00240308862792317 -0.00047511985458217
