"V1" "V2" "V4" "V5" "V7" "V8" "V10" "V11" "V13" "V14" "V15" "V17" "V18" "V20" "V21" "V23"
"1" 0.000339310284765553 0.000170081041656818 0.00035378027089294 -2.16113702627168e-05 0.000647977947777882 1.12498073936764e-05 8.62161944242372e-05 -5.88649567301945e-05 0.000468512777314123 0.000435867339824781 0.000378266351151436 0.000163645093217277 0.000350032894751521 0.000263706634274133 0.000413417613526925 0.000228149594399415
"2" 0.000334287847352332 0.000176757487163088 0.000342415158956335 -2.08900650059978e-05 0.000636829386408958 1.29400941482499e-05 7.99226898473802e-05 -6.6238263162222e-05 0.000463758199920647 0.000442705515482866 0.000374974128149179 0.000170988045847949 0.000350159509134577 0.000257108004201797 0.000411494510237194 0.000225973303172507
"3" 0.000328402467687615 0.000183586622222501 0.00033082660625738 -2.08472841863378e-05 0.000625295807745503 1.35623056579569e-05 7.34816985819809e-05 -7.48674165301869e-05 0.000459049339728809 0.00044896111035016 0.000371616966386509 0.000177608085197202 0.000349965930940736 0.000250114589876543 0.000409406789237923 0.000223660935478063
"4" 0.000321738558184658 0.000190496144647621 0.000319125954239528 -2.14902947066401e-05 0.000613472299691807 1.30739927849096e-05 6.69101473813381e-05 -8.47946421547323e-05 0.000454479378026742 0.000454652516409975 0.000368245704903767 0.000183451926133148 0.000349421773913044 0.000242810338469751 0.000407187253816012 0.000221215903303954
"5" 0.000314360570592612 0.00019742804987074 0.000307407109309063 -2.28328851408912e-05 0.000601471694804347 1.14525937420148e-05 6.02441979346715e-05 -9.60165807495399e-05 0.000450142301507681 0.000459789770356295 0.000364903671109667 0.000188476156908368 0.000348500690929916 0.000235289546009835 0.000404867663915682 0.000218639561195279
"6" 0.000306359963051714 0.00020431143212264 0.000295770456648414 -2.48692395294737e-05 0.000589391862089537 8.68958816290262e-06 5.35091165678411e-05 -0.000108538111908128 0.000446110656387085 0.000464394357580272 0.000361638672628937 0.000192641626326096 0.000347177968490546 0.000227640073870886 0.00040248375847452 0.000215937563243667
"7" 0.000297823286951707 0.000211069339290588 0.000284305383508381 -2.76031374492224e-05 0.000577329324610127 4.77724774721358e-06 4.67259657245143e-05 -0.000122348563775185 0.000442472753990335 0.00046849280131556 0.000358493563359902 0.000195917560344717 0.000345429286104046 0.000219952000815716 0.000400063771119285 0.000213115309670456
"8" 0.000288826825529726 0.000217635926620416 0.000273099735553419 -3.10164108312454e-05 0.000565372389215307 -2.70893741690395e-07 3.99273827117307e-05 -0.000137408894246398 0.000439285474654108 0.000472107768006087 0.000355496707130376 0.000198287426677598 0.000343239386934695 0.000212312065451835 0.000397633488824985 0.000210173835741227
"9" 0.000279464063092353 0.000223937991532078 0.000262222584439551 -3.50997457845511e-05 0.000553614280560848 -6.4316842491262e-06 3.31416833157722e-05 -0.000153682814529445 0.000436615428591172 0.000475274023048 0.000352686922368605 0.000199746313631172 0.000340592918852828 0.000204811521178658 0.000395218504798715 0.000207123526069033
"10" 0.00026981812341445 0.000229896205206295 0.000251744301210834 -3.98348020321023e-05 0.000542126034468544 -1.36776975225361e-05 2.63852096790193e-05 -0.000171123248642448 0.000434513549661911 0.000478016570267456 0.000350089891088286 0.000200281074800728 0.000337476132653809 0.000197518834513256 0.000392836476884561 0.000203971091300985
"11" 0.000259983338394819 0.000235438287082238 0.000241732634792643 -4.5191192157593e-05 0.000530990372882642 -2.19588751637135e-05 1.96929409982906e-05 -0.0001896553861441 0.000433025696017628 0.000480381694484804 0.00034773740383091 0.000199914848983277 0.000333885813317709 0.000190527507066743 0.000390511681380758 0.000200724856792984
"12" 0.000250044180203115 0.000240493458954043 0.000232234471479215 -5.11374365909647e-05 0.00052027163091391 -3.12231277875758e-05 1.30850313645556e-05 -0.000209202695720195 0.00043218164515929 0.000482399080223865 0.000345645303664424 0.000198666741113725 0.000329822368728145 0.000183906774515763 0.000388258508451821 0.000197399477374281
"13" 0.000240081662547649 0.000244993958880857 0.000223301978073524 -5.76351994717684e-05 0.000510034463770948 -4.14010567407158e-05 6.58272552700411e-06 -0.000229680119434534 0.000432013348174471 0.000484117235676412 0.000343833826397505 0.000196566452305354 0.000325286540648179 0.000177732276100733 0.000386092948337499 0.000194007054232802
"14" 0.000230178137507095 0.000248872798400904 0.000214967485627464 -6.46471078333117e-05 0.000500322763289482 -5.24250988379177e-05 2.04974662236332e-07 -0.000250994351076982 0.000432527194580522 0.000485564131176627 0.000342311249800626 0.000193648377949025 0.000320280241241525 0.000172055477371326 0.000384018556339898 0.0001905605749182
"15" 0.000220417469354938 0.00025206617531856 0.000207266384962676 -7.21284905981285e-05 0.000491190189533962 -6.42033423443473e-05 -6.02642099142275e-06 -0.000273024957663113 0.00043373777711522 0.00048679261480136 0.000341091327047432 0.00018997073494686 0.000314824480761243 0.000166940403728299 0.000382047446282739 0.00018707459208909
"16" 0.000210869742427786 0.000254524339566153 0.0002002183995082 -8.00236481449394e-05 0.000482670483798584 -7.66515442533011e-05 -1.20913994261389e-05 -0.000295667888389642 0.0004356341193373 0.000487839254707933 0.00034017100063969 0.000185583822793264 0.000308928361860078 0.000162440413746306 0.000380182884717702 0.000183569024985331
"17" 0.000201617205571294 0.000256186835053002 0.000193843571811829 -8.82825396366242e-05 0.000474802843926646 -8.96636744568661e-05 -1.79756676353427e-05 -0.000318799537330568 0.000438212702166549 0.000488752817019721 0.00033955750439631 0.000180561833459647 0.000302615732494261 0.000158600097229426 0.000378434080473027 0.000180064094497944
"18" 0.000192715439072929 0.000257016095712271 0.000188150759808097 -9.68502751575331e-05 0.000467601939370548 -0.000103142444806222 -2.36667720671905e-05 -0.000342288417763488 0.000441440125268064 0.000489571647395294 0.000339239491680621 0.000174973006715408 0.000295905873992592 0.000155449367847385 0.000376790758794074 0.000176575128959
"19" 0.00018423866163193 0.000256973740680579 0.000183139033265705 -0.000105664288781679 0.00046109213496375 -0.000116968010313465 -2.91481372452903e-05 -0.000366003828866898 0.000445297219087721 0.000490342481826856 0.000339212953746557 0.000168904480732091 0.00028883152700091 0.000153024030557416 0.000375257855130644 0.000173126966318528
"20" 0.000176240010125524 0.000256024840343786 0.000178816163936292 -0.000114660908833715 0.000455278037533111 -0.000131035590830203 -3.44163920136853e-05 -0.000389817370741988 0.000449737121651476 0.000491100588097634 0.000339462242972851 0.000162435898026718 0.000281418988606497 0.000151346271455236 0.000373825867481407 0.000169741114754595
"21" 0.000168774376608081 0.000254153512664833 0.000175167288788075 -0.000123785257996919 0.000450164929424992 -0.000145224979884648 -3.94552168877028e-05 -0.000413582442114164 0.000454716142462364 0.000491890996028715 0.000339972476998276 0.000155662185363663 0.000273704987134284 0.000150426078951375 0.000372489805913162 0.000166437969602524
"22" 0.000161886314450896 0.000251340127875297 0.000172182765202847 -0.000132967169242111 0.000445746300054961 -0.000159421634498055 -4.42655728455354e-05 -0.000437171191721511 0.000460180558546985 0.000492746354876906 0.000340721766658675 0.000148679548139095 0.000265724203647309 0.000150271908142904 0.000371242207096601 0.000163243605563257
"23" 0.000155626245707332 0.000247586345993821 0.000169852419590311 -0.000142143732826712 0.000442018932146706 -0.000173500497179581 -4.88352360296755e-05 -0.000460432555227471 0.000466071171212922 0.000493705895759602 0.000341688462927135 0.000141590183139585 0.000257520599730645 0.000150879871045307 0.000370069540489195 0.000160181253175009
"24" 0.000150020062258909 0.000242886537728416 0.000168146704178096 -0.000151259120142143 0.000438961087092773 -0.000187348991411997 -5.31679599049171e-05 -0.000483246123067472 0.000472323631961319 0.000494800754971608 0.000342847693625481 0.000134489259784789 0.00024912838396277 0.000152242981237231 0.00036896189764762 0.000157272483986476
"25" 0.000145104899111032 0.000237260169740056 0.000167058175666646 -0.000160239678043877 0.000436551113136478 -0.00020085346584039 -5.72629578552988e-05 -0.000505475123763423 0.000478855439062985 0.000496058855207806 0.000344165990077164 0.000127478935292974 0.000240593877307626 0.000154336336081365 0.000367900523422185 0.000154540885087916
"26" 0.000140897453305026 0.000230720475712665 0.00016655102857549 -0.000169033088847786 0.000434768867464753 -0.000213898559094326 -6.11174831141222e-05 -0.000526992463738604 0.000485603931573508 0.000497509110876288 0.000345614344573803 0.000120662258903346 0.000231955898366726 0.000157141164978046 0.000366877557875691 0.000152008714922425
"27" 0.00013741932123189 0.000223298335008453 0.000166606141309948 -0.000177575825223879 0.000433576593381783 -0.000226380008029821 -6.47427697058292e-05 -0.000547678282992704 0.000492482305600027 0.000499166324553307 0.000347157062963277 0.000114137089147808 0.000223257176715926 0.000160622136708707 0.000365871426038013 0.000149693795800161
"28" 0.000134680749477906 0.000215024682431181 0.000167189836278371 -0.000185819327729711 0.000432937767011165 -0.000238194730032202 -6.813693534072e-05 -0.000567420674686124 0.000499412858906994 0.000501058653905585 0.000348762780353599 0.00010800101069589 0.000214547657437948 0.000164741650373355 0.000364869393246494 0.000147620081831836
"29" 0.000132685941953638 0.000205952750571988 0.000168279744159995 -0.00019370148235326 0.000432817958369899 -0.000249247302668635 -7.1307145938188e-05 -0.000586107171209624 0.000506304854743973 0.000503187393480601 0.000350389214533202 0.000102347084318647 0.000205862814419477 0.000169447852733289 0.000363849128952057 0.00014580306458996
"30" 0.000131437788305217 0.000196125308957992 0.000169841291383783 -0.000201184044627598 0.000433169804757768 -0.000259447932507602 -7.42655658304078e-05 -0.00060364425006612 0.000513084079093477 0.000505570795103656 0.000352005851844016 9.72631228919006e-05 0.000197250353995245 0.000174699670406989 0.000362801155902354 0.00014426238912811
"31" 0.00013091767324895 0.000185601788420936 0.00017185510394251 -0.000208214145594804 0.000433948954279876 -0.000268714881248279 -7.70161074910568e-05 -0.000619939233794073 0.00051965442549521 0.000508209864351619 0.000353563382868431 9.2836307497711e-05 0.000188743088508522 0.000180429529690702 0.000361695958114772 0.000143006221381404
"32" 0.000131116675867574 0.000174437368826806 0.000174278702126568 -0.000214761872312821 0.000435099768408044 -0.000276988864469446 -7.95801646346265e-05 -0.000634931165868679 0.000525940269778587 0.000511098610071492 0.000355030595380559 8.91344777641424e-05 0.000180379600277021 0.000186579497602822 0.000360523221779886 0.000142046858586561
"33" 0.000132025723858875 0.000162703308156079 0.000177091935334692 -0.000220787960700907 0.000436579948362478 -0.000284193608661402 -8.19606082282574e-05 -0.000648535615229068 0.000531860447864046 0.000514242018374052 0.000356368584409639 8.62351077798886e-05 0.000172202298244661 0.000193083689073972 0.000359265772205639 0.000141397801984983
"34" 0.000133605259643461 0.000150466924023835 0.000180261111772203 -0.000226262063891518 0.000438325413233459 -0.00029028887048063 -8.41799599251702e-05 -0.000660708442442457 0.000537328189344411 0.000517621365068915 0.000357532346431305 8.41912162681281e-05 0.000164235770186191 0.000199868061716794 0.000357898314559283 0.00014105954776083
"35" 0.000135831302714075 0.000137800997152075 0.000183761710565133 -0.000231165017679161 0.000440287817848164 -0.000295228149744861 -8.62471057504692e-05 -0.000671408229621121 0.000542274614718531 0.000521223315756519 0.000358489510966405 8.30575144638116e-05 0.00015651420980701 0.000206862180149885 0.000356411294082252 0.00014103518573738
"36" 0.000138668304540286 0.000124780181346711 0.000187562458091737 -0.000235478453002681 0.000442403659743626 -0.000298989343743642 -8.81813892500721e-05 -0.000680608418362269 0.000546628694270247 0.000525030775675996 0.000359203375722862 8.28764036009343e-05 0.00014906195977919 0.000213991956629482 0.000354785630516004 0.000141326981783893
"37" 0.000142078856593252 0.000111474966674644 0.000191637294663145 -0.000239187106491965 0.000444615628052048 -0.000301552935294621 -9.00029894935112e-05 -0.000688295564476347 0.00055031501784389 0.000529015209391745 0.000359634580145366 8.36750182480675e-05 0.000141902878859373 0.000221173113199323 0.000352999804699245 0.00014192469424029
"38" 0.000146013923546673 9.79710280713049e-05 0.00019595738186583 -0.000242287843370444 0.000446873128058816 -0.000302904272587811 -9.17188376947286e-05 -0.000694456576268495 0.000553284128147541 0.000533153893303651 0.000359752396292209 8.5481422053022e-05 0.000135058457373851 0.000228332977002672 0.000351046141043107 0.000142824239614812
"39" 0.000150431744750814 8.43328272751154e-05 0.000200499375715196 -0.000244782857165356 0.000449113085544648 -0.000303054285461285 -9.33553666705055e-05 -0.00069911375620421 0.000555477855980572 0.000537409763463398 0.000359530006119497 8.83046301068887e-05 0.000128542256490601 0.000235397280225389 0.000348907962514543 0.00014401524359968
"40" 0.000155276552894048 7.06352844622874e-05 0.000205235617479684 -0.000246675211782742 0.000451273577470662 -0.000302022488332164 -9.49287627772078e-05 -0.000702291319377705 0.000556845715640791 0.000541748658576693 0.000358932208376624 9.21411189706743e-05 0.000122362104706825 0.000242279265721264 0.000346571433926244 0.000145480901994618
"41" 0.000160491580628751 5.69582142021743e-05 0.00021014207920511 -0.000247976996456408 0.000453297224917095 -0.000299831506173285 -9.64553027587203e-05 -0.000704014581183182 0.000557343169843193 0.000546127053080871 0.000357930579393369 9.69816028836161e-05 0.000116531853198479 0.00024890687710471 0.000344021910752522 0.000147202489882402
"42" 0.000166029941950432 4.3364004529505e-05 0.000215192942578252 -0.000248699588192842 0.000455134373585725 -0.000296519161123559 -9.79517117271992e-05 -0.000704344759213379 0.000556942556268934 0.000550509463746215 0.00035650950279044 0.000102805335120527 0.000111051992160015 0.000255208243710113 0.000341253278574877 0.000149160462722029
"43" 0.000171821758631174 2.99084084242531e-05 0.000220360784304261 -0.000248871771017077 0.000456722888331346 -0.000292134897941632 -9.94391104210641e-05 -0.000703338870563711 0.000555615489651029 0.000554845091299093 0.000354640818658091 0.000109577916295253 0.000105922770431496 0.000261104233868827 0.000338251323581405 0.000151326805075674
"44" 0.00017781168593651 1.66624905385267e-05 0.000225620608784174 -0.000248520966173625 0.000458010711059738 -0.000286735826697404 -0.000100934389271753 -0.000701066992105551 0.000553340971787298 0.000559085944436541 0.000352312817792806 0.000117259169403169 0.000101141803882434 0.000266529753682746 0.000335010824104517 0.000153674787234881
"45" 0.000183934762658591 3.67094941633648e-06 0.000230944665843781 -0.000247673315606442 0.000458936757484652 -0.000280396552957491 -0.000102450505972697 -0.000697614503401393 0.000550107707420888 0.000563184906398461 0.000349504785032444 0.000125793860885447 9.66978571254463e-05 0.000271415655657689 0.000331520568560184 0.000156172748542964
"46" 0.000190132237014806 -9.01011960208006e-06 0.000236309274253414 -0.000246366319361718 0.000459465475147836 -0.000273178973688464 -0.000104003205603806 -0.000693068106822216 0.000545913721627785 0.000567092118450054 0.000346212930643031 0.000135124344859704 9.25855545468425e-05 0.00027571070484397 0.000327779367619212 0.00015878815808231
"47" 0.000196336599215963 -2.1336695621282e-05 0.000241692517108841 -0.000244634924672453 0.000459541257072612 -0.000265173737269868 -0.000105608080621265 -0.0006875289128921 0.000540754848856707 0.000570750420413071 0.000342421105817584 0.000145175531785606 8.87861331342748e-05 0.00027934429254016 0.000323777349743454 0.000161485161039877
"48" 0.000202489479995006 -3.32758959433451e-05 0.00024706006825613 -0.000242526860502208 0.000459114984455597 -0.000256472988767504 -0.000107277460280871 -0.000681106864370273 0.000534648941221703 0.000574114166443528 0.00033813298254489 0.000155868894721738 8.52866114646597e-05 0.000282268644447456 0.000319512064331819 0.000164222406030118
"49" 0.000208525356741996 -4.47937258116982e-05 0.000252387048270415 -0.000240084832206335 0.000458149169951726 -0.000247166435570629 -0.000109019031949344 -0.000673913366357109 0.000527611336151225 0.000577126878291001 0.000333346881501888 0.000167124135525743 8.20710038344968e-05 0.000284441153435044 0.000314989512440915 0.000166967327609215
"50" 0.000214389904913148 -5.58722215333238e-05 0.000257643341526451 -0.000237356161636509 0.000456599267169369 -0.000237360723739838 -0.000110844716248717 -0.000666067357582393 0.000519663215757494 0.000579742372069553 0.000328063088006488 0.000178844428367485 7.91157226776562e-05 0.000285818333323103 0.000310198708977145 0.000169671614442763
"51" 0.000220016980734151 -6.64860851861477e-05 0.000262799973841567 -0.000234394886746332 0.000454432318479495 -0.000227154574514392 -0.000112765660389457 -0.000657691679919905 0.000510837201376064 0.000581903323293844 0.000322289313369653 0.000190935418823211 7.64004847102352e-05 0.000286363431969391 0.000305147291478057 0.00017229618475206
"52" 0.000225354489017274 -7.66181317498371e-05 0.000267831486270112 -0.000231241912500612 0.000451618570584795 -0.000216658909246557 -0.000114777964332851 -0.000648908594599356 0.000501166684252865 0.00058356813394241 0.000316034976984761 0.000203290474538133 7.39014895557232e-05 0.000286046391131799 0.000299837147368505 0.000174802633595086
"53" 0.000230344823285675 -8.6278108062906e-05 0.000272700243453108 -0.000227954823724282 0.000448119591891771 -0.000205986690195914 -0.000116897341451015 -0.000639856468998927 0.000490689963246948 0.00058468104842466 0.000309309380736301 0.000215805122179723 7.1592477108124e-05 0.000284849099215056 0.000294268165546431 0.000177141001920763
"54" 0.000234938777603671 -9.54511790494637e-05 0.000277381276106574 -0.000224585523325788 0.00044391877699081 -0.000195242118538716 -0.000119117626144643 -0.000630649086876266 0.000479457495390281 0.000585208815662771 0.000302134711406804 0.000228376946236334 6.94539327808741e-05 0.000282748653050085 0.000288448061030172 0.000179274600271793
"55" 0.00023909365617005 -0.00010414905298244 0.000281839791994777 -0.000221180659482517 0.000438988332776513 -0.000184538584789412 -0.000121441630154809 -0.000621421763508433 0.000467511059671108 0.000585103826375973 0.000294526131603345 0.000240894152405845 6.74575073588106e-05 0.000279736499841896 0.000282384770365885 0.000181159583195104
"56" 0.000242752946536249 -0.000112385048587326 0.000286041922226301 -0.000217800014185743 0.000433307226033318 -0.00017398674774947 -0.000123867346073865 -0.000612298414932623 0.000454910251909631 0.000584325449126853 0.000286503167186572 0.000253237740421561 6.55789811428924e-05 0.000275808630388946 0.000276081777672976 0.000182754854279274
"57" 0.000245896145338329 -0.000120160313490362 0.000289963417724929 -0.000214477806726133 0.0004268823617274 -0.000163686565052021 -0.000126380171703395 -0.00060338833696054 0.000441706911170905 0.000582845513799029 0.000278096666604747 0.000265315203269962 6.38022227335245e-05 0.00027096813415862 0.000269558104263534 0.00018402545357149
"58" 0.00024846598367157 -0.000127501961182364 0.00029356738564921 -0.000211273486032256 0.000419683873929991 -0.000153750945635876 -0.000128979680205075 -0.000594825384073558 0.000427961979274199 0.000580624507446576 0.000269325776189577 0.00027700450982454 6.20975956865853e-05 0.000265226060147109 0.000262817627991301 0.000184934809717986
"59" 0.000250447399494971 -0.000134436746255932 0.000296820166591835 -0.000208231802362433 0.000411714997889247 -0.000144272408485869 -0.000131654959059818 -0.00058671284490047 0.000413734815641839 0.000577642272432595 0.000260227481641454 0.000288205808497649 6.04506989272927e-05 0.000258588606731289 0.00025587629169143 0.000185445384243502
"60" 0.00025181149656123 -0.000140983670264925 0.000299701320620981 -0.000205390378904942 0.000402977994202019 -0.000135349219020821 -0.000134392064758562 -0.000579154445658578 0.000399093568550674 0.000573877212513678 0.000250825979778744 0.000298821173258799 5.88430154161985e-05 0.000251084785040589 0.000248747482713937 0.000185529132908016
"61" 0.000252538747188839 -0.000147169557834195 0.000302174338554767 -0.000202790614506385 0.000393483835843431 -0.000127065074000338 -0.000137178672262324 -0.000572248053966218 0.000384097865253682 0.000569312058450094 0.000241158926012474 0.000308754246001913 5.72556770636026e-05 0.000242736895940358 0.000241446827624964 0.000185154402316565
"62" 0.000252606592384878 -0.000153019112750467 0.000304211453260426 -0.000200469543706843 0.0003832371885084 -0.000119508880119986 -0.000139992884710772 -0.000566079819515152 0.00036880790081858 0.000563926471920375 0.000231258190706332 0.000317909391600809 5.56761582967968e-05 0.00023357431537765 0.000233991089861021 0.000184298551524743
"63" 0.00025201036080147 -0.000158574836197993 0.000305791398775792 -0.000198460973750121 0.000372256724159755 -0.00011275225608371 -0.000142820193342952 -0.000560741364081774 0.000353293782381641 0.000557721026053945 0.000221161839281393 0.000326201624824867 5.40906193075736e-05 0.000223633886271221 0.000226397832404776 0.000182937713067244
"64" 0.000250742608932313 -0.000163855615115891 0.000306881614128366 -0.000196789305157641 0.0003605590502383 -0.000106864098535905 -0.000145633668493566 -0.000556292467126307 0.000337622103935178 0.000550684851731857 0.000210903820944749 0.000333557429219161 5.24950400780806e-05 0.000212962398223357 0.000218692899541139 0.000181059944130688
"65" 0.000248810567950019 -0.000168896618888918 0.000307469317955336 -0.000195483250204727 0.000348175733769461 -0.000101899579292199 -0.000148416943515867 -0.000552803210552887 0.000321854096372669 0.000542827257871305 0.00020052675373095 0.000339903068736333 5.08829794083957e-05 0.00020160381302161 0.00021089323314675 0.000178648725345895
"66" 0.000246208791943341 -0.000173724843941468 0.00030752949582915 -0.000194558779886503 0.000335130352409733 -9.79119908527083e-05 -0.000151138958438069 -0.000550314477789355 0.000306049228116668 0.000534151048737914 0.000190064411728123 0.000345177002108271 4.92490609743871e-05 0.000189604901779497 0.000203018474009431 0.000175691265606476
"67" 0.000242961765218943 -0.000178370712419131 0.000307057161860505 -0.000194031557728287 0.000321466335225814 -9.49384231558316e-05 -0.000153774619434433 -0.000548869042791178 0.000290274895557136 0.000524669538343432 0.000179558935539509 0.000349332646412096 4.75971073979339e-05 0.000177027021765484 0.000195096547723826 0.000172190181482348
"68" 0.000239076335469199 -0.000182866686512758 0.0003060243219071 -0.000193915110611435 0.000307219517782835 -9.30152768387356e-05 -0.000156305457475684 -0.000548504322949798 0.000274593859355503 0.000514401113964205 0.000169049603147787 0.000352313967072767 4.59224820631082e-05 0.000163923038617491 0.000187151917975091 0.00016813983346393
"69" 0.000234572836743795 -0.00018722659634018 0.000304432830122165 -0.000194206366985433 0.000292429965836207 -9.2160141027862e-05 -0.000158690577807326 -0.000549226457689823 0.000259052635953146 0.000503360270925218 0.000158568722060341 0.000354094097473019 4.42358242002107e-05 0.000150355883436567 0.000179205459616022 0.000163544746581907
"70" 0.000229488953267511 -0.000191481702489598 0.000302272983374179 -0.000194915241132529 0.000277149092226608 -9.23838072222986e-05 -0.000160909079675102 -0.000551053362431209 0.000243717340520594 0.000491585586990869 0.000148165211655873 0.000354647629563973 4.25459731832846e-05 0.000136392474127429 0.000171290198468908 0.000158418777713457
"71" 0.000223844847189307 -0.000195651333083368 0.000299542895777706 -0.000196035781837494 0.000261429037673166 -9.36922069075068e-05 -0.000162930933581788 -0.000553975411745285 0.000228636229552465 0.000479096543186587 0.000137869175435192 0.000353954103191153 4.08612620354215e-05 0.00012209167748317 0.000163425317102199 0.000152767273399384
"72" 0.000217682618474785 -0.000199746224934216 0.00029624896026116 -0.00019755389892849 0.000245327654805921 -9.6074028012814e-05 -0.000164726450876324 -0.000557974938460611 0.000213859539203978 0.00046593232421822 0.000127719169167372 0.000352014984068495 3.91924788365757e-05 0.000107522391574564 0.000155641953105727 0.000146610310936846
"73" 0.000211032143524168 -0.000203784258956917 0.000292399383663593 -0.000199457358162006 0.000228895711296193 -9.95165133923305e-05 -0.000166261472489117 -0.000563029488384171 0.000199431019599203 0.000452129458073658 0.000117747513022441 0.000348827992273762 3.75562337183628e-05 9.27549487771088e-05 0.000147958945503645 0.000139969859315054
"74" 0.000203947279929813 -0.000207781119881385 0.000287997656144759 -0.000201733169280057 0.000212200622915071 -0.000103990676606778 -0.000167518729624379 -0.000569111748602924 0.000185399394074948 0.00043773082371598 0.000107992834078377 0.000344411558117319 3.59676909748578e-05 7.78580996040631e-05 0.00014041084423748 0.000132869563048202
"75" 0.00019647204366226 -0.000211733662226743 0.000283071911540517 -0.000204350776575654 0.000195309278221525 -0.000109453172612419 -0.00016845616138719 -0.000576161631651306 0.000171803587798884 0.000422788577745181 9.84859003879584e-05 0.000338794261873418 3.44473678443095e-05 6.2904740124364e-05 0.000133023021647034 0.000125342547126557
"76" 0.000188659639084624 -0.000215660147247118 0.000277637332167426 -0.000207289635565041 0.000178285289048735 -0.000115872855939092 -0.000169063758752119 -0.000584142949717688 0.000158678121216935 0.000407346051263786 8.92570334205651e-05 0.00033200112569849 3.30083810469384e-05 4.79594714076577e-05 0.000125817479525886 0.000117414184601879
"77" 0.000180552320568064 -0.000219544544136158 0.000271718162729797 -0.000210515756088095 0.000161191041731432 -0.000123190164809624 -0.000169306288542134 -0.000592985271016908 0.000146047732956504 0.000391449520084565 8.03301282957816e-05 0.000324075464012935 3.16702765593826e-05 3.30890452745523e-05 0.000118817540377436 0.00010912320326696
"78" 0.000172216770102651 -0.000223392945159149 0.000265343805694467 -0.000213999171781964 0.000144101809529866 -0.000131348687159685 -0.000169160237534483 -0.000602620409335421 0.000133948981926222 0.00037516305376265 7.17343951097074e-05 0.000315070230477944 3.04582177177378e-05 1.83619847482789e-05 0.000112051380518237 0.000100508197782521
"79" 0.000163696197244628 -0.000227200783711703 0.000258545364145974 -0.000217703301561713 0.000127086871809887 -0.000140278787909273 -0.000168612873083283 -0.00061297594524797 0.000122396022749278 0.000358532883492658 6.34905409471709e-05 0.000305042883287039 2.93842371281806e-05 3.84387846290173e-06 0.000105534612431983 9.16072657039938e-05
"80" 0.000155061050253771 -0.000230963721319152 0.00025136046635622 -0.000221588384492259 0.000110211836447509 -0.000149914579904475 -0.000167645234407784 -0.000623975044240628 0.00011141458354919 0.000341622489763756 5.56181408633061e-05 0.000294057561998704 2.84678188890569e-05 -1.04021597972504e-05 9.92930155314217e-05 8.24653952195517e-05
"81" 0.000146364203250249 -0.000234655291978212 0.000243835392675266 -0.00022560700920211 9.35487541742634e-05 -0.00016016864356387 -0.000166233948529487 -0.000635513337928573 0.000101010841661267 0.000324486379376117 4.81351195165616e-05 0.000282191468796272 2.77320305857941e-05 -2.43235045545238e-05 9.33401196398345e-05 7.31237096024843e-05
"82" 0.000137661138326515 -0.000238278472305275 0.00023600017857546 -0.000229729027867541 7.71556478126684e-05 -0.000170969751099102 -0.000164378165291378 -0.000647524666186386 9.11975026271784e-05 0.000307182703199539 4.10521231881381e-05 0.000269513042427828 2.71859213019007e-05 -3.78570579059155e-05 8.76946685594043e-05 6.36281918306559e-05
"83" 0.000129018684208851 -0.000241807953430512 0.000227911470822636 -0.000233903394237404 6.11163472457549e-05 -0.000182224310129188 -0.00016205986998077 -0.000659902927221509 8.19808931263865e-05 0.000289772838938018 3.43845886399424e-05 0.000256115979761025 2.68483519251454e-05 -5.09467895407108e-05 8.23727107396321e-05 5.4029715256207e-05
"84" 0.000120492500058372 -0.000245237330095874 0.000219609659852884 -0.000238088339845433 4.54793229390543e-05 -0.00019384069717862 -0.000159277512120544 -0.000672548925980904 7.33573148706396e-05 0.000272317308064309 2.8137662288756e-05 0.000242085624938019 2.6735991369348e-05 -6.35555645728245e-05 7.73851108381649e-05 4.43706734553412e-05
"85" 0.000112135776326675 -0.000248537272887719 0.000211151279320902 -0.000242236355167975 3.03170325080225e-05 -0.000205732364572253 -0.000156025578716685 -0.000685371677736036 6.53220443769467e-05 0.000254868982289861 2.23127577649802e-05 0.000227513154898264 2.68534845702722e-05 -7.56338877901898e-05 7.27407414289738e-05 3.46967734216083e-05
"86" 0.000104001089231753 -0.00025169529971239 0.000202577934275144 -0.000246303855906506 1.56790045205143e-05 -0.000217807537357523 -0.000152314315145366 -0.000698274891266898 5.78638327224306e-05 0.000237486473280476 1.6912341128977e-05 0.000212488199433164 2.7210920208607e-05 -8.71406174316141e-05 6.84437058961928e-05 2.50570548507798e-05
"87" 9.61471222436398e-05 -0.000254695667584345 0.000193949443206373 -0.000250248623033943 1.62533131902358e-06 -0.000229972493599627 -0.000148143098701314 -0.000711161034599515 5.09752214494905e-05 0.000220227476419548 1.19342721764494e-05 0.000197115554625779 2.78157347000794e-05 -9.80380592737736e-05 6.45052793814016e-05 1.55012541560887e-05
"88" 8.86305658076302e-05 -0.000257523014473142 0.00018530949485613 -0.000254032854872704 -1.17955136809962e-05 -0.000242128871679214 -0.000143522457631307 -0.000723932729797916 4.464162477535e-05 0.000203148544960742 7.37472602095051e-06 0.000181490007804584 2.86694932051288e-05 -0.000108299649564484 6.09234230838348e-05 6.06731388370332e-06
"89" 8.14878066071561e-05 -0.000260155046336115 0.000176710682118782 -0.000257614699526618 -2.45412748318311e-05 -0.000254194582749322 -0.000138466895321741 -0.000736502182622578 3.88385502991315e-05 0.000186301519977885 3.22371696049857e-06 0.000165706391414839 2.97756193839308e-05 -0.000117902375570207 5.76993094583108e-05 -3.19948655388964e-06
"90" 7.47623917739218e-05 -0.000262562151452947 0.000168202086427017 -0.000260950158096794 -3.65635082102067e-05 -0.000266076097953129 -0.000132990977171601 -0.000748775798684067 3.35322211297861e-05 0.00016972920451001 -5.36682409720573e-07 0.000149861931181688 3.11234280278943e-05 -0.000126830113309529 5.48225613226694e-05 -1.22555428606218e-05
"91" 6.85061920500966e-05 -0.00026475636993324 0.000159828532845618 -0.000264014593039215 -4.78323516102367e-05 -0.000277687081593441 -0.00012711700194249 -0.000760675343079429 2.87145378640082e-05 0.000153489026714798 -3.90838309273149e-06 0.000134055614696349 3.27162271246583e-05 -0.000135062480125546 5.22986106358298e-05 -2.10633305774092e-05
"92" 6.27442448559915e-05 -0.000266705465439337 0.000151638288814755 -0.000266769597560209 -5.83176997909993e-05 -0.00028894957233533 -0.000120869763117414 -0.000772114011021738 2.43456919329541e-05 0.00013762226429077 -6.91927168613755e-06 0.000118379345660034 3.45384111513941e-05 -0.000142591267905176 5.01102725198734e-05 -2.9585111452435e-05
"93" 5.7514702080904e-05 -0.000268404275999597 0.000143671853330411 -0.000269186286484605 -6.7992592445404e-05 -0.000299781474707914 -0.000114278550933862 -0.000783026624505386 2.03966866712616e-05 0.000122166905682885 -9.5836828512615e-06 0.000102922362395084 3.65793818103211e-05 -0.000149418921132527 4.82479092093534e-05 -3.77882599390003e-05
"94" 5.28364710433996e-05 -0.000269844770824391 0.000135960846184489 -0.00027124465632853 -7.68500376488766e-05 -0.000310122959340804 -0.000107376799094641 -0.000793346439401475 1.6829962586237e-05 0.000107157681777949 -1.19282397245861e-05 8.77627772644539e-05 3.88183341112971e-05 -0.000155546070123572 4.67001549513626e-05 -4.56422126848033e-05
"95" 4.87415575350871e-05 -0.000271015765485347 0.000128552311944921 -0.000272921958561869 -8.48576142487721e-05 -0.000319891768708779 -0.000100189973808387 -0.000802999022907411 1.36226856745627e-05 9.26425144576517e-05 -1.39659256584891e-05 7.29980534917915e-05 4.12519110404027e-05 -0.00016096959195932 4.54565033456378e-05 -5.31137759437309e-05
"96" 4.52421569467092e-05 -0.000271918348093193 0.000121472917543892 -0.000274201222584896 -9.20183866904229e-05 -0.000329036256297179 -9.2762044829108e-05 -0.00081194345701598 1.07310415553735e-05 7.86421228768071e-05 -1.57316953992371e-05 5.86966346263874e-05 4.3845528610293e-05 -0.00016571578777456 4.4491499603468e-05 -6.01847654006055e-05
"97" 4.2350095243108e-05 -0.000272548030593364 0.000114743847031386 -0.000275072932907626 -9.83425393394152e-05 -0.000337507806388311 -8.51279170047313e-05 -0.000820132236938355 8.12118709174565e-06 6.51851607756992e-05 -1.7245836451706e-05 4.49239428895669e-05 4.65808050575262e-05 -0.000169788619975723 4.37941971397935e-05 -6.68301885570622e-05
"98" 4.00690180273444e-05 -0.000272905446827868 0.000108389455663969 -0.000275525013107522 -0.000103821526776135 -0.000345255443313491 -7.7327934103203e-05 -0.000827525238265727 5.75244913203278e-06 5.22908945138589e-05 -1.85393665606211e-05 3.17501317102507e-05 4.94317698407861e-05 -0.000173223466460366 4.33372671548235e-05 -7.30358166801033e-05
"99" 3.8408509000438e-05 -0.000273002448876331 0.000102424818985306 -0.000275559818671078 -0.000108475137665607 -0.000352242147308109 -6.94054000822453e-05 -0.000834097268838964 3.59843000085728e-06 3.99918620128458e-05 -1.96326105887726e-05 1.92330918132914e-05 5.23760406010119e-05 -0.000176028691663112 4.31065758783893e-05 -7.87840683555116e-05
"100" 3.73542362512659e-05 -0.000272848799293776 9.68612588745814e-05 -0.000275178804515075 -0.000112321356817254 -0.000358443308598169 -6.1409060788436e-05 -0.000839831888775196 1.61897826758451e-06 2.82897541010207e-05 -2.05615019014802e-05 7.41731687625634e-06 5.53775495474615e-05 -0.000178242604783345 4.30772925818154e-05 -8.40671217126115e-05
"101" 3.69027525493458e-05 -0.000272448968793707 9.17052982513764e-05 -0.000274390070488411 -0.000115384311954772 -0.000363835065392153 -5.33791067088938e-05 -0.000844710002208047 -2.13384657404848e-07 1.72036335245649e-05 -2.13460480059116e-05 -3.64808201509214e-06 5.84133839349645e-05 -0.000179894881699887 4.32263747194866e-05 -8.88778118847894e-05
"102" 3.70384560046638e-05 -0.00027181795679735 8.69560795980621e-05 -0.000273202114137748 -0.000117687512716757 -0.000368403520956652 -4.53574220997176e-05 -0.000848731179968794 -1.93726359585643e-06 6.73887326332306e-06 -2.20194226513552e-05 -1.39308385873515e-05 6.14526238433084e-05 -0.000181023437542898 4.35322382743978e-05 -9.32143166166342e-05
"103" 3.7742677050095e-05 -0.000270976616146133 8.26073804056175e-05 -0.000271630524836415 -0.000119270642207386 -0.00037214371755987 -3.73945444228038e-05 -0.000851902474445387 -3.57537746095615e-06 -3.09623846168808e-06 -2.26015954329824e-05 -2.34019773142031e-05 6.44646982233388e-05 -0.00018165852074185 4.3974286323559e-05 -9.70733236609739e-05
"104" 3.89855848316486e-05 -0.000269939252126148 7.8649994442366e-05 -0.000269694487438585 -0.000120166582623688 -0.000375060948100491 -2.95285145140581e-05 -0.000854234847478475 -5.16625985185345e-06 -1.23045424125833e-05 -2.31247428791723e-05 -3.20446381621104e-05 6.74168538539409e-05 -0.000181848127735094 4.45236705537732e-05 -0.000100463401312317
"105" 4.07454973575192e-05 -0.000268727587409499 7.50645613740571e-05 -0.000267423215078921 -0.000120422306846636 -0.00037716382357282 -2.18054834999267e-05 -0.000855748007274124 -6.72552321355965e-06 -2.08862518663723e-05 -2.36094491038821e-05 -3.98446782802382e-05 7.02827659463575e-05 -0.000181627598640909 4.51597277493736e-05 -0.00010338764871933
"106" 4.29877365523331e-05 -0.000267375840081953 7.18320546261015e-05 -0.000264839912823775 -0.00012008573874031 -0.000378476185185231 -1.42734295531772e-05 -0.000856481910198188 -8.28145855714318e-06 -2.88517998810985e-05 -2.40806145346403e-05 -4.6801481178384e-05 7.30273793304087e-05 -0.000181049657835414 4.58595274720827e-05 -0.000105863610254622
"107" 4.56739699713012e-05 -0.000265898782936217 6.89325841460138e-05 -0.000261975911172021 -0.000119194643823952 -0.000379016131704191 -6.96551752776248e-06 -0.000856454927842304 -9.84603212412298e-06 -3.62008390196331e-05 -2.45555504294618e-05 -5.29095886247126e-05 7.56301240222876e-05 -0.000180145625743581 4.66056799314025e-05 -0.000107894952238257
"108" 4.87631100353904e-05 -0.000264327232019111 6.63319545254382e-05 -0.000258863698468741 -0.000117813125085279 -0.000378824852717877 7.93835142984629e-08 -0.000855726914485658 -1.14501015484016e-05 -4.2954440188492e-05 -2.50596628803551e-05 -5.81898726433618e-05 7.80569348705418e-05 -0.000178971111569997 4.7370537106504e-05 -0.0001095034419799
"109" 5.22167203521352e-05 -0.000262686942160327 6.39967173386948e-05 -0.000255545977183806 -0.000115984186039401 -0.000377936880106715 6.82404724353701e-06 -0.000854332272033437 -1.30993003432736e-05 -4.91207243367202e-05 -2.56036134562792e-05 -6.26516815171274e-05 8.02893443522623e-05 -0.000177564595733263 4.81427414781323e-05 -0.000110704227590419
"110" 5.59855755809318e-05 -0.000261009431644031 6.18955524129267e-05 -0.000252055294249227 -0.000113770528690999 -0.000376399915619062 1.32284230739852e-05 -0.000852332939128455 -1.48073592700598e-05 -5.47175319822102e-05 -2.62067129781126e-05 -6.63201666655386e-05 8.22994509424351e-05 -0.000175974939171317 4.88984965393617e-05 -0.000111520284022652
"111" 6.00253312991694e-05 -0.00025931973252309 5.99821746308226e-05 -0.000248438293483847 -0.000111225709390436 -0.000374261953035983 1.927634521316e-05 -0.000849779575385687 -1.65787308998206e-05 -5.97595644684419e-05 -2.68765637138313e-05 -6.92245627248356e-05 8.40737050381918e-05 -0.000174243417673252 4.96263925444043e-05 -0.000111970660243098
"112" 6.42761441616713e-05 -0.000257652122572914 5.82201871370708e-05 -0.000244733065861008 -0.000108408648267236 -0.000371588694378189 2.49250319616355e-05 -0.000846748109477855 -1.84290103582334e-05 -6.42738741688851e-05 -2.76315824699865e-05 -7.14078003664434e-05 8.55838365293333e-05 -0.00017241268523763 5.03052020986443e-05 -0.000112080040174393
"113" 6.86964761170883e-05 -0.000256030048031594 5.65619638999668e-05 -0.000240984250543115 -0.000105373462300781 -0.000368431433404926 3.01583987537502e-05 -0.000843289860564523 -2.03559557440542e-05 -6.82778818362338e-05 -2.84768414014276e-05 -7.29012737603144e-05 8.68192318604221e-05 -0.000170530321924807 5.09223480129346e-05 -0.000111876692824753
"114" 7.32316881970275e-05 -0.000254477309897408 5.49739970766568e-05 -0.000237231642868559 -0.000102173904725535 -0.00036485263172292 3.4958090012074e-05 -0.000839474030730556 -2.23616564099285e-05 -7.17931629207551e-05 -2.94168794899077e-05 -7.37520137058888e-05 8.77684341450734e-05 -0.000168629463648076 5.14708700492543e-05 -0.000111379361823555
"115" 7.78264730373514e-05 -0.000253026595674327 5.34003231001447e-05 -0.00023352399500426 -9.88677282148502e-05 -0.000360925295006106 3.93054216953832e-05 -0.0008353728092552 -2.44440016784438e-05 -7.48475689246298e-05 -3.04546123894074e-05 -7.40100532256631e-05 8.84200163303253e-05 -0.000166751077735822 5.1940564671519e-05 -0.000110616355180805
"116" 8.24299824423691e-05 -0.00025170151763991 5.18005958579322e-05 -0.000229903262332415 -9.55049394639568e-05 -0.000356709702396451 4.31818406103673e-05 -0.000831055191051637 -2.65957202163335e-05 -7.74601452255742e-05 -3.15906993327875e-05 -7.37239189945812e-05 8.87674827650622e-05 -0.000164930862798801 5.23194828446638e-05 -0.000109616818496969
"117" 8.69898977181265e-05 -0.000250523406299958 5.01334097198028e-05 -0.000226410983096096 -9.21463413298532e-05 -0.000352283638741921 4.65804330076559e-05 -0.000826596578351147 -2.88119402212189e-05 -7.96613206398286e-05 -3.28275620623149e-05 -7.29534609367693e-05 8.88047118921006e-05 -0.000163200582481848 5.26064264055592e-05 -0.000108405850436476
"118" 9.14592117080532e-05 -0.000249509036642413 4.83538194375706e-05 -0.000223083520305777 -8.88247884108586e-05 -0.000347713841843391 4.94970212448535e-05 -0.00082205605440411 -3.10903212761403e-05 -8.14761084799926e-05 -3.41600529911435e-05 -7.17527064969515e-05 8.85306411553852e-05 -0.000161592447592271 5.27952565960353e-05 -0.000107007117172313
"119" 9.5781959172179e-05 -0.000248682257124771 4.64230459700166e-05 -0.000219965302617174 -8.55997276134413e-05 -0.000343069783486658 5.19277593568367e-05 -0.000817507879630195 -3.34143089072841e-05 -8.2928149286049e-05 -3.55835944197622e-05 -7.0175643781504e-05 8.79464685740654e-05 -0.000160136171091204 5.28845337766607e-05 -0.000105450494013104
"120" 9.99056441156676e-05 -0.000248057306524664 4.43010343248342e-05 -0.000217092253756333 -8.25083124018971e-05 -0.000338428805957855 5.38685725063161e-05 -0.000813024711402378 -3.57762156495688e-05 -8.40480068680746e-05 -3.70899339540854e-05 -6.82920711699537e-05 8.70535645092444e-05 -0.000158849452422937 5.28742849073427e-05 -0.00010375682534348
"121" 0.000103794386819118 -0.000247640345169659 4.1952035880675e-05 -0.000214497141968956 -7.95899889508941e-05 -0.0003338479041796 5.53342200960825e-05 -0.000808658068680431 -3.81625186313782e-05 -8.4855507899163e-05 -3.86716289239701e-05 -6.61518555729812e-05 8.58660954763968e-05 -0.000157757220312312 5.27700682499369e-05 -0.000101951407564067
"122" 0.000107402480321691 -0.000247449987134675 3.93485786706834e-05 -0.000212209069668958 -7.68864754231855e-05 -0.000329401377465784 5.6323663470406e-05 -0.000804474700521146 -4.05574106747798e-05 -8.537837880015e-05 -4.03171063951743e-05 -6.38139678419437e-05 8.43862126051479e-05 -0.000156877653330512 5.25694509299569e-05 -0.000100057052404309
"123" 0.000110688225207565 -0.000247484966004382 3.64638931392003e-05 -0.000210254154497351 -7.44156609444213e-05 -0.000325143984708292 5.6851988167759e-05 -0.000800524082148796 -4.29464773386566e-05 -8.56337249787154e-05 -4.20158264090966e-05 -6.13371744850713e-05 8.26296759882415e-05 -0.000156219241800612 5.22861408323783e-05 -9.80937360044186e-05
"124" 0.000113608262563123 -0.000247748310162331 3.32698499047007e-05 -0.000208660733673447 -7.2217210029808e-05 -0.000321143992759091 5.69322196746056e-05 -0.000796860552216371 -4.53177872235267e-05 -8.56574962881168e-05 -4.3755286089391e-05 -5.87787020819588e-05 8.06082017633801e-05 -0.000155797556166149 5.19198079458452e-05 -9.60817107211057e-05
"125" 0.000116129689734859 -0.000248246544670627 2.9744278009533e-05 -0.000207446827242009 -7.03210890060765e-05 -0.000317459621736029 5.65724400895964e-05 -0.000793541598197235 -4.76570713126085e-05 -8.54682052263068e-05 -4.55237684297571e-05 -5.61973248786441e-05 7.83325834324289e-05 -0.000155623822738991 5.14805177276083e-05 -9.40433030642133e-05
"126" 0.000118227406098536 -0.000248969147168756 2.58812079561615e-05 -0.000206625038856397 -6.87296518162774e-05 -0.000314130843065589 5.58007105010825e-05 -0.000790590529328272 -4.99468926482797e-05 -8.50837908028806e-05 -4.73032194513097e-05 -5.36366201842043e-05 7.58273369173795e-05 -0.000155693842962026 5.09805334087161e-05 -9.19893733695543e-05
"127" 0.000119867072406884 -0.000249909494381087 2.16707933124194e-05 -0.00020620707918891 -6.74673225551185e-05 -0.000311214636352505 5.46352318999623e-05 -0.000788053109972922 -5.2174092987e-05 -8.45308067774006e-05 -4.90840554693417e-05 -5.11526673313989e-05 7.31038340083127e-05 -0.00015600909940149 5.0428559837469e-05 -8.99370567525851e-05
"128" 0.000121027303565534 -0.000251065700129969 1.71060119545603e-05 -0.000206201774801831 -6.65473553445965e-05 -0.000308751045238165 5.30905917389345e-05 -0.00078596314675366 -5.43249649132427e-05 -8.38283905879876e-05 -5.08468143850136e-05 -4.87893867060425e-05 7.01865015588812e-05 -0.000156572669400173 4.98379618880235e-05 -8.78997163122809e-05
"129" 0.000121681818355594 -0.000252423082401489 1.21862065098636e-05 -0.000206614387272844 -6.59781194479244e-05 -0.000306777153815859 5.11948707421255e-05 -0.000784338900155149 -5.63881542679127e-05 -8.29972100436116e-05 -5.2579393823196e-05 -4.65906752329304e-05 6.70938739815843e-05 -0.000157375038513467 4.92195143718536e-05 -8.58883167028686e-05
"130" 0.000121822547307094 -0.000253966094119089 6.9192818519902e-06 -0.00020744164565645 -6.57661043438552e-05 -0.00030532246494367 4.89678855428482e-05 -0.000783201468467389 -5.83429650936678e-05 -8.20504123905986e-05 -5.42646010450598e-05 -4.45958123986553e-05 6.38481999169865e-05 -0.000158406705695587 4.85859247288618e-05 -8.39138041950315e-05
"131" 0.000121430361161044 -0.000255670102212994 1.32065275653448e-06 -0.000208667366881703 -6.59007989565498e-05 -0.000304411747981549 4.64440009563182e-05 -0.000782549132859602 -6.01938653799872e-05 -8.10177789498471e-05 -5.58969030766896e-05 -4.28384887803246e-05 6.04698475524593e-05 -0.000159667667868679 4.7946343049531e-05 -8.19850821052708e-05
"132" 0.000120507232029606 -0.00025752891650138 -4.59798978585902e-06 -0.000210294056924832 -6.63906899579333e-05 -0.000304065077747457 4.36393712896074e-05 -0.000782405202263805 -6.1913254005865e-05 -7.99030812654261e-05 -5.74474153446558e-05 -4.13487453369912e-05 5.69849294779483e-05 -0.000161126057053964 4.73270571074597e-05 -8.01010945785294e-05
"133" 0.000119026245865382 -0.000259512501809964 -1.08183043069535e-05 -0.000212296978676778 -6.72281300689095e-05 -0.000304296418001183 4.05801994747244e-05 -0.000782756547764099 -6.35121832703277e-05 -7.87357284259339e-05 -5.89223248133693e-05 -4.01599732725903e-05 5.34081702877456e-05 -0.000162783976744645 4.67225903020158e-05 -7.8278811402526e-05
"134" 0.000117007846478182 -0.000261608646044717 -1.73074221584237e-05 -0.000214661247826593 -6.84025023319491e-05 -0.000305110730375255 3.72947456273145e-05 -0.000783600917560024 -6.49701255353045e-05 -7.75203460538995e-05 -6.02970635228127e-05 -3.9285600792814e-05 4.97682122659791e-05 -0.00016461694870729 4.61561266267788e-05 -7.65160097441672e-05
"135" 0.000114435525148809 -0.000263786663636779 -2.40448667053262e-05 -0.000217360743505366 -6.9905673600034e-05 -0.000306513175298846 3.38018312098035e-05 -0.000784927732488729 -6.62949317549352e-05 -7.62801694503974e-05 -6.15698653098214e-05 -3.87585678677071e-05 4.60754637771924e-05 -0.000166612207086903 4.56330767891478e-05 -7.48172441159953e-05
"136" 0.000111332691772324 -0.000266021926802261 -3.09900311136904e-05 -0.000220372976219975 -7.1716266582682e-05 -0.00030848651764647 3.013359611577e-05 -0.00078670365814555 -6.74729814623372e-05 -7.5020531473778e-05 -6.27226118829598e-05 -3.85738919588708e-05 4.23673828296645e-05 -0.000168743840371206 4.5169581820621e-05 -7.31834548020437e-05
"137" 0.000107689551331767 -0.000268295440354087 -3.81119105913423e-05 -0.000223660464980621 -7.3829411762012e-05 -0.00031103670797432 2.63043992619278e-05 -0.000788918802760601 -6.8519032407498e-05 -7.37653486049997e-05 -6.37620579222708e-05 -3.87599753005081e-05 3.86456355406684e-05 -0.000171000194074799 4.47657972687892e-05 -7.1616801296743e-05
"138" 0.000103529426082232 -0.000270576488707355 -4.53692074274018e-05 -0.000227195772975315 -7.62256776968903e-05 -0.000314135236954461 2.23414632674405e-05 -0.000791532833208082 -6.9423918237001e-05 -7.25230637759432e-05 -6.46722016775338e-05 -3.93091705655592e-05 3.49414704758572e-05 -0.000173357445789931 4.44371145494445e-05 -7.01168536334614e-05
"139" 9.88633251850636e-05 -0.000272839344619999 -5.27234306390457e-05 -0.000230939874694658 -7.88807249868425e-05 -0.000317761876643977 1.82665115810378e-05 -0.000794511849057798 -7.0201290082451e-05 -7.13102546066213e-05 -6.54550408793021e-05 -4.02303018654869e-05 3.12660974352505e-05 -0.000175796751074058 4.41838918065731e-05 -6.86831952366468e-05
"140" 9.37032473365922e-05 -0.000275072502247292 -6.01309995539016e-05 -0.000234857636914725 -8.17873613779942e-05 -0.000321897024034539 1.40918814763326e-05 -0.000797822743336838 -7.08538257204195e-05 -7.01365978361453e-05 -6.61059960644419e-05 -4.1521532286292e-05 2.76331991836578e-05 -0.000178295936993866 4.40132675045031e-05 -6.73181273787916e-05
"141" 8.80694110351248e-05 -0.000277237790024338 -6.75461091560006e-05 -0.000238903703143625 -8.4916399330008e-05 -0.000326494861799766 9.84449839949378e-06 -0.00080140782389324 -7.13970155662562e-05 -6.9016794283798e-05 -6.6629751811715e-05 -4.31720485895103e-05 2.40635357013349e-05 -0.000180841508119662 4.39241089794403e-05 -6.60198449156466e-05
"142" 8.19878772481889e-05 -0.00027932317385948 -7.49274575527181e-05 -0.000243042105294444 -8.82533190504244e-05 -0.000331533200632185 5.53042646814207e-06 -0.000805232030677296 -7.18378632413272e-05 -6.79644560624388e-05 -6.70270564459916e-05 -4.5174418839445e-05 2.05668516377415e-05 -0.000183405835688462 4.39208409658271e-05 -6.47856004045299e-05
"143" 7.54714439736521e-05 -0.000281302606981286 -8.2228166977305e-05 -0.000247225262228644 -9.17791217173426e-05 -0.000336965877963384 1.17095899774469e-06 -0.000809241754136644 -7.21914064891478e-05 -6.69912744922832e-05 -6.73005758795095e-05 -4.75207210604939e-05 1.71534092293184e-05 -0.000185976073188579 4.39979032633165e-05 -6.36178354656568e-05
"144" 6.85512572960473e-05 -0.000283160016858721 -8.94073356911394e-05 -0.000251412789841268 -9.54693901918894e-05 -0.000342746955147489 -3.22354352286145e-06 -0.00081337675840481 -7.24756815511609e-05 -6.61065101477109e-05 -6.74581268818359e-05 -5.01902060034388e-05 1.38346150364118e-05 -0.000188537467537772 4.41516627698149e-05 -6.25167326378626e-05
"145" 6.12430370418688e-05 -0.000284872854044074 -9.64226100979568e-05 -0.000255560472977081 -9.93160533438857e-05 -0.000348837341344573 -7.64368271202917e-06 -0.000817584715495063 -7.27134600685178e-05 -6.53335029624782e-05 -6.7513741068157e-05 -5.31678462022356e-05 1.06143517942067e-05 -0.000191074298369681 4.43764449331626e-05 -6.14832842477058e-05
"146" 5.35750970412303e-05 -0.000286429146378193 -0.000103232555457951 -0.00025962461059455 -0.000103290648696326 -0.000355182967123341 -1.20749980476473e-05 -0.000821807149045203 -7.29194055822427e-05 -6.46745382031491e-05 -6.74680368100032e-05 -5.64301898410763e-05 7.50316112427579e-06 -0.000193566454028625 4.46637853434655e-05 -6.05157428108263e-05
"147" 4.55775411402693e-05 -0.00028781929847622 -0.000109803680740674 -0.000263567960956865 -0.000107385733892036 -0.00036173500088484 -1.65207751168787e-05 -0.000825990475834727 -7.31117215772073e-05 -6.41448610989502e-05 -6.73372067597797e-05 -5.99572312044034e-05 4.5036018048552e-06 -0.000196007183808432 4.50037409732172e-05 -5.96145250678781e-05
"148" 3.72724992286712e-05 -0.000289019698856136 -0.000116091226569812 -0.000267342428351782 -0.000111572058025168 -0.000368437772099034 -2.09597016147731e-05 -0.000830059556820912 -7.33163246874185e-05 -6.37571447688453e-05 -6.71366803074595e-05 -6.37198588350181e-05 1.62171698987861e-06 -0.000198388638615877 4.53825229234322e-05 -5.87873489089869e-05
"149" 2.86854415173914e-05 -0.000290033213388514 -0.000122073728579174 -0.00027091264292215 -0.000115853012888025 -0.0003752445872059 -2.54024048723053e-05 -0.000833973095366738 -7.35605884104188e-05 -6.3525787977909e-05 -6.68798714359419e-05 -6.76970755625533e-05 -1.14785266689516e-06 -0.000200697818006604 4.57877865566219e-05 -5.80311233604374e-05
"150" 1.98367384286809e-05 -0.000290851212149329 -0.000127717611434192 -0.000274243477703766 -0.000120207180035804 -0.000382101191086268 -2.98401038206068e-05 -0.000837666275345334 -7.38673782809284e-05 -6.34640166430304e-05 -6.65820846342374e-05 -7.18632314413162e-05 -3.80041612444343e-06 -0.000202930959515536 4.62001717430074e-05 -5.73532102400744e-05
"151" 1.07563905877092e-05 -0.000291465119924161 -0.000133005227789379 -0.000277299288882713 -0.000124625670121623 -0.000388950657565224 -3.42690422072015e-05 -0.000841077619646894 -7.42550445606207e-05 -6.3579068399191e-05 -6.62605299832064e-05 -7.61867180016186e-05 -6.33754637852988e-06 -0.000205082559300686 4.66055900244833e-05 -5.67570824536902e-05
"152" 1.47046138710984e-06 -0.000291866614606316 -0.000137906678063847 -0.00028004682375997 -0.000129089652215089 -0.000395742806506185 -3.86868504800264e-05 -0.000844148916490148 -7.47512794169012e-05 -6.38838307317182e-05 -6.59331114051077e-05 -8.06363759381256e-05 -8.76054218568689e-06 -0.000207150349274928 4.69837270888155e-05 -5.62464841614287e-05
"153" -7.99840950711638e-06 -0.000292068763933713 -0.000142412557163013 -0.000282459007826692 -0.000133601948971317 -0.000402426738011318 -4.30994464610961e-05 -0.000846831645805459 -7.53844105107475e-05 -6.43920447570684e-05 -6.56173986285597e-05 -8.51872072913727e-05 -1.10755482151554e-05 -0.000209129539084102 4.73153638130877e-05 -5.5825099913691e-05
"154" -1.76269276345297e-05 -0.000292063112481336 -0.000146514388079499 -0.000284509010835633 -0.000138147544753434 -0.000408952652442679 -4.7499679305836e-05 -0.00084906531661814 -7.61668168952611e-05 -6.51107669200876e-05 -6.53313593695e-05 -8.98071454941888e-05 -1.32827613928135e-05 -0.000211027196055179 4.75799105714724e-05 -5.55032233554961e-05
"155" -2.74021928924786e-05 -0.000291852967560827 -0.000150203472108797 -0.000286175000239528 -0.000142724999886849 -0.000415273647628086 -5.18912498593237e-05 -0.00085080507082291 -7.71327814414555e-05 -6.60563274169732e-05 -6.5097124175479e-05 -9.44728392139831e-05 -1.53923215134747e-05 -0.000212840566266869 4.77549328910052e-05 -5.52830564553021e-05
"156" -3.72895228888033e-05 -0.000291446379421771 -0.000153481249010584 -0.000287445238205468 -0.000147328770997448 -0.000421340301688913 -5.62725468910005e-05 -0.000852002145862335 -7.82954797522808e-05 -6.72319030158697e-05 -6.49266929556008e-05 -9.91485039827037e-05 -1.74011938094714e-05 -0.00021457536863512 4.78243786198037e-05 -5.51745149109498e-05
"157" -4.72816066904323e-05 -0.000290850413260664 -0.000156349107048443 -0.000288299227832157 -0.000151958682785713 -0.000427121551748709 -6.06457772712776e-05 -0.000852621984070383 -7.96785507351425e-05 -6.86476057589102e-05 -6.484567729944e-05 -0.00010381491920055 -1.93233659674102e-05 -0.000216245061763183 4.77567282811434e-05 -5.51856611859975e-05
"158" -5.73563346915406e-05 -0.00029006668008519 -0.000158815408326533 -0.000288723442839463 -0.000156605457488152 -0.000432567759497101 -6.50137350198017e-05 -0.000852616628793116 -8.12973343695912e-05 -7.03120013017693e-05 -6.48657386165189e-05 -0.000108439323681105 -2.11605175303496e-05 -0.000217840731515474 4.75381017085225e-05 -5.53193158440641e-05
"159" -6.74947533007765e-05 -0.000289109265196545 -0.000160896596154566 -0.000288721680632699 -0.000161268861795429 -0.000437650659512066 -6.93698250285053e-05 -0.000851955073777576 -8.31667683044219e-05 -7.223176194946e-05 -6.50043742051149e-05 -0.000113002015548585 -2.29201540911239e-05 -0.000219386280190265 4.71476359510451e-05 -5.55878003559739e-05
"160" -7.7684542323502e-05 -0.00028799148182778 -0.000162610750310244 -0.000288287704368415 -0.000165953057972597 -0.000442336763632558 -7.37168366931194e-05 -0.000850608739790994 -8.52974554314923e-05 -7.44101372110144e-05 -6.52771268928504e-05 -0.000117475741043354 -2.4606328167082e-05 -0.000220881917869644 4.65637702052848e-05 -5.59963551430953e-05
"161" -8.79101689244182e-05 -0.000286705187917906 -0.000163978893079479 -0.000287421492172059 -0.000170647803227187 -0.000446595903369879 -7.80498837452905e-05 -0.000848542902509346 -8.77092771569206e-05 -7.68516406883294e-05 -6.56990000552021e-05 -0.000121839054538849 -2.62248567929928e-05 -0.000222346443902506 4.57669064250739e-05 -5.65533795207279e-05
"162" -9.81604356998134e-05 -0.000285285668634239 -0.000165025280483671 -0.000286132380208946 -0.000175362241391744 -0.000450409603551456 -8.23697850137512e-05 -0.000845748194282258 -9.04033689182269e-05 -7.95575522880358e-05 -6.62810093560731e-05 -0.000126070785206022 -2.77825930417396e-05 -0.000223779348144853 4.47415966514684e-05 -5.72666701289673e-05
"163" -0.000108412809228826 -0.000283721875298956 -0.000165777779256949 -0.000284430212090165 -0.00018008127538431 -0.000453753625213333 -8.66651675599555e-05 -0.00084219724832302 -9.33856069184221e-05 -8.25331861750881e-05 -6.70320745161647e-05 -0.000130151376458282 -2.9280203719498e-05 -0.000225203568374975 4.34714140199119e-05 -5.81420585494429e-05
"164" -0.000118673472385989 -0.000282033050347263 -0.00016626667286929 -0.000282322035490072 -0.000184817709464317 -0.000456615795066064 -9.09407854796929e-05 -0.000837889484650476 -9.66631261049997e-05 -8.57726743867376e-05 -6.79693025057071e-05 -0.000134067784601346 -3.07284256740785e-05 -0.000226627125083879 4.19377695385704e-05 -5.91876069695718e-05
"165" -0.000128919211183153 -0.000280230193362996 -0.000166534198718588 -0.000279832422654519 -0.00018956262710351 -0.000458986452570212 -9.51793413154434e-05 -0.000832815434411757 -0.000100231374153777 -8.92779444673659e-05 -6.90898404575818e-05 -0.000137801983306843 -3.21229385428013e-05 -0.000228060166793455 4.01346015408226e-05 -6.04063904171905e-05
"166" -0.000139143331019181 -0.000278326096704822 -0.000166610336543484 -0.00027697684031649 -0.000194321038204242 -0.000460860902282846 -9.93838997425611e-05 -0.000826973808987451 -0.000104089424538151 -9.30390487277161e-05 -7.04051214030558e-05 -0.000141341256033529 -3.34739851304239e-05 -0.000229517375467767 3.80496297068735e-05 -6.18053210971095e-05
"167" -0.000149342840059138 -0.000276324281396355 -0.000166532778579109 -0.000273778489305135 -0.000199082459816142 -0.000462238190360372 -0.000103536027461242 -0.000820375493878709 -0.00010823395814821 -9.70611715685382e-05 -7.19168312567423e-05 -0.000144679211163391 -3.47816389742921e-05 -0.000231010232737097 3.56697936503019e-05 -6.3387592885679e-05
"168" -0.000159496075289209 -0.000274232746709099 -0.000166340029267115 -0.000270262783849074 -0.000203839855830908 -0.000463108749233084 -0.00010762531792743 -0.000813007704173649 -0.00011265165841966 -0.000101321435404413 -7.36251865784146e-05 -0.000147793283520052 -3.60412729153819e-05 -0.00023255556837347 3.29964726114188e-05 -6.51559300154137e-05
"169" -0.00016960889633717 -0.000272065229072133 -0.000166073072654104 -0.000266451883247578 -0.000208596405171945 -0.000463489658694933 -0.000111645883862831 -0.00080491001530206 -0.000117334106571056 -0.000105821887081675 -7.55300063649653e-05 -0.000150688871022337 -3.72633353918057e-05 -0.000234153700230425 3.00240563881819e-05 -6.7111724016492e-05
"170" -0.000179662066553107 -0.000269827220620092 -0.000165768062522722 -0.000262384634525903 -0.000213339611153655 -0.000463385364638701 -0.00011558195517516 -0.000796084568897283 -0.000122266623134438 -0.000110542535363671 -7.7625743095806e-05 -0.000153354161360032 -3.84409866533894e-05 -0.000235824151680965 2.6751519043027e-05 -6.92576325285388e-05
"171" -0.000189650448139284 -0.000267522834516461 -0.000165464341743098 -0.000258085501064433 -0.000218066271626948 -0.000462810583826773 -0.000119418748875798 -0.000786560666535824 -0.000127433931567581 -0.00011547554589581 -7.99102633549549e-05 -0.000155785401502191 -3.95775006753089e-05 -0.000237571458726129 2.3180604430589e-05 -7.15896412681713e-05
"172" -0.000199566483519823 -0.000265168258445659 -0.000165202655333887 -0.000253588714787976 -0.000222766563429818 -0.000461779800365334 -0.000123145494048009 -0.000776368417569275 -0.000132815212931637 -0.000120602279141321 -8.23704008605307e-05 -0.000157978963033678 -4.06685128715265e-05 -0.000239402354919547 1.93200783863818e-05 -7.41046292724085e-05
"173" -0.000209400062729498 -0.000262748467446879 -0.000165011420081154 -0.000248918569768704 -0.000227424081652283 -0.000460307807352619 -0.000126734059992162 -0.000765524622437615 -0.000138391822221674 -0.00012590601737571 -8.50036427765296e-05 -0.000159932815838569 -4.17159176149252e-05 -0.000241329829991933 1.5171857381242e-05 -7.68008113999818e-05
"174" -0.000219143721934729 -0.000260284237062902 -0.000164933596015399 -0.000244120613501048 -0.000232034236586228 -0.000458421728568902 -0.000130185042088285 -0.000754080158187098 -0.00014414004735886 -0.000131367812765594 -8.77929986176475e-05 -0.000161652472811061 -4.27175213883536e-05 -0.000243355574941632 1.07490123746671e-05 -7.96736246917949e-05
"175" -0.000228786623807993 -0.0002577717068402 -0.000164991779506044 -0.000239218754474517 -0.000236577815909361 -0.000456142248090091 -0.000133467158787072 -0.000742060932160334 -0.00015003768024071 -0.00013696965615346 -9.07316306081752e-05 -0.000163133302826937 -4.36692253374258e-05 -0.000245488202389748 6.0594255946339e-06 -8.27152566169887e-05
"176" -0.000238312711124459 -0.000255220827868639 -0.00016522328855033 -0.000234248365690014 -0.000241047743723855 -0.00045349495507945 -0.000136573137234634 -0.000729520284559546 -0.000156049384844228 -0.000142681310767811 -9.37939422943268e-05 -0.000164380761828451 -4.45682551136019e-05 -0.000247717371152753 1.13156477885816e-06 -8.59107364451966e-05
"177" -0.000247721042454855 -0.000252622207291909 -0.000165646951985665 -0.000229241120397474 -0.000245420877907909 -0.000450503314973915 -0.000139477748414167 -0.000716489748096737 -0.000162158644598017 -0.000148483924731829 -9.69722057428694e-05 -0.000165395967355648 -4.54108358807403e-05 -0.000250055098341422 -4.03024987008595e-06 -8.92566437771118e-05
"178" -0.000256983980846098 -0.000249987972859798 -0.000166279569152448 -0.000224227174673908 -0.000249675533151057 -0.00044719354924208 -0.000142167051036856 -0.000703022605498718 -0.000168317636168334 -0.000154346570187301 -0.000100239830088039 -0.000166179053705564 -4.61947414676907e-05 -0.000252487356261155 -9.39549105243696e-06 -9.27341075369842e-05
"179" -0.000266100226657882 -0.000247317392594748 -0.000167149525286137 -0.000219236912139741 -0.000253802522472622 -0.000443597721214762 -0.000144627800996932 -0.000689165447661672 -0.000174510250097316 -0.000160241851582819 -0.000103581769855453 -0.000166738237696966 -4.691902064336e-05 -0.000255020490670355 -1.49488874480269e-05 -9.63351451088014e-05
"180" -0.000275047391746206 -0.00024460788587855 -0.000168263821864364 -0.000214297469138452 -0.000257777539164459 -0.000439740683711896 -0.000146841259325153 -0.000674972317542515 -0.000180696287198617 -0.000166146246124338 -0.000106973909114395 -0.000167076915088301 -4.75743056138025e-05 -0.000257645416478084 -2.0659268896219e-05 -0.000100037617905372
"181" -0.000283814142280695 -0.000241854701305498 -0.000169631034116313 -0.000209435379748355 -0.000261573415053058 -0.000435654388950871 -0.000148788524784129 -0.000660484454639809 -0.00018685182265879 -0.000172025459328437 -0.000110396676373414 -0.00016720439216661 -4.81656398184042e-05 -0.000260353183220253 -2.65053537004161e-05 -0.000103829465394964
"182" -0.000292380084074431 -0.000239076421791208 -0.000171262261849965 -0.000204675190262473 -0.000265176974718527 -0.000431364300855053 -0.000150458597143956 -0.000645769389590908 -0.00019292816589192 -0.000177845910938246 -0.000113822933883625 -0.000167121274058771 -4.86824796316238e-05 -0.00026313250855578 -3.24521830722317e-05 -0.000107685276724981
"183" -0.000300726986896639 -0.000236255788097326 -0.000173147819268202 -0.000200034521417902 -0.000268554173984414 -0.000426897794580445 -0.00015183623768771 -0.000630868422105882 -0.000198900212182977 -0.00018357721528817 -0.000117230638864282 -0.000166831121079114 -4.91242319557405e-05 -0.000265969671844264 -3.8474125447231e-05 -0.00011158877941277
"184" -0.000308839618696197 -0.000233404740448394 -0.000175292058500494 -0.000195536152965245 -0.000271693967366165 -0.00042228649124879 -0.000152915121268668 -0.000615847421636165 -0.000204732867966914 -0.000189191297330633 -0.000120595367955012 -0.000166345949817075 -4.94945782454502e-05 -0.000268852141198717 -4.4538844290501e-05 -0.000115519411369717
"185" -0.000316690980804427 -0.000230521490459644 -0.000177681230851588 -0.000191196560555889 -0.000274561030599209 -0.000417547836264439 -0.000153677255224702 -0.000600748312054742 -0.000210384651644404 -0.000194641715577019 -0.000123885282104727 -0.000165664071000006 -4.97824876547871e-05 -0.000271761164248746 -5.06071784562568e-05 -0.000119448080107411
"186" -0.000324269017168722 -0.000227613673927933 -0.000180311490521403 -0.000187028407501185 -0.000277140757320248 -0.000412716045476291 -0.000154118736128614 -0.000585636329925621 -0.000215831516321938 -0.000199909187754811 -0.000127084710216047 -0.000164797044435418 -4.99928772647649e-05 -0.000274681664556812 -5.66540963461748e-05 -0.000123356702999101
"187" -0.000331545772049993 -0.000224677726284591 -0.000183156724087642 -0.000183044416301045 -0.000279401608308732 -0.000407806150086461 -0.000154231794693266 -0.000570556548353778 -0.000221031425600868 -0.000204950708104619 -0.00013016092975932 -0.000163746770853186 -5.01219937995379e-05 -0.000277593752902039 -6.26433545305198e-05 -0.000127219935087125
"188" -0.000338503285780222 -0.00022172024946958 -0.000186197466064848 -0.000179250206943756 -0.000281324259762604 -0.000402844946939449 -0.000154011112084697 -0.000555562888177226 -0.000225953527965894 -0.000209735212009888 -0.000133091472087335 -0.000162516732627079 -5.01701235304296e-05 -0.000280470329230502 -6.85362317945582e-05 -0.000131008763431716
"189" -0.000345119501606835 -0.000218747106088984 -0.000189415922462495 -0.000175654272040514 -0.000282882329624444 -0.00039784651386639 -0.000153454843733574 -0.000540707353784349 -0.000230560122836805 -0.000214227636516355 -0.000135850958184195 -0.000161112068039332 -5.01364489957429e-05 -0.000283296299673678 -7.43020733742189e-05 -0.000134700956444655
"190" -0.000351367938660839 -0.00021576584640404 -0.000192778522842682 -0.000172258259812629 -0.000284057141883122 -0.000392832119066791 -0.000152564232779411 -0.000526042473107736 -0.000234821614664355 -0.000218393287378896 -0.000138409630876696 -0.000159536324896469 -5.00174031648924e-05 -0.000286034882011365 -7.98974418292516e-05 -0.000138265177297163
"191" -0.000357230265329727 -0.000212782593620886 -0.000196261672072086 -0.00016906061103842 -0.000284824704538062 -0.000387817518446324 -0.000151339490315031 -0.000511610721557268 -0.000238706445930846 -0.000222205119181976 -0.000140748626673946 -0.000157796644726845 -4.98203149161377e-05 -0.00028867528614975 -8.52984297444384e-05 -0.000141680686692542
"192" -0.000362687536904564 -0.000209805196358549 -0.000199826311224848 -0.000166061920665067 -0.000285169095861445 -0.000382814202887494 -0.000149782415245482 -0.000497461594890142 -0.000242191340252175 -0.000225630623161714 -0.000142846122954316 -0.0001558925427296 -4.95432740147571e-05 -0.000291186325532972 -9.04666382622353e-05 -0.000144920787187091
"193" -0.000367718008262155 -0.000206847882468548 -0.000203442631786166 -0.000163257072404692 -0.000285067745432501 -0.000377836854873279 -0.000147908508859699 -0.000483641192921052 -0.000245236058118548 -0.00022863540824736 -0.000144671758592095 -0.000153831432895646 -4.91860227290396e-05 -0.000293536546677103 -9.53684319339762e-05 -0.000147956805989138
"194" -0.000372305573618666 -0.000203918567813871 -0.000207072604254252 -0.000160637911151161 -0.000284508277558886 -0.000372894853404077 -0.000145718264797197 -0.000470185736045794 -0.000247824825919904 -0.000231198983107826 -0.000146214605373683 -0.000151614709894349 -4.8758332703525e-05 -0.000295706805182866 -9.99795856027709e-05 -0.000150768829202531
"195" -0.000376423366089889 -0.000201027753875049 -0.000210680814745332 -0.000158196607411923 -0.000283474993611672 -0.000367991258237864 -0.000143226765795046 -0.000457129878320993 -0.000249929581694318 -0.000233290017761778 -0.000147450826437561 -0.000149244799307087 -4.82536306648488e-05 -0.000297668732629639 -0.000104263952405901 -0.000153332006074426
"196" -0.000380070935070301 -0.000198197598428783 -0.00021423312869674 -0.000155924883112633 -0.000281963719660928 -0.000363138853543799 -0.000140455065725516 -0.000444522909030634 -0.000251530081347597 -0.000234890497504128 -0.000148364173599894 -0.000146731246628033 -4.76831588227863e-05 -0.000299399306237571 -0.000108201533339625 -0.000155626618150841
"197" -0.00038321978807857 -0.000195433905070372 -0.000217688237467865 -0.000153805347130448 -0.000279951484805149 -0.000358331627964654 -0.000137405817299488 -0.000432379729224996 -0.000252601750200407 -0.00023596881067796 -0.000148934193314246 -0.00014406588992521 -4.70385814718404e-05 -0.000300864222220092 -0.000111757764598781 -0.000157626605828097
"198" -0.000385873013001188 -0.000192756075356484 -0.000221008521592186 -0.000151827905945956 -0.000277443528778703 -0.000353580027743799 -0.000134105820774248 -0.000420736637184085 -0.000253138203434258 -0.000236516271989537 -0.000149155760622354 -0.000141257979815452 -4.63331901586456e-05 -0.000302054127708083 -0.000114923038628992 -0.000159320909112819
"199" -0.00038801347562731 -0.000190187448144947 -0.000224161051095223 -0.000149979765015616 -0.000274436300076582 -0.000348883856478988 -0.000130579439432685 -0.000409628710720057 -0.000253111946615361 -0.000236512984172257 -0.000149007433690793 -0.000138316388683153 -4.55711334549122e-05 -0.000302931667342129 -0.000117664846366654 -0.000160686952350856
"200" -0.000389634367557574 -0.000187732528807221 -0.000227111463753516 -0.00014823855214634 -0.000270922248751305 -0.000344229424942394 -0.000126836726225286 -0.000399057997384248 -0.000252514808788326 -0.000235944245922715 -0.000148481156465897 -0.000135233818028903 -4.47440961223765e-05 -0.000303478641172992 -0.000119970992717047 -0.000161709382304344
"201" -0.000390739840046525 -0.000185425086610763 -0.000229830040257053 -0.000146596758456209 -0.000266912787465129 -0.000339628918038602 -0.000122915486662404 -0.000389056317225761 -0.000251342963074938 -0.000234805449320435 -0.000147573641160509 -0.000132022703956207 -4.38670031276908e-05 -0.000303683435677346 -0.000121832319241324 -0.000162382363820049
"202" -0.000391328836131704 -0.00018326612212911 -0.000232281677259423 -0.000145032004056344 -0.00026240448414382 -0.000335066417950764 -0.00011883241206558 -0.00037963024824586 -0.000249588546436134 -0.000233087491661177 -0.000146278168496694 -0.000128682597201551 -4.29337697650362e-05 -0.000303522502925485 -0.000123235519480394 -0.000162690983325786
"203" -0.00039140668465842 -0.000181291693532844 -0.000234446615635039 -0.000143532044859694 -0.00025741626277799 -0.000330543868626706 -0.000114616368186192 -0.000370797992446248 -0.000247244461430062 -0.000230786430641943 -0.000144588107676397 -0.000125220784446106 -4.19553443795031e-05 -0.000302975528257045 -0.00012417129299653 -0.000162631012585408
"204" -0.000390982995795149 -0.000179513157121013 -0.000236294808733163 -0.000142082609526121 -0.000251958721527252 -0.000326050618758785 -0.000110299654387706 -0.000362557766503 -0.000244311746929265 -0.000227902736506092 -0.000142503847099906 -0.00012164079937674 -4.09254035444797e-05 -0.000302036878630072 -0.00012463670787867 -0.000162196544627496
"205" -0.000390074531242695 -0.000177945015609922 -0.000237816776271624 -0.000140663458344644 -0.000246047408553371 -0.000321583378553307 -0.000105903582905633 -0.000354920591450142 -0.000240799136236043 -0.000224448519413175 -0.000140031819420285 -0.000117951355944041 -3.98527891950201e-05 -0.000300691964095041 -0.000124633269160408 -0.000161386336544997
"206" -0.00038869668993691 -0.000176606951164049 -0.000238984995216293 -0.000139264165202677 -0.000239697585939001 -0.000317125998457245 -0.000101459043959421 -0.000347873047275072 -0.000236709556772914 -0.000220425633900703 -0.000137172003714959 -0.000114155946584883 -3.87337213315586e-05 -0.000298935866669037 -0.00012416490493434 -0.000160204392354612
"207" -0.000386867376232311 -0.000175520228221999 -0.000239797117228868 -0.000137870625171247 -0.000232932475508028 -0.0003126770274024 -9.70005211410205e-05 -0.000341422832070422 -0.000232050783998873 -0.000215844783806907 -0.000133930513782482 -0.000110262824332096 -3.75708738315307e-05 -0.000296754963036697 -0.0001232336941627 -0.000158650097243317
"208" -0.000384616619842801 -0.000174700582157226 -0.000240242439601755 -0.000136472576603078 -0.000225785184596879 -0.00030822236881145 -9.25512069149237e-05 -0.000335553697026787 -0.000226833109691535 -0.00021072751631343 -0.000130314782193444 -0.000106276441121137 -3.63572310813155e-05 -0.000294148782860783 -0.000121850849698718 -0.000156732070022622
"209" -0.000381972540488162 -0.000174161259786183 -0.000240319615216787 -0.000135056513517601 -0.000218278066837189 -0.000303754639107488 -8.81426408155759e-05 -0.000330253169608457 -0.000221073910849542 -0.000205087902774324 -0.000126338899177621 -0.00010220671718572 -3.50986478999132e-05 -0.000291119478402046 -0.000120029322292211 -0.000154461825218175
"210" -0.000378975236801818 -0.000173916134337553 -0.000240034533140202 -0.000133617998768834 -0.000210442421664527 -0.000299267385264631 -8.38102096800228e-05 -0.000325514796598899 -0.000214794448552424 -0.000198956218278875 -0.000122016344179926 -9.80693838083433e-05 -3.37942170450523e-05 -0.000287671371759226 -0.000117789417498715 -0.00015185198463801
"211" -0.000375658988880802 -0.000173978642968364 -0.000239390271621166 -0.000132149991220663 -0.000202318877353361 -0.000294753615653264 -7.95789484203402e-05 -0.00032131281256586 -0.000208013030615222 -0.000192357942205766 -0.000117362401057339 -9.38714605214642e-05 -3.24376622690123e-05 -0.000283806039485307 -0.000115149075993115 -0.000148918568980702
"212" -0.000372069393076407 -0.000174353169453016 -0.000238402862527075 -0.000130639547939507 -0.000193937222948996 -0.000290197435585897 -7.54716292226415e-05 -0.000317624987003175 -0.000200755627876879 -0.000185321272326558 -0.000112394675362579 -8.96212769255036e-05 -3.10266063382721e-05 -0.000279536057206852 -0.000112131945005527 -0.000145675777495058
"213" -0.000368240456873264 -0.000175057771301413 -0.000237086141661052 -0.000129095033362249 -0.000185335346745952 -0.000285594970676322 -7.15191295707976e-05 -0.000314427909253809 -0.00019304427635553 -0.000177877036151747 -0.000107129724338531 -8.5326925548586e-05 -2.95528376258174e-05 -0.000274866943395982 -0.000108757775885911 -0.000142146871539662
"214" -0.000364236944653122 -0.000176088618001085 -0.000235464652989924 -0.000127511964216593 -0.00017656046333222 -0.000280941387093102 -6.77474059790661e-05 -0.000311698512025499 -0.000184913438364019 -0.000170067298721103 -0.000101595367659034 -8.10119641568972e-05 -2.80217577332844e-05 -0.000269817548758792 -0.000105060141354996 -0.000138354392222582
"215" -0.000360101097807826 -0.00017744609645838 -0.000233557911682267 -0.000125889630012013 -0.000167644259294646 -0.000276226158926527 -6.4174171214156e-05 -0.000309398525072058 -0.000176393926557355 -0.000161930717092792 -9.58104576837633e-05 -7.6680579482411e-05 -2.64167553478235e-05 -0.00026440550833168 -0.000101068103123291 -0.000134320340464892
"216" -0.000355884272323363 -0.000179141477251956 -0.000231400120198057 -0.000124233930498175 -0.000158639950382119 -0.000271444916323987 -6.08273799766741e-05 -0.000307504777137765 -0.000167514146559922 -0.000153505230856576 -8.97997678724431e-05 -7.23524475579392e-05 -2.47393139200434e-05 -0.000258650616986588 -9.6811918599214e-05 -0.000130073489971387
"217" -0.000351650788740656 -0.000181162645520857 -0.000229023266641478 -0.000122549744643942 -0.00014959070574913 -0.000266594768522902 -5.77272238670123e-05 -0.000305980169173912 -0.000158318692354225 -0.000144842212277858 -8.35930328990585e-05 -6.80408039962011e-05 -2.29836409956325e-05 -0.000252573208269811 -9.23297820555405e-05 -0.000125641058034468
"218" -0.000347453947648139 -0.000183506435305006 -0.000226461145715189 -0.000120838798049085 -0.000140534107262433 -0.000261670348041216 -5.48887948756248e-05 -0.000304788459616622 -0.000148841108063994 -0.000135979269071852 -7.7216548857511e-05 -6.37559631712318e-05 -2.11408356531522e-05 -0.000246197870265106 -8.7653673046676e-05 -0.000121049304043195
"219" -0.000343348042404231 -0.000186175164785987 -0.000223754873074086 -0.000119120775377942 -0.000131525102138609 -0.00025667106118819 -5.23306759598438e-05 -0.000303898364140363 -0.00013911616348229 -0.000126968070217936 -7.06958151520483e-05 -5.95205408787115e-05 -1.92033467318398e-05 -0.000239548404138715 -8.28184541893646e-05 -0.000116331985010286
"220" -0.000339397882873487 -0.000189137522931231 -0.000220943930440375 -0.000117398983401848 -0.000122599062808452 -0.000251592210249538 -5.006349906102e-05 -0.000303259912657556 -0.000129191633519929 -0.000117858960576486 -6.40646787062798e-05 -5.53457220679212e-05 -1.7168711360602e-05 -0.000232659597116155 -7.78667063407358e-05 -0.000111516015744118
"221" -0.000335656706145448 -0.000192400154807141 -0.00021807095249947 -0.000115691974535257 -0.000113807002549836 -0.000246436223221587 -4.81021112230326e-05 -0.000302851075164268 -0.000119103936376946 -0.000108693305118715 -5.73481275719555e-05 -5.12505809890047e-05 -1.50267667031589e-05 -0.000225557558109892 -7.28320325742443e-05 -0.000106631594741938
"222" -0.000332186876193217 -0.00019593588798892 -0.000215181880655931 -0.000114007884360007 -0.000105194424906738 -0.000241202986434409 -4.64589746321207e-05 -0.000302622785624387 -0.00010890008512507 -9.95264246914166e-05 -5.05831163928713e-05 -4.72528102943167e-05 -1.27736740710762e-05 -0.000218271795358731 -6.77534238946922e-05 -0.000101712615184583
"223" -0.000329037042348283 -0.000199725756345593 -0.000212319017620648 -0.00011236531467121 -9.67989283726152e-05 -0.000235893658382153 -4.51341397581662e-05 -0.000302536498070887 -9.86246750287431e-05 -9.04068090899137e-05 -4.37965102400486e-05 -4.33638988846676e-05 -1.04025143339558e-05 -0.000210841908722597 -6.26710981134247e-05 -9.67895423451211e-05
"224" -0.000326269607172923 -0.000203750901298375 -0.00020952520704704 -0.000110782517447824 -8.86636646478305e-05 -0.000230515438697802 -4.41368555525624e-05 -0.000302557326341272 -8.83182997494116e-05 -8.13863635991048e-05 -3.70209315764956e-05 -3.96102374561528e-05 -7.91337347057126e-06 -0.000203295607112258 -5.76192690365238e-05 -9.18892226452064e-05
"225" -0.000323931351546009 -0.000207983287253686 -0.000206846423600932 -0.000109269096444758 -8.08284897766714e-05 -0.000225067224116934 -4.34718779963415e-05 -0.00030264363793962 -7.80320452481753e-05 -7.2508005430319e-05 -3.0288917784917e-05 -3.59992772568959e-05 -5.2980239681914e-06 -0.000195670331969882 -5.26411667203001e-05 -8.70456077534269e-05
"226" -0.000322069283595768 -0.000212403643598742 -0.000204328927606748 -0.000107849128116347 -7.33335855592163e-05 -0.000219558756281867 -4.31384477066426e-05 -0.000302761972788038 -6.78028745826004e-05 -6.38215171608051e-05 -2.36264959869791e-05 -3.25535964076854e-05 -2.5559652295129e-06 -0.000188000621855761 -4.77653582501878e-05 -8.22831604015208e-05
"227" -0.000320734277816248 -0.000216975471198991 -0.000202007885850731 -0.00010654105874355 -6.62136485856295e-05 -0.000213995240957844 -4.31352683631756e-05 -0.000302871156273166 -5.76864911297081e-05 -5.53736584796364e-05 -1.70726857743234e-05 -2.92901195028344e-05 3.12825816469584e-07 -0.000180327051476953 -4.30342065936685e-05 -7.76330339769675e-05
"228" -0.000319964388589074 -0.000221671420769391 -0.000199926306177288 -0.00010535707933279 -5.94997090736296e-05 -0.000208382414656008 -4.34619760381666e-05 -0.000302936651773892 -4.77221891373343e-05 -4.72067761653167e-05 -1.0649695661945e-05 -2.62193368368543e-05 3.31161101236282e-06 -0.00017267678333175 -3.84748082954608e-05 -7.31170342635367e-05
"229" -0.000319790163558507 -0.000226471269681 -0.000198119939493627 -0.000104321000400464 -5.32220391213522e-05 -0.000202727712150617 -4.41161546964038e-05 -0.00030293103738075 -3.79457352022816e-05 -3.93591317389255e-05 -4.38513555072177e-06 -2.33604825956827e-05 6.43701533568289e-06 -0.00016508671510714 -3.41188115938073e-05 -6.87602488541564e-05
"230" -0.000320247855651559 -0.000231318850045228 -0.000196618761382219 -0.000103443211821054 -4.7408684773141e-05 -0.000197041224200002 -4.50807938488077e-05 -0.000302808605243444 -2.84159930718294e-05 -3.18769350152081e-05 1.68564871354666e-06 -2.07293185040225e-05 9.68652901279034e-06 -0.000157595633406977 -2.9999534106121e-05 -6.45815398182703e-05
"231" -0.000321364475690597 -0.000236201734837669 -0.000195455438924614 -0.000102747273188186 -4.20911625531318e-05 -0.000191334494759977 -4.63598896308553e-05 -0.000302552057494752 -1.91638703234261e-05 -2.47914861066161e-05 7.54063157845853e-06 -1.83404609676436e-05 1.30559906604701e-05 -0.000150230627109669 -2.61413582051253e-05 -6.06045735481258e-05
"232" -0.00032315189957753 -0.0002410777808001 -0.000194652953830985 -0.000102241562099371 -3.72749555012628e-05 -0.000185609020899622 -4.7940724335488e-05 -0.000302123923597797 -1.02378799980394e-05 -1.81328497455938e-05 1.3154018770021e-05 -1.62054119073353e-05 1.65383931510654e-05 -0.000143034485222168 -2.25697806511073e-05 -5.68463805876647e-05
"233" -0.000325629463812575 -0.00024591635389711 -0.000194229125528431 -0.000101945570130375 -3.2992461573991e-05 -0.000179885259074142 -4.98127808618323e-05 -0.000301505898885697 -1.66944603898551e-06 -1.19382446894674e-05 1.8500643353235e-05 -1.43368855040113e-05 2.01252461369115e-05 -0.000136025835338324 -1.93068224722058e-05 -5.33165260409261e-05
"234" -0.000328803131829016 -0.000250672857533847 -0.00019420838388859 -0.000101869433068219 -2.92444619746552e-05 -0.000174169144321893 -5.19655991514282e-05 -0.000300661806763743 6.49389653179169e-06 -6.23195103091791e-06 2.35589020363196e-05 -1.27478298768577e-05 2.38065227227491e-05 -0.000129242877109771 -1.63715904192729e-05 -5.00329793468267e-05
"235" -0.000332674410032323 -0.000255321118901719 -0.000194589358654982 -0.000102021736316851 -2.60525217869809e-05 -0.000168469420160037 -5.43834402407314e-05 -0.000299580961942085 1.42214223707793e-05 -1.03441662181385e-06 2.83062977484386e-05 -1.14449213092964e-05 2.75702168214188e-05 -0.000122714397247366 -1.37837241822046e-05 -4.70021254401012e-05
"236" -0.00033722999274771 -0.000259827846442759 -0.000195383369992766 -0.000102413707335517 -2.34174971040029e-05 -0.000162796887961966 -5.70608030324909e-05 -0.000298237529620982 2.14822244827408e-05 3.63804439442079e-06 3.27277041162888e-05 -1.04405443333124e-05 3.14030371325574e-05 -0.000116461518649807 -1.15504502987489e-05 -4.4228471416309e-05
"237" -0.00034246292812823 -0.000264152976266229 -0.000196583340702002 -0.000103049893451443 -2.13343156622831e-05 -0.000157159175394448 -5.99765724038679e-05 -0.000296612883796318 2.8239860987832e-05 7.76823881836867e-06 3.68065703211315e-05 -9.73641013849351e-06 3.52915376294355e-05 -0.000110510745300008 -9.686135283285e-06 -4.17183146288895e-05
"238" -0.000348353879681582 -0.000268276545353608 -0.000198188803193445 -0.000103938129620839 -1.9819938146263e-05 -0.000151576358043478 -6.31234935950216e-05 -0.000294702372721354 3.44612220919592e-05 1.13436373133774e-05 4.05226244440279e-05 -9.34939428448829e-06 3.92136901418406e-05 -0.000104887278975327 -8.19877975405498e-06 -3.9474084731499e-05
"239" -0.000354872005152694 -0.000272159233288985 -0.000200185680421719 -0.00010508029793723 -1.88565120156681e-05 -0.000146050773508784 -6.64840821412988e-05 -0.000292485645572307 4.01274420015879e-05 1.43601794415429e-05 4.38681323350123e-05 -9.27383788211465e-06 4.3152388807663e-05 -9.96078743934944e-05 -7.09408694521648e-06 -3.74934974652704e-05
"240" -0.000361982677626009 -0.000275785424555817 -0.000202555263932133 -0.000106474650660875 -1.84437608256583e-05 -0.000140593751045593 -7.00500779394996e-05 -0.000289963282033741 4.52109870168577e-05 1.68201029438116e-05 4.6831468323326e-05 -9.5167403574089e-06 4.7084552914341e-05 -9.46896849571911e-05 -6.37241536697397e-06 -3.57704892052541e-05
"241" -0.00036964951795414 -0.000279117062350954 -0.000205274877289646 -0.000108118115115173 -1.85667976596373e-05 -0.000135213308475428 -7.37994415453043e-05 -0.000287119816321113 4.96900297068294e-05 1.87145230168828e-05 4.94059455929692e-05 -1.00790735278929e-05 5.09942381518105e-05 -9.01484140470061e-05 -6.02859481732784e-06 -3.42982550027341e-05
"242" -0.000377821152478646 -0.000282133271464215 -0.00020831307365915 -0.000110010158032234 -1.9210612223919e-05 -0.000129919908558335 -7.77207313388599e-05 -0.000283957028259812 5.35516215950295e-05 2.00616373403682e-05 5.15855408109108e-05 -1.09590000347151e-05 5.48549712564105e-05 -8.59968809106613e-05 -6.06139132066971e-06 -3.30686947789859e-05
"243" -0.000386456156478076 -0.000284819714283577 -0.000211640870385496 -0.000112137145069517 -2.03643614746543e-05 -0.000124726140009358 -8.18044231447483e-05 -0.000280476019459349 5.67730171424106e-05 2.08589369755827e-05 5.33649527343375e-05 -1.21616901858572e-05 5.86367059722607e-05 -8.22469227931234e-05 -6.465913841331e-06 -3.20691629257847e-05
"244" -0.000395490558647668 -0.000287158105308282 -0.000215214083772522 -0.000114495798838459 -2.20000540918817e-05 -0.000119635338559311 -8.60360487026078e-05 -0.000276675521068735 5.93461473823322e-05 2.11291794461611e-05 5.47434326602982e-05 -1.36746891520419e-05 6.2318629166724e-05 -7.89086518559051e-05 -7.23331548903737e-06 -3.12900034565271e-05
"245" -0.000404862154054853 -0.000289130731873351 -0.000218991035544709 -0.000117068560125795 -2.40989122612584e-05 -0.000114659584675592 -9.04008921966104e-05 -0.000272567313452121 6.12666955729399e-05 2.08882609923811e-05 5.5725787654908e-05 -1.54940971303511e-05 6.58748653918012e-05 -7.59788860647627e-05 -8.34498323083128e-06 -3.07083204444607e-05
"246" -0.000414509679053201 -0.000290724396884505 -0.000222924127178045 -0.000119842893911885 -2.66378614032079e-05 -0.000109802415281249 -9.48831614868543e-05 -0.000268147472459173 6.25212869320099e-05 2.01536504594612e-05 5.63120245763516e-05 -1.76187421261312e-05 6.92795050495254e-05 -7.34673604846857e-05 -9.79050544809986e-06 -3.03135738757485e-05
"247" -0.000424355505578576 -0.000291937993709007 -0.000226962644770116 -0.000122804216722015 -2.95870163888963e-05 -0.000105074996349069 -9.94774145820544e-05 -0.00026343875386104 6.31163183040653e-05 1.89532306064796e-05 5.65113205663298e-05 -2.00350914144775e-05 7.25018955795616e-05 -7.13743129651105e-05 -1.15551937752252e-05 -3.00838736818609e-05
"248" -0.000434336140387054 -0.00029275806040675 -0.000231050483352258 -0.00012593071874373 -3.2917999847024e-05 -0.000100483315909094 -0.000104168497651529 -0.000258446897909016 6.30439335348844e-05 1.73077325755898e-05 5.63251355861094e-05 -2.273562012804e-05 7.55141802266466e-05 -6.9695312216077e-05 -1.36202608434507e-05 -3.00005813138534e-05
"249" -0.000444364098742263 -0.000293184493956972 -0.000235133748485431 -0.000129202106365847 -3.66011953555972e-05 -9.60305105629235e-05 -0.000108942734379662 -0.000253184324010034 6.23171234304926e-05 1.5254055343541e-05 5.57724272110298e-05 -2.57049209603204e-05 7.82944199535135e-05 -6.84325988657808e-05 -1.59626629238892e-05 -3.00430504367909e-05
"250" -0.000454371287292202 -0.000293228009471491 -0.000239156205374171 -0.000132601275876488 -4.06024397814757e-05 -9.17273012465298e-05 -0.000113794861639956 -0.000247678407316703 6.09455281498105e-05 1.28197342791103e-05 5.48609989074906e-05 -2.8936674367149e-05 8.08131675836392e-05 -6.75705117785134e-05 -1.85618471248055e-05 -3.01871675543294e-05
"251" -0.000464279528190043 -0.000292883409141335 -0.000243053500325731 -0.000136101908790124 -4.48920979720849e-05 -8.75818970080374e-05 -0.000118714468069737 -0.000241941827626927 5.89349054093479e-05 1.00387919025998e-05 5.36055736118471e-05 -3.24124331953884e-05 8.30468450737281e-05 -6.71082353801996e-05 -2.13996963440772e-05 -3.04144749455632e-05
"252" -0.000474008420701809 -0.000292163758265255 -0.000246767721981971 -0.00013967985202406 -4.9433392484132e-05 -8.35962852636843e-05 -0.00012368734565052 -0.000235993441014051 5.62991416323515e-05 6.94574083712918e-06 5.20190212023336e-05 -3.61170681975857e-05 8.49668892969365e-05 -6.70384388778035e-05 -2.44501457068413e-05 -3.0706875151499e-05
"253" -0.000483474645495464 -0.000291083864650047 -0.000250233980855875 -0.000143306801918433 -5.41929754754871e-05 -7.97757981599139e-05 -0.000128709343689074 -0.000229862996001429 5.30640320175997e-05 3.58086248246925e-06 5.01235303547307e-05 -4.00355850592461e-05 8.65568464655113e-05 -6.73405509630358e-05 -2.76885281084784e-05 -3.10327142396038e-05
"254" -0.000492602283907308 -0.000289655575629252 -0.000253390883109467 -0.000146955895734931 -5.9135329628562e-05 -7.61273941730284e-05 -0.000133768997601727 -0.000223566801924224 4.92521403709933e-05 -1.61767978357504e-08 4.79408271962481e-05 -4.41429868018228e-05 8.7794457149538e-05 -6.80051001603196e-05 -3.10881312418068e-05 -3.13759500803415e-05
"255" -0.000501315636811132 -0.000287896257848004 -0.000256185203091406 -0.000150606401292802 -6.42325245742228e-05 -7.26566586195845e-05 -0.000138861295941054 -0.00021713622013365 4.48832687795031e-05 -3.81247863751968e-06 4.54882269503286e-05 -4.8426755704138e-05 8.8663143711713e-05 -6.90131557000332e-05 -3.46258380739831e-05 -3.17149879961091e-05
"256" -0.000509542297031091 -0.00028582749765247 -0.000258555514997671 -0.000154229908304043 -6.94419031824656e-05 -6.93725822793124e-05 -0.000143974130721455 -0.000210597934108707 3.99820050270551e-05 -7.76694108701732e-06 4.27854998357005e-05 -5.28678179224196e-05 8.9144575135453e-05 -7.03590242063594e-05 -3.82796798162629e-05 -3.20329569111357e-05
"257" -0.000517205628456292 -0.000283468532864323 -0.000260437569173196 -0.000157793526043063 -7.47288896542496e-05 -6.62693061281303e-05 -0.000149097726090809 -0.000203971961772094 3.45889006398063e-05 -1.18377000925548e-05 3.98636287221097e-05 -5.74374197422448e-05 8.92304256839318e-05 -7.20127086072525e-05 -4.20189905479716e-05 -3.23058602817156e-05
"258" -0.000524250958255229 -0.000280851879516705 -0.000261796019635193 -0.000161278571392746 -8.00725968616348e-05 -6.33694700330796e-05 -0.000154233785584066 -0.000197305114120733 2.87303586303853e-05 -1.59951888699982e-05 3.67394252509002e-05 -6.21252429649636e-05 8.89000289189529e-05 -7.39580587374748e-05 -4.582458427607e-05 -3.2522575467162e-05
"259" -0.00053060207857772 -0.000278002151952392 -0.000262568580116282 -0.000164655204539429 -8.54317818459247e-05 -6.06652991146896e-05 -0.000159367862080735 -0.000190610388833674 2.24459020651117e-05 -2.01926038175633e-05 3.34427188998752e-05 -6.69023827672149e-05 8.81596202711004e-05 -7.61765287287264e-05 -4.96723990825829e-05 -3.26626508903808e-05
"260" -0.000536211376864061 -0.000274945393733383 -0.000262710064711337 -0.000167902649018682 -9.07786106507635e-05 -5.81719088147929e-05 -0.000164492676479543 -0.000183928229496407 1.57706327204786e-05 -2.4400456912237e-05 2.99984674662673e-05 -7.17505055578282e-05 8.69982576606712e-05 -7.86427241318322e-05 -5.35350157416526e-05 -3.27126166113759e-05
"261" -0.000541023307088111 -0.00027172401324992 -0.000262189084604315 -0.000170999069664758 -9.60828926912194e-05 -5.58869021098252e-05 -0.000169605296168121 -0.000177289064842892 8.75064972487398e-06 -2.85802583405743e-05 2.64348523215271e-05 -7.66448309602511e-05 8.54221359230202e-05 -8.13325682273355e-05 -5.73948967157557e-05 -3.2662028857693e-05
"262" -0.000544986469122344 -0.000268356928895283 -0.000260956960596636 -0.000173912283716915 -0.000101317406274688 -5.3819095193933e-05 -0.000174694085407625 -0.000170714949387792 1.42160878978313e-06 -3.2703160264969e-05 2.27750715419701e-05 -8.15654493905848e-05 8.34283618721479e-05 -8.42246338091777e-05 -6.12318787115322e-05 -3.25003273576027e-05
"263" -0.000548064893019756 -0.000264881036927447 -0.000258988723584765 -0.000176627632617837 -0.000106458012225981 -5.19732493079019e-05 -0.000179748641133108 -0.000164242298248706 -6.16860856113461e-06 -3.67339000255684e-05 1.90471092778696e-05 -8.64872903084432e-05 8.10332035670733e-05 -8.72895326057511e-05 -6.50208873822692e-05 -3.22168366011619e-05
"264" -0.000550218064777479 -0.000261334510475065 -0.000256250405348212 -0.000179126196703001 -0.000111478227846976 -5.03495645058305e-05 -0.000184766234167894 -0.000157893171045893 -1.39694798037882e-05 -4.06428459737369e-05 1.52807091443171e-05 -9.13859037555711e-05 7.82469283357718e-05 -9.05028527650002e-05 -6.87479761626989e-05 -3.18072884035745e-05
"265" -0.000551432196339689 -0.000257747446577737 -0.000252734156706647 -0.000181393032655558 -0.000116358184893559 -4.89617733650596e-05 -0.000189737341298982 -0.000151712075019428 -2.19441739471926e-05 -4.44152859907155e-05 1.14965848729892e-05 -9.62477800365322e-05 7.5080698906067e-05 -9.38390536235099e-05 -7.23968313446473e-05 -3.12703657978502e-05
"266" -0.000551677303565134 -0.000254150717169283 -0.000248418677369891 -0.000183409145125875 -0.000121073572762539 -4.78085029461439e-05 -0.000194654556691883 -0.000145715969285738 -3.00406103673355e-05 -4.80158116883507e-05 7.72538313735006e-06 -0.000101044319711962 7.15570359706903e-05 -9.72654515421922e-05 -7.59489815114087e-05 -3.05995216116295e-05
"267" -0.000550941977398651 -0.00025058626064017 -0.000243296385937507 -0.000185165979083135 -0.000125614494400424 -4.68964059956745e-05 -0.000199510374198241 -0.000139933067704167 -3.82122664035117e-05 -5.14344969240063e-05 3.98835088268056e-06 -0.000105761244623067 6.770109097591e-05 -0.000100758925959245 -7.93943125059892e-05 -2.98008005357353e-05
"268" -0.000549223516328077 -0.000247073147688224 -0.000237361617710972 -0.000186648678895935 -0.000129956925236849 -4.62286973799673e-05 -0.000204286845256102 -0.000134388666571347 -4.6414328174284e-05 -5.46484928015187e-05 3.11231113116e-07 -0.000110373516951071 6.35372112997578e-05 -0.000104290458731589 -8.27211396255466e-05 -2.88728267730211e-05
"269" -0.000546516721293091 -0.000243657879901312 -0.000230626922432161 -0.000187853471906162 -0.000134089617963516 -4.58057711081135e-05 -0.00020898675185722 -0.000129117621090512 -5.45914204783704e-05 -5.76448926971991e-05 -3.28015138970208e-06 -0.000114867157274457 5.90974915285422e-05 -0.000107825034072757 -8.59133186292987e-05 -2.78205218869981e-05
"270" -0.000542838097052936 -0.000240353030316567 -0.000223093602808512 -0.000188763443120071 -0.00013800497708541 -4.56314354064513e-05 -0.000213590126009492 -0.000124125541117945 -6.27088659717467e-05 -6.04176249708779e-05 -6.77383751470227e-06 -0.000119220767144442 5.44120620980931e-05 -0.000111342504408724 -8.8969596361967e-05 -2.66544115137038e-05
"271" -0.00053819110892725 -0.000237195925252312 -0.000214776804610638 -0.000189387153596489 -0.000141679504561611 -4.57040463500078e-05 -0.000218090025675026 -0.000119438763854067 -7.07070203745235e-05 -6.29528032183689e-05 -1.01340533348297e-05 -0.000123413057314909 4.95250516358199e-05 -0.000114801744447157 -9.18764997643333e-05 -2.53765522618415e-05
"272" -0.000532611434062928 -0.00023421607887574 -0.000205712375805479 -0.000189720550319474 -0.000145123868910857 -4.60354468378465e-05 -0.000222479299704405 -0.000115089912349825 -7.8553191091227e-05 -6.52527834283534e-05 -1.3356446119294e-05 -0.000127443126992604 4.44611416181758e-05 -0.0001181857537951 -9.46351352244787e-05 -2.40060732555377e-05
"273" -0.000526116038199987 -0.000231426990596172 -0.000195910516830652 -0.000189759100656276 -0.000148312489996791 -4.66122471731083e-05 -0.000226739007599788 -0.000111077872803418 -8.62007199579183e-05 -6.73171057426728e-05 -1.64162576931564e-05 -0.000131283009966926 3.92707459693129e-05 -0.000121465301278347 -9.72376141506211e-05 -2.2549126044776e-05
"274" -0.000518738881765432 -0.000228853234370895 -0.00018541468112454 -0.000189506781246057 -0.000151255481546615 -4.74405837055726e-05 -0.000230864874146039 -0.000107422184376805 -9.36081902712284e-05 -6.9142742514983e-05 -1.93013445854848e-05 -0.00013492767166643 3.39910477694781e-05 -0.000124607517485218 -9.96855080273335e-05 -2.10232479337015e-05
"275" -0.000510525402277698 -0.000226514251410318 -0.000174263498800899 -0.000188972062438088 -0.000153944898630964 -4.85225389494323e-05 -0.000234843459900923 -0.000104143127538958 -0.000100738886080215 -7.07433097675771e-05 -2.19986568233795e-05 -0.000138368131136971 2.86621285250398e-05 -0.000127585767931571 -0.000101976680297664 -1.94412220030026e-05
"276" -0.000501507901211706 -0.000224423633071176 -0.000162492786421117 -0.000188155331214988 -0.000156379196208203 -4.98451860637184e-05 -0.000238657310324612 -0.00010123700838423 -0.000107557641049643 -7.21214193246159e-05 -2.44953392852034e-05 -0.000141586573329262 2.33310188254239e-05 -0.000130379879644505 -0.000104114415137985 -1.78219520046124e-05
"277" -0.000491740592144735 -0.00022258308312666 -0.000150155386889141 -0.000187070257772184 -0.000158554283514409 -5.14108400495097e-05 -0.000242298986922897 -9.87127277802351e-05 -0.000114030565071565 -7.32916665521609e-05 -2.67853597307623e-05 -0.000144582043013685 1.80361230107072e-05 -0.000132961459436389 -0.000106100332921868 -1.61828365288904e-05
"278" -0.000481268857256002 -0.000221016971155264 -0.000137297358916536 -0.000185721283677926 -0.000160477021244161 -5.32148657402937e-05 -0.000245757348472253 -9.65768173839887e-05 -0.00012012941003051 -7.42650517889252e-05 -2.88589898677588e-05 -0.000147347581999902 1.28219340976818e-05 -0.000135302838954183 -0.000107936122530334 -1.45399416822823e-05
"279" -0.000470146372936319 -0.00021972363092251 -0.000123978463029598 -0.000184124429896342 -0.000162148437172707 -5.52464649483359e-05 -0.000249016653548087 -9.48318131469491e-05 -0.000125820741238183 -7.50594522871324e-05 -3.07131000353734e-05 -0.000149877101227805 7.72716122710608e-06 -0.00013738804823976 -0.000109630484627096 -1.29139840440749e-05
"280" -0.000458430467770542 -0.000218700018234001 -0.000110247719923037 -0.000182285602751993 -0.000163571637828468 -5.75054723528146e-05 -0.000252069678096946 -9.34718640468576e-05 -0.000131095221531468 -7.56961479602171e-05 -3.23455738445776e-05 -0.000152171909893541 2.78932370946715e-06 -0.000139196030057445 -0.000111189081959964 -1.13252652855602e-05
"281" -0.000446168941625899 -0.000217948367362 -9.61660895883761e-05 -0.000180220470054643 -0.000164745654887227 -5.99746640496457e-05 -0.000254895133868031 -9.24857540944898e-05 -0.000135923371163358 -7.61882639283149e-05 -3.37546371090425e-05 -0.000154224128905469 -1.94713143679097e-06 -0.000140702913276789 -0.000112617082306905 -9.78953351350317e-06
"282" -0.000433428073581806 -0.0002174613229791 -8.17994155725462e-05 -0.000177943776450366 -0.000165687478981811 -6.26521529372641e-05 -0.000257493595591492 -9.18762083011762e-05 -0.000140294222392654 -7.65635180851944e-05 -3.49450703116556e-05 -0.000156046838408762 -6.45430378852773e-06 -0.000141900877447875 -0.000113925804398838 -8.33011827024627e-06
"283" -0.000420259590347817 -0.000217234032232017 -6.72057491084832e-05 -0.000175466961259439 -0.000166395136244091 -6.55244669285292e-05 -0.000259846376880123 -9.1626018358956e-05 -0.000144195098566944 -7.68404503050139e-05 -3.59173443696285e-05 -0.000157634480430841 -1.06982685795391e-05 -0.000142770098426836 -0.000115126469160755 -6.96654561920201e-06
"284" -0.000406718690031954 -0.000217244355530874 -5.24362378049946e-05 -0.000172800750419317 -0.000166866448495419 -6.85729651532922e-05 -0.000261936523459697 -9.17173915178214e-05 -0.000147615080712003 -7.70438761887955e-05 -3.6679886915947e-05 -0.000158989639013682 -1.46455690807852e-05 -0.000143298338801988 -0.000116221495941411 -5.71404068801283e-06
"285" -0.000392860276887435 -0.000217483910571949 -3.75656833751614e-05 -0.000169966970766018 -0.000167119561613548 -7.17943235828802e-05 -0.000263765090526761 -9.21408280210841e-05 -0.000150555229987388 -7.71988829418165e-05 -3.72365995348463e-05 -0.000160126442792014 -1.82752327413061e-05 -0.00014347401308566 -0.000117224745289526 -4.59285021827035e-06
"286" -0.000378738502496917 -0.000217933581702299 -2.26429498041659e-05 -0.000166971628839732 -0.000167150627031885 -7.51672521609513e-05 -0.000265312402633433 -9.28686068561736e-05 -0.000153009825986364 -7.73244591355134e-05 -3.75995420755891e-05 -0.000161046300124864 -2.15644066320859e-05 -0.000143289660124448 -0.000118145522215515 -3.61878338493586e-06
"287" -0.000364398954456407 -0.000218571678754766 -7.72706328093158e-06 -0.000163828302031503 -0.000166967686834068 -7.86775525489436e-05 -0.000266573795597057 -9.38822904608721e-05 -0.000154982415436194 -7.74502654019349e-05 -3.7778906665169e-05 -0.000161759144031532 -2.44923964270208e-05 -0.00014274405313273 -0.000118995836549979 -2.81180108571471e-06
"288" -0.000349893290597746 -0.000219373662519608 7.11865541508988e-06 -0.000160557508473536 -0.000166576001744152 -8.23111098009794e-05 -0.000267539931723533 -9.51549911638786e-05 -0.000156480560940568 -7.75965982103907e-05 -3.77858884278481e-05 -0.000162278527831012 -2.70467410929323e-05 -0.000141832036099327 -0.000119784476567225 -2.18457087694516e-06
"289" -0.000335262613780226 -0.000220314582233865 2.18460422321215e-05 -0.000157164210381084 -0.000165983945855198 -8.60487123755076e-05 -0.000268206668692673 -9.6667442813125e-05 -0.00015751015583128 -7.77871930910317e-05 -3.76312974241899e-05 -0.000162619950197375 -2.92177082813444e-05 -0.000140542967098008 -0.000120515751824314 -1.74793626464242e-06
"290" -0.00032054731604664 -0.000221353734153678 3.64092216535771e-05 -0.000153653482038598 -0.000165184034656454 -8.98679238270936e-05 -0.000268553919148628 -9.83731049045408e-05 -0.00015809154946592 -7.80434353184698e-05 -3.73338734061406e-05 -0.000162787247245015 -3.0998210165212e-05 -0.000138889482704795 -0.000121204071634481 -1.51733703119852e-06
"291" -0.00030578173810577 -0.000222477775362584 5.07578428677317e-05 -0.000150048360186997 -0.000164191345107849 -9.3755965955835e-05 -0.000268590990296186 -0.000100254630184696 -0.000158228911513884 -7.83864814655113e-05 -3.69046616165732e-05 -0.000162800965651603 -3.23871132649599e-05 -0.000136872237518285 -0.000121859343931993 -1.50516205543617e-06
"292" -0.000291000028451604 -0.000223639186580997 6.48498181686827e-05 -0.000146342659081687 -0.000162998621388808 -9.76887355103456e-05 -0.000268302929420989 -0.000102275435402503 -0.000157947688898238 -7.88362701152454e-05 -3.63623162550552e-05 -0.000162676675233998 -3.33913952649762e-05 -0.000134495159999971 -0.000122483583019638 -1.71552408892813e-06
"293" -0.000276221254125347 -0.000224811447291673 7.86520781420641e-05 -0.000142550842481513 -0.000161608901744324 -0.000101643277434793 -0.000267684802252435 -0.000104393312376733 -0.000157264089970012 -7.94062953823738e-05 -3.57184588758481e-05 -0.000162424825411132 -3.40123273474154e-05 -0.00013176652381772 -0.000123088208300055 -2.15928332338605e-06
"294" -0.000261471315968438 -0.000225954333131265 9.21259109429165e-05 -0.000138676681432352 -0.000160024022470946 -0.000105597729241041 -0.000266733403813481 -0.000106574719835966 -0.000156199855794031 -8.01108630440064e-05 -3.49914231311133e-05 -0.000162064616592119 -3.42615477329235e-05 -0.000128692712193869 -0.000123676508262384 -2.8385815512682e-06
"295" -0.000246766376418147 -0.0002270336847325 0.000105249134768592 -0.000134722835074553 -0.000158242373993663 -0.000109532296516956 -0.000265449741747168 -0.000108786600684647 -0.000154776296423515 -8.09694754489394e-05 -3.41969364875375e-05 -0.000161614429152335 -3.415689245816e-05 -0.000125294471339259 -0.000124255021125822 -3.75855060936305e-06
"296" -0.000232117037837322 -0.000228015459347332 0.000117992233871144 -0.000130692084911311 -0.000156265700322471 -0.00011341919030648 -0.000263831753935254 -0.000110988678221218 -0.000153019802131146 -8.19837739343323e-05 -3.33488356480184e-05 -0.000161088407689769 -3.37181323383952e-05 -0.000121574579575429 -0.000124824305999056 -4.92085465314108e-06
"297" -0.000217529355670648 -0.000228850547888981 0.000130344021921072 -0.000126581697577186 -0.000154082658098879 -0.000117237848432743 -0.000261870417752876 -0.000113133073451457 -0.000150958311341724 -8.31705248529251e-05 -3.24646555808613e-05 -0.000160506941476177 -3.29650832520876e-05 -0.000117554280465403 -0.000125387449580883 -6.32063127254138e-06
"298" -0.000202997779432156 -0.000229511954924364 0.000142294121626879 -0.000122389505577775 -0.000151695687295951 -0.000120957852852945 -0.000259576768196916 -0.000115188113624241 -0.000148612644625472 -8.45245577027888e-05 -3.15570194913461e-05 -0.000159882118502108 -3.19236352290369e-05 -0.000113248134785119 -0.000125944235411411 -7.95841317053335e-06
"299" -0.000188528850460431 -0.000229965764369142 0.000153825863277643 -0.000118121847682099 -0.000149099852212819 -0.000124563597210354 -0.000256949950763259 -0.000117118570582288 -0.000146013149962006 -8.60562775800368e-05 -3.06408041925727e-05 -0.000159236110097957 -3.06267419970273e-05 -0.000108678490896657 -0.000126497198483473 -9.82991140396296e-06
"300" -0.000174109946908115 -0.00023016587233482 0.000164945154736508 -0.000113759776346018 -0.000146292837886523 -0.000128022157660746 -0.000253985623522677 -0.00011887162528423 -0.00014318861796188 -8.77626725718761e-05 -2.97282501064092e-05 -0.000158578849770438 -2.91009842945051e-05 -0.00010386074096968 -0.000127039775112731 -1.19252325704428e-05
"301" -0.000159720990372937 -0.00023007609912793 0.000175649389307215 -0.000109305712072548 -0.00014326128855001 -0.000131306651373211 -0.000250687372714259 -0.000120409721395896 -0.000140163084280154 -8.96400371152131e-05 -2.88313300404706e-05 -0.000157926894457937 -2.73783767905053e-05 -9.88209573881808e-05 -0.000127572318199353 -1.42387788541042e-05
"302" -0.000145359912037497 -0.000229671046787342 0.000185949618479249 -0.000104749835067608 -0.000140013522780299 -0.000134401767061553 -0.000247067353332658 -0.00012170737032617 -0.000136966639045945 -9.16834521768395e-05 -2.79649827340643e-05 -0.000157300513357598 -2.55033052875674e-05 -9.35782874345587e-05 -0.000128090875670299 -1.67579874217958e-05
"303" -0.000130994284589825 -0.000228918206673267 0.000195854911937806 -0.000100086572924943 -0.000136531182166011 -0.000137271148194268 -0.000243128068865936 -0.000122716815766147 -0.000133621118693664 -9.38773566970456e-05 -2.71313619889814e-05 -0.000156705790313244 -2.35084160703108e-05 -8.81536244238436e-05 -0.000128583323450579 -1.9470873454236e-05
"304" -0.00011661348153318 -0.00022777149687197 0.000205376872440881 -9.53031172521379e-05 -0.00013281600015182 -0.000139900612242666 -0.000238868633005243 -0.00012340523599438 -0.000130165036879924 -9.62283455251764e-05 -2.63493055707555e-05 -0.000156163705985482 -2.14354309080369e-05 -8.25805549671522e-05 -0.000129054122286407 -2.23650767061188e-05
"305" -0.000102176190163721 -0.000226218599587977 0.000214545019523125 -9.03859931940445e-05 -0.000128852761971291 -0.000142250746633483 -0.000234297955197994 -0.000123727695677595 -0.000126610802053232 -9.86981412708773e-05 -2.56150919954246e-05 -0.000155672166620329 -1.9317507319302e-05 -7.68739650936213e-05 -0.000129481473403114 -2.54240231857152e-05
"306" -8.76688788684509e-05 -0.000224224460987986 0.000223371575346054 -8.53292089506547e-05 -0.000124650351570618 -0.000144313029279744 -0.000229429622927029 -0.00012366938781189 -0.000122988863151591 -0.000101289760916476 -2.49441818214244e-05 -0.000155256763247395 -1.7205610289775e-05 -7.1069237096914e-05 -0.000129868046796249 -2.86303346199238e-05
"307" -7.30551868760777e-05 -0.00022176820370826 0.000231887855756137 -8.01182965615957e-05 -0.000120191117138759 -0.000146055852044105 -0.000224265316043934 -0.000123181508536359 -0.000119329171379639 -0.000103976715814495 -2.43386497030239e-05 -0.000154915579494516 -1.51367964217309e-05 -6.51923843823665e-05 -0.000130201426501621 -3.19714439100219e-05
"308" -5.83081140508962e-05 -0.000218829830833427 0.00024011910630197 -7.47442485739533e-05 -0.000115481076216324 -0.000147458628399979 -0.000218817003208657 -0.000122250858182593 -0.00011564306409735 -0.000106738523536693 -2.37995071254915e-05 -0.000154659912534665 -1.31485153476498e-05 -5.92620693026539e-05 -0.000130465965181825 -3.54215753634675e-05
"309" -4.33968249638526e-05 -0.000215388300189863 0.000248091046285241 -6.91938800078189e-05 -0.000110510594292462 -0.000148505171749019 -0.000213096320680227 -0.000120843429049066 -0.000111963765303349 -0.000109554898622787 -2.33311656401834e-05 -0.000154493852055353 -1.12864286299296e-05 -5.33186168205409e-05 -0.000130660981014002 -3.89681061663284e-05
"310" -2.82919617713333e-05 -0.000211434060373175 0.00025584236351288 -6.34519337708689e-05 -0.000105278843795009 -0.000149172870096605 -0.000207114972686493 -0.00011894090440476 -0.000108307527945155 -0.000112398538824289 -2.29368721243517e-05 -0.00015442432982962 -9.5881657338162e-06 -4.7382568596181e-05 -0.000130768220136406 -4.25866916953875e-05
"311" -1.29607078991744e-05 -0.000206948754853924 0.000263398380188604 -5.75118518174144e-05 -9.97870126988776e-05 -0.00014944451180902 -0.000200880667298483 -0.000116523359968687 -0.000104691690059959 -0.000115242311312993 -2.26129043636582e-05 -0.000154448682543458 -8.09085394143465e-06 -4.14844588791043e-05 -0.000130779196217506 -4.62590246943152e-05
"312" 2.62110075820468e-06 -0.000201929790387433 0.000270790256171126 -5.13623747951562e-05 -9.4036875446485e-05 -0.000149308798919335 -0.000194409939270363 -0.000113573478239284 -0.00010113934360625 -0.000118067951361597 -2.2361213424336e-05 -0.000154570801636894 -6.83125282513613e-06 -3.56530616370137e-05 -0.00013068326434973 -4.99634507152124e-05
"313" 1.84814661071024e-05 -0.000196372679548559 0.000278053926049232 -4.49938794804532e-05 -8.80233204989196e-05 -0.000148749634054653 -0.000187715289618708 -0.000110082883063248 -9.76637168378535e-05 -0.000120841185085479 -2.21782872989947e-05 -0.000154795819996181 -5.84841513761657e-06 -2.99219750575666e-05 -0.000130471576547501 -5.36795763693001e-05
"314" 3.4646002626606e-05 -0.00019026822723118 0.000285221385848796 -3.83989104917217e-05 -8.17528928073e-05 -0.000147753572665242 -0.000180804409508087 -0.000106034223981844 -9.42824544161406e-05 -0.000123534261778059 -2.20609954378399e-05 -0.000155108209726584 -5.1666135663253e-06 -2.43105725841306e-05 -0.000130129379809771 -5.73856550691443e-05
"315" 5.11348966012807e-05 -0.000183630767236721 0.000292315102596326 -3.1572693638065e-05 -7.52350995160031e-05 -0.000146316268210829 -0.000173699885079147 -0.000101429534030838 -9.10112713667426e-05 -0.000126123539592426 -2.20060547232005e-05 -0.00015551550272031 -4.81874076549437e-06 -1.88559852581852e-05 -0.000129652779342425 -6.1064215103746e-05
"316" 6.7964918799469e-05 -0.000176461693745775 0.000299371908318988 -2.45098584443001e-05 -6.84716653776523e-05 -0.000144432866163165 -0.000166410741652255 -9.62671629972199e-05 -8.78563001343742e-05 -0.000128575367894112 -2.20094556058729e-05 -0.00015600566466029 -4.83040410077171e-06 -1.35788317422636e-05 -0.000129029808544692 -6.46927140525113e-05
"317" 8.51428320607205e-05 -0.000168765644740499 0.000306409218158732 -1.72037820302385e-05 -6.14749679088081e-05 -0.000142100182197191 -0.000158956200959417 -9.05431526771112e-05 -8.48455551435474e-05 -0.00013086913621856 -2.20693125883068e-05 -0.000156576879357857 -5.23216712493244e-06 -8.5151499185785e-06 -0.000128258519385915 -6.82555075717599e-05
"318" 0.000102691295086864 -0.000160568184073684 0.000313461372532731 -9.66207861038392e-06 -5.42566149778976e-05 -0.000139316106055067 -0.000151355756982385 -8.4273656371619e-05 -8.19718108830028e-05 -0.000132972574986529 -2.21724947528682e-05 -0.000157216062686474 -6.03369233772155e-06 -3.6831388949335e-06 -0.000127325309894861 -7.17312071452697e-05
"319" 0.000120609965270449 -0.00015187617850935 0.000320541269503414 -1.88153588230022e-06 -4.68264259782862e-05 -0.000136085662951088 -0.000143617998336683 -7.74609715849381e-05 -7.92532594738825e-05 -0.00013486177825126 -2.23170150069194e-05 -0.000157914262827681 -7.25126444400466e-06 8.93960404026813e-07 -0.000126225401800495 -7.50980405051827e-05
"320" 0.000138898057056401 -0.000142711964418958 0.000327676405661715 6.13443105676506e-06 -3.91940876961749e-05 -0.000132415007555702 -0.0001357657251046 -7.01215939884024e-05 -7.66972157678765e-05 -0.000136511563561581 -2.24973201197926e-05 -0.000158662401035357 -8.9042807742412e-06 5.18507580254557e-06 -0.000124960607066832 -7.83450412631787e-05
"321" 0.000157547624926751 -0.000133105257325556 0.000334872028549201 1.43730560034848e-05 -3.13895871976183e-05 -0.000128318632514697 -0.00012781831350326 -6.22731647685926e-05 -7.43130109109064e-05 -0.000137903548504208 -2.2710465555625e-05 -0.000159450107310335 -1.09942852139519e-05 9.16807269494364e-06 -0.000123526433170922 -8.14587379296416e-05
"322" 0.000176555137441876 -0.000123081970864378 0.00034214645906099 2.28320608821963e-05 -2.34216755612521e-05 -0.000123802549186846 -0.000119791477571293 -5.39453700173926e-05 -7.21037021772278e-05 -0.00013901360718629 -2.29418447399549e-05 -0.000160262678432061 -1.35298891132178e-05 1.28260592226253e-05 -0.000121918563596909 -8.44175041271458e-05
"323" 0.000195902655624834 -0.000112666633684698 0.000349505171414953 3.14943955179321e-05 -1.53136093152392e-05 -0.000118888620197149 -0.000111703823467026 -4.51509744303608e-05 -7.00769758386774e-05 -0.000139824546031843 -2.31950618105948e-05 -0.000161084548332798 -1.65065712037323e-05 1.61388361421357e-05 -0.000120143078708166 -8.72133001291306e-05
"324" 0.000215573886539549 -0.000101904100151388 0.000356952404303315 4.03415839529546e-05 -7.08589499023071e-06 -0.000113590106680723 -0.000103579107105941 -3.59281943141461e-05 -6.82283030483353e-05 -0.000140312898272056 -2.3454008914713e-05 -0.000161901624815896 -1.99210178528297e-05 1.90914775095428e-05 -0.000118193759473748 -8.98311175412893e-05
"325" 0.000235532734047383 -9.08226094662273e-05 0.000364482812022118 4.93584816262013e-05 1.2324795454684e-06 -0.000107941085383934 -9.54357930370079e-05 -2.63089352856376e-05 -6.65694588468876e-05 -0.000140475890653735 -2.3719248701971e-05 -0.000162705513765431 -2.37662429626088e-05 2.16683273744273e-05 -0.000116080366060734 -9.22613644698394e-05
"326" 0.000255761199614602 -7.94641401989496e-05 0.000372105785964934 5.85288952397349e-05 9.62204058888038e-06 -0.000101953447621608 -8.72926435252324e-05 -1.63253780170044e-05 -6.50990923739695e-05 -0.000140295261537098 -2.39826389552351e-05 -0.000163475849006337 -2.80260241609821e-05 2.38562771271809e-05 -0.000113808691814393 -9.44948014624471e-05
"327" 0.000276219615106443 -6.78683365334263e-05 0.000379801005044098 6.78258940509637e-05 1.80517403828127e-05 -9.56634152109575e-05 -7.91683754241125e-05 -6.0147615417052e-06 -6.38153775855088e-05 -0.00013976350613722 -2.42390508892467e-05 -0.000164193208152267 -3.26842576123876e-05 2.56491206128399e-05 -0.00011137909795988 -9.65233996824098e-05
"328" 0.000296865844880326 -5.60856929933448e-05 0.000387567929568257 7.72240793871237e-05 2.64921901884549e-05 -8.90990889292786e-05 -7.1095573121351e-05 4.57438341753159e-06 -6.27225114236929e-05 -0.000138877843727553 -2.44858524973315e-05 -0.000164849504969405 -3.77241226480467e-05 2.7037973708351e-05 -0.000108803808215759 -9.83386082578298e-05
"329" 0.000317656727825153 -4.41532147446582e-05 0.000395375023165068 8.66938734771626e-05 3.49169056065192e-05 -8.22945405246252e-05 -6.30873240409521e-05 1.54076916753338e-05 -6.18139431104339e-05 -0.000137635559480717 -2.47169148591029e-05 -0.000165427171492771 -4.31145429143374e-05 2.80157212467173e-05 -0.000106092766113695 -9.99392871449609e-05
"330" 0.000338542777650365 -3.2120666655444e-05 0.000403211962138199 9.62055200820231e-05 4.3288622576456e-05 -7.52844542302085e-05 -5.51647018335119e-05 2.64389595456745e-05 -6.10920286726838e-05 -0.000136035653185429 -2.49296607324879e-05 -0.000165908828542298 -4.88322121794486e-05 2.85881171552344e-05 -0.000103256614625737 -0.000101318753495544
"331" 0.00035947703143752 -2.00381700084114e-05 0.000411059783335077 0.000105728181159902 5.15865497604781e-05 -6.810172370218e-05 -4.73576453190892e-05 3.7615969220075e-05 -6.05502899936214e-05 -0.000134083227922887 -2.51176818596355e-05 -0.000166281161738842 -5.48400572382182e-05 2.87566193619843e-05 -0.000100301919218607 -0.000102471717158606
"332" 0.000380400322173957 -7.95789613507716e-06 0.000418881726586135 0.000115225476847429 5.97666418750236e-05 -6.07874997046733e-05 -3.96831853491121e-05 4.88954122687874e-05 -6.01813944344013e-05 -0.000131781687706885 -2.52825503947861e-05 -0.000166528155970164 -6.11073823182689e-05 2.85268215541389e-05 -9.72450476020891e-05 -0.000103400114797113
"333" 0.000401258510800991 4.07541130617622e-06 0.000426657227210361 0.000124667419878035 6.78057735778079e-05 -5.33786018568665e-05 -3.21644356173429e-05 6.02337705051023e-05 -5.99857199909936e-05 -0.000129143362258124 -2.54185358483903e-05 -0.000166635724189772 -6.7596310383428e-05 2.79061278938201e-05 -9.40981755536136e-05 -0.000104102178751224
"334" 0.000421993269007735 1.60099900072713e-05 0.000434345686230329 0.000134011420030956 7.56616109595813e-05 -4.59100597038147e-05 -2.48249270034254e-05 7.15787842521583e-05 -5.99523895948014e-05 -0.000126178798293803 -2.55228204575673e-05 -0.000166587257873247 -7.42645409109376e-05 2.69094483811886e-05 -9.0874536018755e-05 -0.000104578705641383
"335" 0.00044253869218597 2.77922834781492e-05 0.000441916301531647 0.000143227316605312 8.3307063068356e-05 -3.84263184187436e-05 -1.76902288323884e-05 8.28822279324722e-05 -6.00769919000483e-05 -0.000122907606681926 -2.55997078119489e-05 -0.000166376375755578 -8.10745953638904e-05 2.55529521198771e-05 -8.75893995076015e-05 -0.000104829682010975
"336" 0.000462837696072205 3.9375427984947e-05 0.000449326616352555 0.00015227222381063 9.07024193110698e-05 -3.09669024311616e-05 -1.07819081496619e-05 9.40929436841367e-05 -6.03525342602026e-05 -0.000119342780953627 -2.56453577373633e-05 -0.000165992423759863 -8.7981927289922e-05 2.38535480327028e-05 -8.42563402817398e-05 -0.000104858551411262
"337" 0.000482832450779837 5.07046559089817e-05 0.000456544733293616 0.000161109339546535 9.78232477183081e-05 -2.35570650565058e-05 -4.12252190255658e-06 0.000105177356562239 -6.07613004187531e-05 -0.000115495594438467 -2.5652257255049e-05 -0.000165410927687209 -9.49363565142838e-05 2.18437305712213e-05 -8.08845321531844e-05 -0.000104664519452554
"338" 0.000502457680779938 6.17366850378981e-05 0.000463524480871226 0.000169705078092695 0.000104630837340375 -1.62430541232434e-05 2.26807420383578e-06 0.000116081958623271 -6.13017332644846e-05 -0.000111400310580877 -2.5630029016413e-05 -0.000164633743381546 -0.000101896575766748 1.95358578306566e-05 -7.74977637309845e-05 -0.000104258132628849
"339" 0.000521651762182963 7.24207560494269e-05 0.000470225092341395 0.000178019741759246 0.00011109300189618 -9.05722196795399e-06 8.36355164847125e-06 0.000126771337343536 -6.19588563215936e-05 -0.000107075655788011 -2.55764248285818e-05 -0.000163645535890436 -0.000108816982570485 1.69666756934158e-05 -7.41056691730615e-05 -0.000103637918026033
"340" 0.000540359247665011 8.2709425369273e-05 0.000476604070355937 0.000186018969333711 0.000117180788146679 -2.03074119559289e-06 1.41441470319678e-05 0.000137199266350941 -6.27263181872166e-05 -0.000102545221869181 -2.54890913478686e-05 -0.000162443439744839 -0.000115651386719101 1.41640509227644e-05 -7.07215615335533e-05 -0.000102811675100978
"341" 0.000558520406227308 9.25583543446184e-05 0.000482617058377655 0.000193668049207349 0.000122866282844147 4.80838422029205e-06 1.95876077603869e-05 0.000147338082804444 -6.3585073572916e-05 -9.78343751525366e-05 -2.53702124593818e-05 -0.00016101375733781 -0.000122351335927492 1.11658607554991e-05 -6.7359873002387e-05 -0.000101782250141762
