"V1" "V2" "V4" "V5" "V7" "V8" "V10" "V11" "V13" "V14" "V15" "V17" "V18" "V20" "V21" "V23"
"1" -1.61244309809227e-05 -2.81401780286245e-05 -4.85346675736271e-05 -0.000115287671971264 -1.74578771003174e-05 -3.15601235065324e-05 -1.99790903136282e-05 -1.04425605902079e-05 -2.75267345935802e-05 -2.45405914054968e-05 4.00771336472942e-06 -2.25952081478589e-05 -4.97303709588205e-06 1.39357423460009e-05 7.80280866684601e-06 5.97566318672398e-06
"2" -3.44874379609225e-05 -3.99949636546713e-05 0.00012210005027632 -8.78723778159466e-05 5.16530608048813e-05 -1.30644520584437e-05 -3.0028988236634e-05 4.82934824232318e-06 1.3522737547525e-05 3.59674223529596e-05 -1.36771910838532e-05 -1.64818564384156e-05 -1.34409796175681e-05 -3.54532729873034e-05 -3.99280938308646e-05 -6.81321378650435e-06
"3" -5.26316168626186e-05 -5.18379168028119e-05 0.000293701865977895 -6.00472176434202e-05 0.00012092129256409 5.37477215470991e-06 -4.03277484195696e-05 2.0100341087702e-05 5.45937891141874e-05 9.64592490488192e-05 -3.13155219097405e-05 -1.05282246944287e-05 -2.18499636051919e-05 -8.45149610754733e-05 -8.74074066051729e-05 -1.94787419701039e-05
"4" -7.03615848581912e-05 -6.35970386775309e-05 0.000465449031087803 -3.16149136120287e-05 0.00019014623487743 2.36789209574414e-05 -5.10876126722356e-05 3.53487501462997e-05 9.55866482108819e-05 0.000156639651372156 -4.87802723703961e-05 -4.87234042755104e-06 -3.01010859256334e-05 -0.000132908988966857 -0.000134384684831331 -3.18898975377335e-05
"5" -8.74918808230087e-05 -7.5192394523121e-05 0.000636514998764278 -2.38050642760557e-06 0.000259126814747982 4.17827945786004e-05 -6.25098174978045e-05 5.05539443196422e-05 0.000136409012307647 0.00021620853351248 -6.59572644626366e-05 3.55272434350599e-07 -3.8107453876261e-05 -0.000180307179739524 -0.000180623840241227 -4.39244147754567e-05
"6" -0.000103842461315063 -8.65624120033086e-05 0.000806049386124352 2.78240478359881e-05 0.000327661619633043 5.96133003292928e-05 -7.47877417575414e-05 6.56952474897609e-05 0.000176957685704972 0.00027487225770366 -8.27247856394692e-05 5.02451379867042e-06 -4.57741028772304e-05 -0.000226385898911727 -0.000225883875618533 -5.54578683351375e-05
"7" -0.000119242684435379 -9.76297699057325e-05 0.000973203626370867 5.91596924965443e-05 0.000395548512473623 7.71102489510417e-05 -8.8104066751241e-05 8.07481711353701e-05 0.000217137796099059 0.00033232914221222 -9.8973238424783e-05 9.01722806148747e-06 -5.30211271993034e-05 -0.000270835648069606 -0.000269944827408903 -6.63760355048995e-05
"8" -0.000133526939331437 -0.000108341133646166 0.00113713104698834 9.17641494182794e-05 0.000462587788524351 9.42151906380483e-05 -0.000102625109594966 9.56945356849205e-05 0.000256847178634423 0.00038829469145454 -0.000114595663059955 1.2222147519782e-05 -5.97645196537043e-05 -0.000313366862368902 -0.000312583643860129 -7.65718175147645e-05
"9" -0.000146548380956271 -0.00011863339140481 0.00129699310397755 0.000125752981160497 0.000528582708358798 0.000110868647391646 -0.000118500035825819 0.000110509046064616 0.000295981625985009 0.000442482865018157 -0.000129499588480362 1.45318167692624e-05 -6.59352294404804e-05 -0.000353707497474798 -0.00035360518858363 -8.59418757594998e-05
"10" -0.000158164993233442 -0.000128453402027419 0.00145197028771218 0.000161231073829664 0.000593341108916495 0.000127026150537379 -0.000135861262997971 0.000125169595036793 0.000334439517700717 0.000494623790993351 -0.000143594056574267 1.58600808518797e-05 -7.14649094855079e-05 -0.000391601492445712 -0.00039281308118115 -9.43966243670317e-05
"11" -0.000168256347988995 -0.000137747113900283 0.00160126862637941 0.000198272590850488 0.000656674532374904 0.000142638091651866 -0.000154819124817469 0.000139657115442419 0.000372117750862742 0.000544455489188571 -0.000156792034678253 1.61277758715898e-05 -7.62904164125022e-05 -0.000426813413243311 -0.000430029106536213 -0.000101854554805188
"12" -0.000176703682323184 -0.000146468961397159 0.00174413682603721 0.000236931639550931 0.000718408833498999 0.000157670805383385 -0.000175456450404796 0.000153948043598599 0.000408914507559491 0.000591737020612034 -0.000169024226698797 1.52653470887238e-05 -8.03654529289714e-05 -0.000459136934240877 -0.000465095152912732 -0.000108239590253181
"13" -0.000183419072119653 -0.00015456881491064 0.00187986328284816 0.000277242487751552 0.000778369204391582 0.000172088198920855 -0.000197833919139922 0.000168023004574791 0.000444729256972997 0.000636243463953873 -0.000180222891941872 1.32237059411941e-05 -8.36381899147598e-05 -0.00048839160530982 -0.000497864542097024 -0.000113494494952003
"14" -0.000188319850429564 -0.000162012309300643 0.00200778838971593 0.000319214420723039 0.000836394047363331 0.000185866180239563 -0.000221991939932028 0.000181862578448291 0.000479455084843942 0.000677765790042931 -0.000190335575709693 9.96357936482349e-06 -8.60790181544905e-05 -0.000514416547245693 -0.000528209462935397 -0.000117569221160354
"15" -0.000191338752295971 -0.000168750049184164 0.00212731823629083 0.000362837780166539 0.000892339729206417 0.000198980491470713 -0.000247934358537103 0.000195447144227496 0.000512998610648592 0.000716121747324657 -0.000199311152529088 5.4633513284757e-06 -8.76545959491474e-05 -0.000537080991815194 -0.000556015880702326 -0.000120424848723755
"16" -0.000192431338274688 -0.000174749293378782 0.0022379275069392 0.000408074176627498 0.000946061811103605 0.000211422255122917 -0.000275646190854205 0.000208756097301402 0.000545260825100384 0.00075115062677217 -0.00020711823104453 -2.80371892309472e-07 -8.83460852763366e-05 -0.000556285844404723 -0.000581192772559715 -0.000122037810395194
"17" -0.000191565089999527 -0.000179970877116518 0.00233916427749208 0.000454871900115481 0.000997439053048643 0.000223180042722218 -0.000305074782719988 0.000221777700641421 0.000576149520800872 0.000782720838136867 -0.000213725447136046 -7.26260693677269e-06 -8.81439460538109e-05 -0.000571951722849581 -0.000603662597323965 -0.000122395514225887
"18" -0.000188724211795597 -0.000184378912756632 0.00243066284747087 0.000503151993530678 0.00104636215874529 0.000234255726088394 -0.000336150371247649 0.000234494701381462 0.000605575443990419 0.000810720293052606 -0.000219114991565763 -1.54576317366762e-05 -8.70429618641672e-05 -0.000584036220258511 -0.00062336824144136 -0.000121496873376682
"19" -0.000183913659556173 -0.000187945921928127 0.00251213575553274 0.000552821496764498 0.00109273151243193 0.00024465405589294 -0.000368775728448899 0.000246888692655565 0.00063345403003201 0.000835072748870909 -0.00022327863751024 -2.48304308867021e-05 -8.50509193058966e-05 -0.000592519233556689 -0.000640272420563787 -0.000119356259019563
"20" -0.000177141299713085 -0.000190637389844654 0.00258340295359692 0.000603761686367907 0.00113647069857991 0.000254387291407097 -0.000402819717106824 0.000258954463797854 0.000659704424996948 0.000855722361650333 -0.000226223778896884 -3.53227422647425e-05 -8.21793488430754e-05 -0.000597412464265781 -0.000654356148587763 -0.000115995044816728
"21" -0.000168450000143742 -0.000192424541882558 0.00264435580152826 0.000655848750362418 0.00117751539027677 0.000263471711510151 -0.000438135301023258 0.000270676611006029 0.000684258300236419 0.000872644925073824 -0.000227950808981411 -4.6868437619628e-05 -7.84501094185231e-05 -0.000598749583954538 -0.000665612997673719 -0.000111451724118543
"22" -0.000157884680980464 -0.000193271623843973 0.00269499527935934 0.000708932962429459 0.00121581356090364 0.000271929037548238 -0.000474541070674342 0.000282044360697887 0.000707045547232571 0.000885845020223769 -0.000228480577952967 -5.93893424588573e-05 -7.38901100339941e-05 -0.000596593002431515 -0.000674056867217002 -0.000105772069589557
"23" -0.000145508809141083 -0.000193157819850504 0.00273540930467346 0.00076285263944787 0.00125134118171152 0.000279789850944525 -0.000511849363293905 0.000293052398283018 0.000728009617718365 0.00089535375258481 -0.000227840265971336 -7.27916507665501e-05 -6.85329013388788e-05 -0.000591026707456263 -0.000679717324192838 -9.90142327891481e-05
"24" -0.000131398420172373 -0.000192046976208996 0.00276578032157948 0.000817439526076977 0.00128408157697238 0.000287083939098649 -0.000549841541766829 0.000303694128149882 0.000747099416121627 0.000901229132805179 -0.00022605995692944 -8.69747224587634e-05 -6.24217860110731e-05 -0.000582161853984844 -0.000682639982131812 -9.12471670462769e-05
"25" -0.000115646445042479 -0.000189921112845513 0.002786377478231 0.000872505705348616 0.00131403543027923 0.000293852616886158 -0.000588283946375639 0.000313959542419891 0.000764273954771578 0.000903554813865524 -0.000223185031913587 -0.000101825364832061 -5.56066985630452e-05 -0.00057013328263678 -0.000682888651828002 -8.25464723282727e-05
"26" -9.83564530633576e-05 -0.000186754264000274 0.00279755691506448 0.000927854969357555 0.00134122552616162 0.000300136347845458 -0.00062693011860882 0.00032384862677239 0.000779502073240748 0.000902435905576505 -0.000219262072318576 -0.000117224428367868 -4.81372302602968e-05 -0.000555089088071104 -0.000680537953163186 -7.29991951990633e-05
"27" -7.96421350927738e-05 -0.00018252172047082 0.00279974975783898 0.000983291011610822 0.00136568545546086 0.000305984193122307 -0.000665518198909867 0.000333360314135536 0.000792764899495606 0.00089800701705111 -0.000214341510794333 -0.000133043191246088 -4.00723613078916e-05 -0.000537203466732571 -0.000675675388668956 -6.26979187811773e-05
"28" -5.96277775230125e-05 -0.000177204650837652 0.00279345634200284 0.00103860553888802 0.00138746658468806 0.00031144056073565 -0.000703781249280886 0.000342488934635695 0.000804048110924133 0.000890411518354774 -0.000208483568642591 -0.000149155224465356 -3.14747151132181e-05 -0.000516662132603086 -0.000668402698344152 -5.17405396020346e-05
"29" -3.84464722002999e-05 -0.000170785090619821 0.00277925202582232 0.00109358054543654 0.00140663454880579 0.000316563599520318 -0.000741438928194921 0.000351236823061201 0.000813353001829782 0.000879824954261075 -0.000201753931856103 -0.000165422510227217 -2.24125717303754e-05 -0.000493671355971219 -0.000658832455115895 -4.02335507584259e-05
"30" -1.62430299105355e-05 -0.000163247664011121 0.00275775930239609 0.00114800922115626 0.00142327088764214 0.000321404170714273 -0.00077822019365238 0.00035960657984459 0.00082068977885772 0.000866429162851265 -0.000194220557837377 -0.000181713932848717 -1.2953461672806e-05 -0.000468440201598599 -0.000647085664353273 -2.82859680268514e-05
"31" 6.84142429457248e-06 -0.00015458459669884 0.00272965091991678 0.00120166259011269 0.00143747202969667 0.000326022454617107 -0.0008138396398591 0.00036759924795081 0.000826080021357568 0.000850423408537431 -0.00018595793250728 -0.000197888464203774 -3.17352700104234e-06 -0.000441201761793888 -0.000633293625228577 -1.60093006799531e-05
"32" 3.06437534209625e-05 -0.000144783605151308 0.00269563439529925 0.00125432956401048 0.00144933924253373 0.000330472246237926 -0.00084802285228329 0.000375219982699245 0.000829556933022522 0.00083201380582689 -0.000177040358943316 -0.000213814657089773 6.85612130003361e-06 -0.000412185353332137 -0.000617597258977349 -3.51536681981157e-06
"33" 5.50167190397407e-05 -0.000133849173293192 0.00265645568623523 0.00130578652440366 0.00145899576546986 0.000334819710959062 -0.000880492761975885 0.000382474946948081 0.000831165258443633 0.000811422542206691 -0.000167546150294835 -0.000229359519153267 1.70619910076086e-05 -0.000381634197327181 -0.000600139404810128 9.07627757976407e-06
"34" 7.97952485320697e-05 -0.00012177873610761 0.00261286915336099 0.00135582994045188 0.00146656264283767 0.000339117435334556 -0.000910994477384952 0.000389364429435114 0.000830958678196574 0.000788868146592317 -0.000157557843912269 -0.000244404112983846 2.73597476467194e-05 -0.000349793547371373 -0.000581070850903325 2.16547909633959e-05
"35" 0.000104827575325417 -0.000108580196905758 0.00256565193265774 0.00140424242347473 0.00147218315523874 0.000343430916725869 -0.000939272548911425 0.00039590348904306 0.000829001716071054 0.000764583285984852 -0.000147159548435209 -0.000258823012858129 3.76785038251511e-05 -0.000316914879502623 -0.000560550487085134 3.41040157130142e-05
"36" 0.000129949094844221 -9.42726486013727e-05 0.00251557442716911 0.00145082059527207 0.0014760008434458 0.000347816336853136 -0.000965088690472463 0.000402097274970022 0.000825366522902832 0.00073878953043752 -0.000136436959817909 -0.000272506839292325 4.79409265007479e-05 -0.000283243599865573 -0.00053873447405254 4.63154780711741e-05
"37" 0.000155011827401556 -7.88738659882465e-05 0.0024634095704246 0.00149536229911556 0.00147816566058014 0.000352335509048127 -0.000988217616120525 0.000407955417379024 0.000820137933127173 0.000711717900219013 -0.00012547337664866 -0.000285354203750459 5.8068935664808e-05 -0.000249027465209635 -0.000515784548404851 5.81789810273315e-05
"38" 0.000179862424984097 -6.24129951456725e-05 0.00240991104950179 0.00153768922630243 0.00147883053624302 0.000357038686037763 -0.00100846825688696 0.000413486955177781 0.000813406557667187 0.00068358805360343 -0.000114352524212053 -0.000297271053848904 6.79876092122189e-05 -0.0002145065974217 -0.00049186276899302 6.95951957368473e-05
"39" 0.000204359597248051 -4.49296563392238e-05 0.00235581596086408 0.00157760731655375 0.00147816375981729 0.000361983688476095 -0.00102565483795375 0.00041870527458183 0.000805269556924822 0.000654613199588582 -0.000103163810855671 -0.00030817823809024 7.76311968495352e-05 -0.000179926843821637 -0.000467132983173313 8.04645689915919e-05
"40" 0.0002283616066568 -2.64554255311772e-05 0.00230183710025093 0.00161496412765508 0.00147632220519388 0.000367221047607842 -0.0010396163487376 0.000423624276047309 0.00079583508558641 0.00062500820061393 -9.1988551943645e-05 -0.000318009347152656 8.69257158044503e-05 -0.000145512520362324 -0.000441753924881663 9.06936859081716e-05
"41" 0.000251744268383114 -7.05049395877018e-06 0.00224864730876552 0.00164959123648612 0.00147346999819943 0.000372799264355283 -0.00105023215701816 0.0004282537098968 0.000785210959694824 0.000594965947092847 -8.09157899361222e-05 -0.000326709120844342 9.58046628607513e-05 -0.00011148651847285 -0.000415887257784954 0.000100203322059256
"42" 0.000274386875504124 1.32360710187957e-05 0.00219689200098603 0.00168135585257997 0.00146976878776222 0.000378761092850724 -0.00105738307835256 0.0004326111452098 0.000773516553904922 0.000564677082280642 -7.00179495862327e-05 -0.000334231123548084 0.000104210755368624 -7.80567327797632e-05 -0.000389684120686408 0.00010891387970675
"43" 0.000296184065277228 3.43361848272959e-05 0.00214717348502338 0.00171013146933644 0.00146538851766909 0.000385146963445915 -0.00106099887047403 0.000436713564957561 0.000760866123079062 0.000534315374830084 -5.93807834242813e-05 -0.000340554947981973 0.000112088024344603 -4.54264389983392e-05 -0.000363299069253544 0.000116757226598925
"44" 0.000317035746760051 5.61819528442282e-05 0.00210004467624818 0.00173581053941306 0.00146047676824445 0.000391989953587049 -0.00106103054184841 0.000440571283122559 0.000747387297299317 0.000504041603168426 -4.90737098655776e-05 -0.000345666054610926 0.000119376542200942 -1.37765395224625e-05 -0.000336878481128875 0.000123678114743814
"45" 0.00033686609678322 7.86974711890937e-05 0.00205601344545935 0.00175830333081244 0.00145519640258803 0.000399322090300784 -0.00105745211884585 0.000444205361192822 0.000733202752748072 0.000474006565256979 -3.91713682269274e-05 -0.000349570400965651 0.000126037589848987 1.6721775668814e-05 -0.000310560281664296 0.000129623888059374
"46" 0.000355597689104107 0.000101796916232949 0.00201554189035953 0.00177753646930764 0.00144969802761436 0.000407164345243682 -0.00105027214809339 0.000447634365328566 0.00071843422479951 0.000444336531695096 -2.97390792991419e-05 -0.000352281004386331 0.000132024907525032 4.59148724661302e-05 -0.000284480739894453 0.00013455713273972
"47" 0.000373179838136834 0.000125398218427858 0.00197903710513609 0.00179346472132987 0.00144412301783808 0.000415536932747407 -0.00103953410472958 0.000450872011728791 0.000703211104108605 0.000415152279679461 -2.08400082637193e-05 -0.000353834219022969 0.000137308088253231 7.36668724965471e-05 -0.000258761366861143 0.000138448921943828
"48" 0.000389571427922779 0.000149412531229955 0.00194685193995152 0.0018060577849221 0.00143861333629764 0.000424451266571171 -0.00102529517134985 0.000453942145981672 0.000687654209151934 0.000386553892108612 -1.25284820603437e-05 -0.000354278137593021 0.000141856561815145 9.98589018125086e-05 -0.000233519565019937 0.000141280751653536
"49" 0.000404743391314585 0.000173744112534932 0.00191929426381151 0.00181530574093876 0.0014332975194141 0.000433912619239479 -0.00100764552934693 0.000456859477628111 0.000671886043373298 0.000358626378509491 -4.85416047932733e-06 -0.000353673734115178 0.000145651345139149 0.000124393088659413 -0.000208860342411945 0.000143041852368122
"50" 0.000418685595575802 0.000198292033225442 0.0018966033457552 0.00182122138317649 0.00142829532061709 0.000443918317329372 -0.000986716955838034 0.000459644538110467 0.000656028925842387 0.000331436904800569 2.13563947158414e-06 -0.000352098608363355 0.00014867110382475 0.000147183031555793 -0.000184885686316351 0.000143734129386377
"51" 0.000431394268742797 0.000222968726474082 0.00187898319192651 0.00182385185159767 0.00142372288017823 0.00045445977217755 -0.000962643289700358 0.000462317115500212 0.000640196489519364 0.000305042100596491 8.41458433554772e-06 -0.000349642617617241 0.000150915988329351 0.000168174429288949 -0.000161676262646537 0.000143371288205399
"52" 0.000442883266801285 0.000247670731612646 0.00186657012819951 0.00182324569767784 0.00141967925979756 0.000465524509783866 -0.000935597333622698 0.000464894140884039 0.000624497352080635 0.000279479976486816 1.39447447573436e-05 -0.000346405567354914 0.000152379991337612 0.000187317043389451 -0.000139311325723123 0.000141973193779374
"53" 0.000453186709784078 0.000272304417489155 0.00185945948571652 0.00181949193648322 0.00141625852133846 0.00047709214667992 -0.00090576240754695 0.000467393369435649 0.000609049318665043 0.000254774229295532 1.87123878252958e-05 -0.000342500858850306 0.000153067310997754 0.000204591925301996 -0.000117853624362108 0.000139571458114857
"54" 0.000462339803721514 0.000296770678890854 0.0018576923391047 0.00181268603901158 0.00141353857938322 0.000489133635043606 -0.000873352011880845 0.000469833431314974 0.000593945212810908 0.000230938193337167 2.27003340094024e-05 -0.000338052890338692 0.000152993780698866 0.000219988833970822 -9.73551530013126e-05 0.000136203479149763
"55" 0.000470391413250489 0.000320978888951498 0.00186125854981846 0.00180295207536349 0.00141159218867926 0.000501617719389719 -0.000838593167698818 0.000472229020102138 0.000579285108309423 0.000207970635424885 2.5906938966184e-05 -0.000333191770623404 0.000152175284491267 0.00023352288930843 -7.78591434848042e-05 0.000131919079658564
"56" 0.000477404447051018 0.000344836979515941 0.00187010060595717 0.00179043064040908 0.00141047552434094 0.000514504097806014 -0.000801725909829255 0.000474598599797381 0.000565162373875384 0.000185854855117274 2.83354243908958e-05 -0.000328062511717471 0.000150635455574953 0.000245222990239481 -5.93929761286358e-05 0.000126773099877287
"57" 0.000483448909377707 0.000368254064025812 0.00188412143770109 0.00177527680245335 0.00141023265352697 0.00052775026013851 -0.000763000847262961 0.000476951620217059 0.000551653762883025 0.000164569675366729 2.9995336720489e-05 -0.000322806542136593 0.000148401732811582 0.000255130866088073 -4.19786847069058e-05 0.000120827306919771
"58" 0.000488600197620342 0.000391151004508958 0.00190317304424318 0.00175765874920193 0.00141090220234571 0.000541309127893118 -0.000722686062258093 0.000479302765417428 0.000538838554581145 0.00014407777892386 3.09106880008018e-05 -0.000317579018604605 0.000145510508407457 0.000263307438544716 -2.56241623853676e-05 0.000114150235447132
"59" 0.000492945811217022 0.000413448500245282 0.00192707480931744 0.00173776892680519 0.00141250303106445 0.000555123243413911 -0.000681045437459919 0.00048166368358597 0.000526784418780781 0.000124337071551307 3.11060016236837e-05 -0.000312528689144693 0.000141999802027637 0.000269829136640527 -1.0325574680442e-05 0.000106816050670131
"60" 0.000496574270447349 0.000435068446554821 0.00195559953397593 0.00171579532911319 0.00141504278143872 0.000569142122417749 -0.000638356227126597 0.000484041202516987 0.00051555169180322 0.000105296234044028 3.06095355062516e-05 -0.000307814841850962 0.000137907981846423 0.000274772822857218 3.92551017909042e-06 9.89010497017037e-05
"61" 0.000499576383705531 0.000455942566127679 0.00198849019587906 0.0016919441658169 0.00141852091531701 0.000583305068788013 -0.000594890524493071 0.000486441857342082 0.000505192266239411 8.68979980218963e-05 2.9467359782411e-05 -0.000303587388521329 0.000133283634897449 0.000278233349218595 1.71513040719932e-05 9.04881914294713e-05
"62" 0.000502053886004392 0.000476008925737759 0.00202545473983154 0.00166643134168988 0.00142292346603524 0.000597547420546119 -0.000550921599423685 0.000488871012056493 0.000495749559171851 6.90778736609345e-05 2.7724732127578e-05 -0.000300003418908784 0.000128170692137739 0.000280320846777558 2.93828034064242e-05 8.16616860101355e-05
"63" 0.00050410180130674 0.000495200962940331 0.00206616997645099 0.00163946106686443 0.001428223777311 0.000611808970805232 -0.000506719825348262 0.000491328397706486 0.000487256405068913 5.17690712988129e-05 2.542910655172e-05 -0.000297205870771011 0.000122617616628494 0.000281133593889586 4.06511876826537e-05 7.25052999686326e-05
"64" 0.00050581779785943 0.000513473820635641 0.00211029137486452 0.00161125653743921 0.00143438935543699 0.000626025406655275 -0.000462549647917978 0.000493818368313443 0.000479736786920446 3.48998810238656e-05 2.26353446550082e-05 -0.0002953401060703 0.000116676952327809 0.000280793435026383 5.10032679055107e-05 6.31081545151787e-05
"65" 0.000507300762334481 0.000530777055283967 0.00215744286604879 0.00158203210060379 0.00144136699542266 0.000640133245975726 -0.000418655509255414 0.000496333611627776 0.000473211961753039 1.83967695668593e-05 1.94055467133272e-05 -0.000294537914338271 0.000110396374994047 0.000279416328817997 6.04852257661116e-05 5.35525610407851e-05
"66" 0.000508642952331854 0.000547059746043727 0.00220723673167341 0.00155198922044863 0.00144910211990169 0.000654066968364579 -0.000375282952614334 0.000498871981590502 0.000467684325255785 2.18589959136595e-06 1.57939402995189e-05 -0.000294922491436784 0.000103823260890556 0.000277115509575005 6.91454530536062e-05 4.39235399450377e-05
"67" 0.000509935353953573 0.000562294489830828 0.00225926434126144 0.001521340610549 0.0014575320170758 0.00066776388352623 -0.0003326554438902 0.000501429639833063 0.000463148835354614 -1.3805094144528e-05 1.1869226392253e-05 -0.000296607426661196 9.70117551519106e-05 0.000274016798361296 7.70458209792032e-05 3.43070758959274e-05
"68" 0.000511268899778382 0.000576444692811374 0.00231310754360416 0.00149028411087964 0.00146657998253221 0.000681159843823286 -0.000290984095422987 0.000503992362539532 0.000459597887212829 -2.965043845015e-05 7.69064383477659e-06 -0.000299691266251201 9.00064517335002e-05 0.00027023025967142 8.42432289509049e-05 2.47777675617552e-05
"69" 0.00051272072598271 0.000589484059510728 0.00236833308385809 0.00145900425402051 0.00147616122640671 0.000694198239785976 -0.000250460284539646 0.000506554713441444 0.000457010482867657 -4.54203592085471e-05 3.32739749307426e-06 -0.000304260833830993 8.28529951371007e-05 0.000265874756577874 9.0794987336394e-05 1.54157382515902e-05
"70" 0.000514366663662592 0.000601388114663085 0.00242450876658735 0.001427675620383 0.00148618874763924 0.000706820797280905 -0.000211255310738687 0.000509103204889426 0.000455353428016156 -6.11801235699371e-05 -1.16345946234948e-06 -0.000310384061907245 7.55969472625315e-05 0.000261051187491283 9.67645044076686e-05 6.29033428382975e-06
"71" 0.000516283408124966 0.000612146133730994 0.00248119416048314 0.00139646248061722 0.00149656536909579 0.000718971190651076 -0.000173522598886945 0.000511622174917888 0.000454592415338918 -7.69932351914278e-05 -5.71222382064166e-06 -0.000318113255363029 6.82800899127218e-05 0.000255869313050786 0.000102208612225371 -2.53190582970877e-06
"72" 0.000518524660802215 0.000621742325703667 0.00253796093857916 0.00136550915530016 0.00150719423200355 0.000730601894914703 -0.000137390733022191 0.000514100941470777 0.000454676674302498 -9.29179401013021e-05 -1.02646757013153e-05 -0.000327486000154744 6.09385257114836e-05 0.00025041846928143 0.000107189266539008 -1.09860615770056e-05
"73" 0.000521149599470289 0.000630175175777394 0.00259437807660661 0.00133495785712573 0.00151797066382393 0.000741664253048661 -0.000102960465164487 0.000516524510018214 0.00045555450366682 -0.000109005950911589 -1.47608919170247e-05 -0.000338515698757366 5.36158549669216e-05 0.000244792546583019 0.000111764736168591 -1.90179784719709e-05
"74" 0.000524205455021096 0.000637440819331009 0.00265002766060178 0.00130491810080445 0.00152878571554649 0.000752115522313042 -7.03254231944308e-05 0.000518872238165761 0.000457166612254115 -0.000125299836744453 -1.91436318740008e-05 -0.000351205530082861 4.63364928330674e-05 0.000239067020531704 0.000115989535887186 -2.65792050350492e-05
"75" 0.000527725502060653 0.000643546489562241 0.00270449776577011 0.00127549395114875 0.00153953123798237 0.000761914581648097 -3.95382479206307e-05 0.000521133067899475 0.000459445766272391 -0.000141841228498303 -2.33621181331123e-05 -0.000365529898317792 3.9132205969945e-05 0.000233313470514449 0.000119912716191629 -3.36255679181126e-05
"76" 0.00053174975950932 0.000648496745490386 0.00275740881747719 0.00124676165700127 0.00155010198515596 0.00077103344963734 -1.06377114439569e-05 0.000523288830376811 0.00046231616312153 -0.000158657355173302 -2.73708082394702e-05 -0.000381446710320753 3.20365917114412e-05 0.000227588736404586 0.000123582890419214 -4.01199011189127e-05
"77" 0.000536292450935402 0.000652309499344045 0.00280838106191626 0.00121879277508992 0.00156038504398633 0.000779439163564692 1.63643628894379e-05 0.00052532419638326 0.000465699904659121 -0.000175769630936617 -3.11217029898893e-05 -0.000398899674010029 2.50677842578888e-05 0.000221946136919086 0.000127045602577684 -4.60333551295565e-05
"78" 0.000541370827802016 0.00065500307597044 0.0028570707053986 0.00119163297531099 0.00157027275110967 0.000787108308505034 4.14735761335413e-05 0.000527224672749088 0.000469518380041836 -0.000193192029673185 -3.45777969043108e-05 -0.000417809081159329 1.82499459623173e-05 0.000216427179050871 0.000130342490512711 -5.13399553938091e-05
"79" 0.000546995380005817 0.000656603249734713 0.00290315559295391 0.00116532264884674 0.00157966539541463 0.000794023956057364 6.47249294013372e-05 0.000528975586978193 0.000473686963387454 -0.000210926129989047 -3.77013208441763e-05 -0.000438077300178056 1.16043482952901e-05 0.000211064494118864 0.000133505285566252 -5.60262855806458e-05
"80" 0.000553164740184021 0.000657138170395316 0.00294634125211204 0.00113986860445203 0.00158845742997821 0.000800171686351069 8.61660252022073e-05 0.000530562887193431 0.000478119768764662 -0.000228970544590239 -4.04651638419855e-05 -0.000459594084454483 5.14266070062723e-06 0.000205871832999046 0.000136564991311092 -6.00798947142574e-05
"81" 0.000559870030263639 0.000656642462641829 0.002986362439176 0.00111527679849851 0.00159655517371419 0.00080554263038149 0.000105868562505767 0.000531978752565562 0.000482727117171635 -0.000247309601718792 -4.28447606160761e-05 -0.000482225911388206 -1.11891356727987e-06 0.000200866324018384 0.000139543559999463 -6.34980648069541e-05
"82" 0.000567096743612105 0.000655154673716395 0.00302298789172806 0.0010915367860273 0.00160387063720462 0.000810135494228915 0.000123917979903019 0.000533211997607811 0.000487421442034223 -0.000265917761793528 -4.48120198693033e-05 -0.000505828868556757 -7.16276384551219e-06 0.000196055420463769 0.000142468029144575 -6.62809861253928e-05
"83" 0.00057482757355217 0.000652718454445126 0.00305601934278305 0.00106861173476196 0.0016103231241724 0.000813952130749542 0.000140420464788759 0.000534255537742165 0.000492118075170892 -0.000284765910008594 -4.63588171990622e-05 -0.000530245950248879 -1.29847399457788e-05 0.000191424509832851 0.000145347046174621 -6.84371125920242e-05
"84" 0.000583031861328373 0.000649380809623434 0.00308528579253705 0.00104648320087775 0.00161582826609488 0.000816996685353832 0.000155491614231961 0.000535102596118489 0.000496733383956751 -0.000303813860560243 -4.74657981219879e-05 -0.000555307340860184 -1.85704798668453e-05 0.000186972667644569 0.000148194693370924 -6.99769846287727e-05
"85" 0.000591689161282746 0.000645196282249021 0.00311066369138698 0.0010250928737249 0.00162032513959682 0.000819286271449487 0.000169263309332164 0.000535748982961315 0.00050118725335069 -0.000323010572210818 -4.8127049749255e-05 -0.00058083168451533 -2.39127078770271e-05 0.000182670988195962 0.000151014977598806 -7.09197455110692e-05
"86" 0.000600759488029594 0.000640214857735931 0.00313205784374806 0.00100437941133297 0.0016237599591272 0.000820832927479916 0.000181870584916911 0.00053619813858077 0.000505399558172339 -0.000342302217952692 -4.83403749164578e-05 -0.000606628787784963 -2.90028240794778e-05 0.000178503548355683 0.000153807365663406 -7.12876009003242e-05
"87" 0.000610204658548175 0.000634499290215358 0.00314940741883452 0.000984283681115291 0.00162607956220277 0.000821659496474999 0.000193462221780547 0.000536448127365661 0.000509297133815044 -0.000361626212296177 -4.81075420079182e-05 -0.000632503778044629 -3.38338036533913e-05 0.000174433516322652 0.000156570815690888 -7.11030319344438e-05
"88" 0.000619985956684552 0.00062811494620477 0.00316269195736593 0.000964740781428874 0.0016272486844875 0.000821790596623459 0.0002041887304609 0.000536506854912162 0.000512816545450872 -0.000380908680842408 -4.74282310751653e-05 -0.000658258608103009 -3.83946313334508e-05 0.000170431291507037 0.000159297036966023 -7.03943237016262e-05
"89" 0.000630063867876345 0.000621118224024419 0.00317191950697776 0.000945666748162347 0.00162724539312008 0.000821258172968471 0.000214207787123468 0.000536379126279441 0.000515894200578027 -0.000400079983693045 -4.63136002630197e-05 -0.00068368599364756 -4.26828358470668e-05 0.000166457356114933 0.000161974425370688 -6.91938328799043e-05
"90" 0.000640394153524574 0.000613582173609855 0.00317713545058727 0.00092699325003706 0.00162604944295315 0.000820089929763648 0.0002236708859448 0.000536078074566599 0.000518478263520671 -0.000419052770490837 -4.47746386808857e-05 -0.000708587907405663 -4.66887428049132e-05 0.000162476560606399 0.00016458936311161 -6.75312743538686e-05
"91" 0.000650927877603951 0.000605569759767402 0.00317841500589475 0.000908636393892371 0.00162366323426482 0.000818326855800829 0.000232734082152403 0.000535614469409826 0.000520521182845826 -0.000437750664839244 -4.28255253733486e-05 -0.000732755352766394 -5.04008412865719e-05 0.000158440842711047 0.000167119568379449 -6.54444241921189e-05
"92" 0.000661628647327874 0.000597161698837887 0.00317585774378717 0.000890528007704716 0.00162009499896873 0.000816003918063955 0.000241547497464832 0.000535003727800421 0.000521986582913157 -0.00045608070461727 -4.04807190330295e-05 -0.000755994294227421 -5.38125609641008e-05 0.000154320260154904 0.000169552743280207 -6.29626605126791e-05
"93" 0.000672447673148699 0.00058841843980807 0.00316960284829367 0.000872589913387774 0.001615364918274 0.000813164399298575 0.000250260140695936 0.000534266596520473 0.000522842737494177 -0.000473955222894705 -3.7766529813204e-05 -0.000778109690995683 -5.69108964597285e-05 0.000150066549785215 0.000171860297386496 -6.01274124527539e-05
"94" 0.000683349077093813 0.000579416997897562 0.00315980660292424 0.000854749180236549 0.00160950386806668 0.000809850733350857 0.000259003144559993 0.000533420580549517 0.000523068873736439 -0.000491282450555729 -3.46991915511322e-05 -0.000798912576291806 -5.96883534412382e-05 0.000145643594416993 0.000174017656840314 -5.69692976414319e-05
"95" 0.000694285043024557 0.000570225010601327 0.0031466482543555 0.000836944932888411 0.0016025608292638 0.000806107552692747 0.000267903058733946 0.00053248991488124 0.00052265093625221 -0.000507970900012052 -3.13069188800529e-05 -0.000818225571100826 -6.2127300856134e-05 0.000141016086115932 0.000176002806736659 -5.35224399837479e-05
"96" 0.000705224691732103 0.00056091413535128 0.00313033341487871 0.000819112007453001 0.00159459072317746 0.000801984962800136 0.000277081673110299 0.000531503995195012 0.000521583708731581 -0.000523924368901152 -2.76145341469593e-05 -0.000835882050307997 -6.4217738461603e-05 0.000136143953347447 0.000177784281102685 -4.98227771191949e-05
"97" 0.000716132225086406 0.000551549645210964 0.00311107896562262 0.000801201193152229 0.00158566000908193 0.000797525295842508 0.000286636793119245 0.000530485603798675 0.000519869461849967 -0.000539060359082511 -2.36543921744977e-05 -0.000851723241740149 -6.59459208244401e-05 0.000130999854453269 0.000179335135133223 -4.589978888489e-05
"98" 0.000726973106017303 0.000542202789945251 0.00308911616955762 0.000783175791756939 0.00157584185778993 0.000792778619945417 0.000296664107871623 0.000529464439521616 0.000517522859690181 -0.000553283666327416 -1.94540973050129e-05 -0.000865611344961538 -6.72943753855198e-05 0.000125559372458184 0.000180627179628157 -4.17835267436313e-05
"99" 0.000737721684376156 0.000532938590325307 0.00306469524719697 0.000764999693851538 0.00156522570500607 0.000787791865433533 0.000307230211909614 0.000528475208670279 0.000514562042232841 -0.000566513575903624 -1.50476297583546e-05 -0.000877416037646874 -6.82464567533343e-05 0.00011979586081598 0.000181630071666786 -3.75007849420084e-05
"100" 0.00074835600094728 0.000523811769135027 0.00303807467703417 0.000746648031242782 0.00155391020819794 0.000782613283579827 0.00031839892477815 0.000527548209726101 0.00051101001277997 -0.000578664145635895 -1.04701751303384e-05 -0.000887025346321714 -6.87841725440055e-05 0.000113691116395963 0.000182314914352288 -3.30774977486161e-05
"101" 0.000758850652603015 0.00051488803459234 0.00300951032845911 0.000728115290506737 0.00154199296409832 0.000777287008125759 0.000330205915408054 0.000526716026113951 0.000506903955769378 -0.000589662445240896 -5.75473462244896e-06 -0.000894351970235748 -6.88908951479881e-05 0.000107237518981734 0.000182655226653234 -2.85341829738267e-05
"102" 0.000769188628154074 0.000506219158862738 0.00297927262953044 0.000709396216038112 0.00152959085956362 0.000771861363563691 0.000342678665037149 0.000526014153451251 0.00050227986843229 -0.000599434676087456 -9.39788083033499e-07 -0.000899314755067326 -6.85449422555266e-05 0.000100422977724549 0.000182620065422119 -2.38932977933777e-05
"103" 0.000779363815371708 0.000497852416537385 0.00294762635423596 0.000690505058454319 0.001516817388482 0.000766377059671216 0.000355817128121973 0.000525476037383054 0.000497183259241771 -0.00060791386792102 3.94052724913086e-06 -0.000901858925194054 -6.77320203465281e-05 9.32478316439395e-05 0.000182186068920749 -1.91689764084642e-05
"104" 0.000789362476800025 0.000489839642072648 0.0029148408624025 0.000671474050378829 0.00150379446647234 0.000760877985107394 0.000369613426871472 0.000525136781627921 0.00049166644331438 -0.000615037800079629 8.84418677372779e-06 -0.000901950202995581 -6.64300230569877e-05 8.57116907808762e-05 0.000181326953837442 -1.43761233690975e-05
"105" 0.000799181373112019 0.000482212254836558 0.00288117987571648 0.000652324907650265 0.00149064854179204 0.000755404432226686 0.000384037028787632 0.000525027613807976 0.000485782048357157 -0.000620758517190011 1.37343733881769e-05 -0.000899568569182589 -6.46225053921168e-05 7.78271868429201e-05 0.000180016619625029 -9.52402190555032e-06
"106" 0.000808818884107568 0.00047501495216384 0.00284689650478922 0.000633117105462381 0.00147751392019114 0.000749993291934195 0.0003990355375761 0.000525187205834661 0.000479586601542 -0.000625024336402025 1.85733903132769e-05 -0.000894722369480321 -6.22907796494223e-05 6.96078886953032e-05 0.000178234631810319 -4.62350747524769e-06
"107" 0.000818276970410975 0.000468275535305561 0.00281224658309829 0.000613911273056601 0.00146451482968031 0.000744677658328798 0.000414548321920355 0.000525643388819455 0.000473146154040062 -0.000627798464825344 2.33190535090561e-05 -0.000887436720365407 -5.94184368496718e-05 6.10731529312024e-05 0.00017596254285604 3.23719921832551e-07
"108" 0.0008275592660508 0.000462017918786583 0.00277746578483004 0.000594770572296155 0.00145179024509872 0.000739492174406396 0.000430493982751929 0.000526429846501203 0.000466518410979949 -0.000629049693987506 2.79361971748012e-05 -0.000877754275007591 -5.59903909575833e-05 5.22444495199287e-05 0.000173180485721894 5.31251258993556e-06
"109" 0.000836676045130616 0.000456261200008368 0.00274278799047788 0.000575784169296621 0.00143946597609873 0.000734465204797968 0.000446775517159927 0.000527573004777755 0.000459769928028013 -0.000628754173376694 3.23797456916478e-05 -0.000865746682816479 -5.19928349042914e-05 4.31532186511763e-05 0.000169875632810071 1.03443084819875e-05
"110" 0.000845634805355884 0.000451016904927227 0.00270843317944322 0.000557034900787656 0.00142767498218629 0.000729622106919481 0.000463288385651406 0.000529102717458478 0.000452966891518409 -0.000626895873417619 3.66172320815866e-05 -0.000851499058674808 -4.74148195641087e-05 3.38274157857983e-05 0.000166030809825685 1.5418864356465e-05
"111" 0.000854447070254029 0.000446293872097046 0.00267460051274064 0.00053862061945694 0.00141654194293708 0.000724988017420814 0.000479906572873335 0.000531040461494455 0.000446172017596929 -0.000623470957571306 4.06039718795894e-05 -0.000835117457213302 -4.22477217843813e-05 2.43024294362834e-05 0.00016163639565089 2.05403765794305e-05
"112" 0.000863124722594327 0.000442090813615976 0.00264148322224431 0.000520647966157033 0.00140619544500119 0.000720579385583021 0.000496498389575091 0.000533409776049244 0.000439449190456021 -0.000618478917214713 4.43045693564545e-05 -0.000816727646812939 -3.64869554464839e-05 1.46192470190865e-05 0.000156682368904525 2.57133803729822e-05
"113" 0.000871683103374567 0.00043840262244378 0.00260925712988747 0.000503225763584657 0.00139674785046343 0.000716417886582724 0.000512921108609597 0.000536228578941033 0.000432866779462574 -0.000611929557498154 4.76833160972823e-05 -0.000796475211042786 -3.0128768296599e-05 4.81445725685136e-06 0.00015116888510711 3.09424693947946e-05
"114" 0.000880136393302383 0.000435213208526713 0.00257808533159472 0.00048646332405782 0.00138831471983502 0.000712515736749483 0.000529028776679223 0.000539512517541416 0.000426480909360205 -0.000603839087656159 5.06971191904583e-05 -0.000774518067240999 -2.31750541234187e-05 -5.07347658217087e-06 0.000145082945361211 3.62367879157902e-05
"115" 0.00088849560795057 0.000432511452947822 0.00254810176550625 0.000470486826795039 0.00138100023349997 0.000708883081024878 0.000544661125080332 0.000543272056796945 0.000420352018578092 -0.000594234250576287 5.33197434316952e-05 -0.000751035371057742 -1.56326348370706e-05 -1.49968919769378e-05 0.000138431519167932 4.15981288823721e-05
"116" 0.000896773615089052 0.000430262909864195 0.00251943900063245 0.000455394371263146 0.00137490503818866 0.000705530183503942 0.000559662067355206 0.000547517476632442 0.00041453641907299 -0.000583145560508587 5.5511110712725e-05 -0.000726216904481928 -7.51224517798035e-06 -2.4920645587232e-05 0.000131212245641937 4.70381090977828e-05
"117" 0.000904984820844345 0.000428446293897468 0.00249220369336995 0.000441324421229194 0.0013701156234128 0.00070245870639307 0.000573865761893664 0.000552249913326634 0.000409085568576753 -0.00057061697598148 5.72421599280085e-05 -0.000700269363625176 1.17364654161411e-06 -3.47961608249187e-05 0.000123431070162472 5.25608290952089e-05
"118" 0.000913142269280843 0.000427016968400938 0.00246648919227843 0.000428378569824302 0.00136671168736727 0.000699674346564639 0.000587117199201446 0.000557470458840888 0.000404046033470926 -0.00055669566258636 5.84750995899312e-05 -0.000673404109770132 1.04075662034659e-05 -4.45917649175122e-05 0.000115092799580537 5.81690950332932e-05
"119" 0.000921245266705773 0.000425937292662943 0.00244237168153809 0.000416667008543931 0.00136476001678537 0.000697175960162794 0.00059924951795208 0.000563175133208883 0.000399464412561352 -0.000541435154696444 5.91853396005075e-05 -0.00064584937412533 2.01579504611596e-05 -5.42637081712017e-05 0.000106202496647659 6.38709500778361e-05
"120" 0.000929306564472971 0.000425149732958607 0.00241990968266979 0.000406292732647052 0.00136432919669381 0.000694963588868658 0.000610110220738939 0.000569358569110047 0.000395376314972801 -0.00052489668007422 5.93462676603912e-05 -0.000617832197010406 3.04003820376163e-05 -6.37818139942169e-05 9.67744892783349e-05 6.96629816420674e-05
"121" 0.000937328750199534 0.000424609342259894 0.00239914666665414 0.000397365726675014 0.00136546017316094 0.000693030208151131 0.000619547847473336 0.000576003387058085 0.00039181587219565 -0.000507150640065656 5.89257618176027e-05 -0.000589592731685531 4.10992412142319e-05 -7.31092750882622e-05 8.68169137329489e-05 7.55514379647898e-05
"122" 0.000945310553893058 0.000424250563567673 0.00238010622182646 0.000389961123586457 0.00136819264664023 0.000691370965891596 0.000627419775933166 0.000583097917812318 0.000388812856539115 -0.000488268519957556 5.79055350413469e-05 -0.000561367796264916 5.22158816433315e-05 -8.2221180834782e-05 7.63493798739404e-05 8.15306229013371e-05
"123" 0.000953246407630671 0.000424013138755183 0.00236280282136888 0.000384171910308948 0.00137254854869238 0.000689975184972037 0.00063359261053744 0.000590619759948357 0.000386388060165334 -0.000468329215386012 5.62609170584674e-05 -0.00053340117914413 6.37035451838962e-05 -9.10879398395404e-05 6.53846195994661e-05 8.75970822851067e-05
"124" 0.00096113082758479 0.00042382280495391 0.00234723098960325 0.000380057477296459 0.00137854604334467 0.000688835433993752 0.000637940918170972 0.00059854919440967 0.000384557269587668 -0.000447418592428745 5.39730881063343e-05 -0.000505928779016931 7.55137609755102e-05 -9.96922896183403e-05 5.39369675890265e-05 9.37454475106845e-05
"125" 0.000968956173795706 0.000423615398252092 0.00233337800366222 0.000377687721618213 0.00138618669999524 0.000687937726863127 0.000640355619017751 0.000606855353171344 0.000383330095027251 -0.000425623194073774 5.10266539975826e-05 -0.000479184275125054 8.75903799742536e-05 -0.000108018611731643 4.20301854383483e-05 9.99664577321024e-05
"126" 0.000976704427319599 0.000423314431541599 0.00232120499109229 0.000377099963034186 0.00139545679986651 0.000687269261396889 0.000640740107810792 0.000615512301404496 0.000382710116084415 -0.000403037765016362 4.7405027281738e-05 -0.000453397609485102 9.98789334176778e-05 -0.0001160524152781 2.96803921887982e-05 0.000106244980121415
"127" 0.000984357863253537 0.000422842617762862 0.00231067314230271 0.000378336225523898 0.00140633816567197 0.000686810998867554 0.000639009951946675 0.000624483483278445 0.000382699377340107 -0.000379757771819509 4.30992105805179e-05 -0.000428789328626235 0.000112315258296009 -0.000123787638087845 1.69117060165143e-05 0.00011257032939055
"128" 0.000991893441202992 0.000422119984396012 0.00230172263501259 0.000381414227952338 0.00141879748777882 0.000686548501581885 0.000635100259206979 0.000633737703996834 0.000383288028357985 -0.000355883386200747 3.80997880774731e-05 -0.000405567504612273 0.000124835153185296 -0.00013121621579948 3.74840621227141e-06 0.00011892052542586
"129" 0.000999288455717708 0.000421068643813094 0.00229429088744809 0.000386338192598708 0.00143278850613879 0.000686462114847772 0.000628956930393376 0.00064323713916028 0.000384460247195137 -0.000331516531607562 3.24007281977292e-05 -0.000383928523291297 0.000137370181068164 -0.00013834461325762 -9.78983852905686e-06 0.000125277525909448
"130" 0.00100651233257041 0.000419608187583527 0.00228829807622876 0.000393105035186345 0.00144825907314099 0.000686534812308349 0.000620552579102836 0.000652939523788932 0.000386200806837743 -0.000306763390520202 2.60007602250688e-05 -0.000364055338831656 0.000149846168615641 -0.000145175038338496 -2.36759436293903e-05 0.000131617221745957
"131" 0.00101353069570783 0.000417663581369592 0.0022836564251014 0.000401696500950699 0.00146514070384532 0.000686738154306336 0.000609873259678337 0.000662809455789367 0.0003884799270039 -0.000281725486905017 1.89010801015633e-05 -0.000346108787959417 0.000162198049736463 -0.000151714223670645 -3.78816014857964e-05 0.00013791525281696
"132" 0.00102030663814356 0.000415154382200358 0.0022802720241786 0.000412070350221667 0.00148335992045777 0.000687055036005221 0.0005969129741205 0.000672802482375615 0.000391271901796559 -0.000256513562221002 1.11039782664235e-05 -0.000330239439357759 0.000174348417857433 -0.000157975671310537 -5.23785915902929e-05 0.000144140201887462
"133" 0.00102680513888498 0.000412013045745292 0.00227804243371814 0.00042418578133776 0.001502831397341 0.00068745908110092 0.000581703995080711 0.000682881807641034 0.00039454337212808 -0.000231231728881868 2.61894221450601e-06 -0.000316573739163368 0.000186226438524623 -0.000163974972699917 -6.71403479340565e-05 0.000150264025432905
"134" 0.00103298047623227 0.000408162517490391 0.00227685738591021 0.000437982507594626 0.00152346334137441 0.00068792406183854 0.000564281211785943 0.000693001339321823 0.00039825325730192 -0.000205989457567441 -6.54583349186711e-06 -0.000305211503369529 0.00019776159616201 -0.000169725609829186 -8.21382153604995e-05 0.000156254847218693
"135" 0.00103879277888909 0.000403538928372547 0.00227660169916662 0.000453380365522016 0.00154515384549239 0.000688425662677633 0.000544699766238732 0.000703122649825025 0.000402359072390216 -0.000180890487109165 -1.63713979741103e-05 -0.000296245107853512 0.000208875491762225 -0.000175248050951836 -9.73406120231342e-05 0.000162078488607695
"136" 0.00104419340227326 0.000398078104756803 0.0022771558723499 0.000470305718764101 0.00156779186860948 0.000688933439537033 0.000523033990629464 0.000713206011458646 0.000406817010478883 -0.000156041983491936 -2.68467412538413e-05 -0.000289732783270754 0.000219499908493457 -0.000180564795166307 -0.000112713893992609 0.000167701460550429
"137" 0.00104913503240289 0.000391735038817176 0.00227839612367632 0.000488656794229597 0.00159126808217009 0.000689417222274872 0.000499375988987996 0.000723209267720447 0.000411577631558477 -0.000131548486094577 -3.79423176311701e-05 -0.000285710449909173 0.000229574497238171 -0.000185690186890828 -0.000128225592704535 0.000173085805809884
"138" 0.00105357307592589 0.000384453644785025 0.00228019513877063 0.00050833315845146 0.00161545574511546 0.000689850079674429 0.000473831397033909 0.000733098714076067 0.000416594286577471 -0.000107505538866876 -4.96392513135022e-05 -0.000284194659183866 0.000239027724678617 -0.000190650737207481 -0.000143842061968113 0.000178198436224912
"139" 0.00105745716707409 0.000376200217047329 0.002282423573021 0.000529219118704596 0.00164023455265445 0.00069019897731459 0.000446525357509602 0.000742835535025248 0.000421811697732582 -8.40149298410397e-05 -6.1905168346563e-05 -0.000285173423046941 0.00024780513008574 -0.000195460886908141 -0.000159527815187416 0.000183001252057722
"140" 0.0010607408981297 0.000366933312533744 0.0022849521597974 0.000551190550909402 0.00166547337522301 0.00069043208875914 0.000417584097872627 0.000752387015076014 0.000427178441571275 -6.11686245329438e-05 -7.47102450312102e-05 -0.000288621095631004 0.000255844803322485 -0.000200140445500289 -0.000175247148196307 0.000187460665880113
"141" 0.00106337548761644 0.000356640280365069 0.0022876516517724 0.000574126361680064 0.00169103929700642 0.000690518465422523 0.000387158538837058 0.000761723651817795 0.000432646068336626 -3.90572688789831e-05 -8.80180116445231e-05 -0.000294476438111938 0.000263103340485359 -0.000204707130287743 -0.000190959479628091 0.000191542833562919
"142" 0.00106532122475194 0.000345299798123538 0.00229039454734223 0.000597890718611604 0.00171679634487568 0.000690422602096351 0.000355404569146338 0.000770811684517677 0.000438159775990754 -1.77650508981896e-05 -0.000101793267113029 -0.000302668313129189 0.000269528799210954 -0.000209178817889195 -0.000206633643370069 0.000195212169052374
"143" 0.00106652373953645 0.000332911022269843 0.00229304822894288 0.00062234574078776 0.00174260909372581 0.000690113274306709 0.000322489340571447 0.000779629989525518 0.000443670463366841 2.62750965510176e-06 -0.000115993622225138 -0.000313101453681543 0.000275084200339423 -0.00021356456754017 -0.000222224579973191 0.000198439295815136
"144" 0.00106694431603858 0.000319474655499598 0.0022954929972759 0.000647347606724496 0.00176834490380336 0.000689556007822649 0.000288588950785693 0.000788152877379537 0.000449129586493445 2.2046797577503e-05 -0.000130574827084141 -0.000325654545309521 0.000279738052742 -0.000217873067850154 -0.000237692233503649 0.000201196587392119
"145" 0.00106654711630168 0.00030501345660724 0.00229760579150419 0.000672762345184527 0.00179386205964019 0.000688713384589328 0.000253883792035471 0.000796360442924123 0.000454492424206327 4.04205372084596e-05 -0.000145491843963557 -0.0003402003417662 0.000283463068997617 -0.000222110374305892 -0.000252999209370876 0.000203456113830228
"146" 0.00106529271192355 0.000289549119256939 0.00229926794290021 0.000698442596390525 0.00181903056182584 0.000687559960903743 0.000218558467195881 0.000804237449730354 0.000459713305542819 5.76921275415999e-05 -0.000160692771678585 -0.000356585900902359 0.000286239504100698 -0.000226281661341498 -0.000268101603515417 0.000205193404293594
"147" 0.00106315003046923 0.000273116880898576 0.00230036805539802 0.000724245428817431 0.00184371688334263 0.000686056731562778 0.000182800880549937 0.000811768954483831 0.000464755506341931 7.38053457020681e-05 -0.000176130509374662 -0.000374645865710366 0.000288054743629457 -0.000230382946561342 -0.000282956966999459 0.000206388294909046
"148" 0.00106008847684708 0.000255756400272098 0.00230080098587907 0.000750029689559946 0.00186779227450788 0.000684174913162341 0.000146799595716226 0.000818942984627073 0.00046957856374389 8.87071869261574e-05 -0.000191753705282571 -0.000394205244228854 0.000288902648819896 -0.000234406635393161 -0.000297526625563828 0.000207027115339111
"149" 0.00105608407209004 0.000237531123593936 0.00230046499930601 0.000775658002296664 0.00189113334780392 0.000681877985266995 0.000110743491663586 0.00082575261964412 0.000474152432365465 0.000102361552475432 -0.000207506444634113 -0.000415075954226972 0.00028878610633851 -0.000238342865571413 -0.000311764739560695 0.000207096705535959
"150" 0.0010511195201211 0.000218495393306753 0.00229927131663404 0.000800989887619727 0.00191361573632767 0.0006791422762075 7.482279280453e-05 0.000832192753642216 0.00047845105432627 0.000114731908728433 -0.000223337901877889 -0.000437060742752992 0.000287712375052977 -0.000242180761406517 -0.000325634965461161 0.000206586600019728
"151" 0.00104517656636564 0.000198723898478825 0.00229713261745878 0.000825904265502381 0.00193513116433859 0.000675937790922206 3.92187796044312e-05 0.000838265441628589 0.000482447338972023 0.000125796794872207 -0.00023919184123682 -0.000459955529473421 0.000285698118036453 -0.000245902865546318 -0.000339090248513435 0.000205494943712971
"152" 0.00103825085856795 0.000178294297210616 0.00229397446579057 0.000850277116721874 0.00195556892159878 0.000672233264133518 4.10992497388681e-06 0.000843967385751064 0.000486121981893327 0.000135533879342371 -0.00025501417647477 -0.000483554058611373 0.000282765127394621 -0.000249483554923724 -0.00035209326516105 0.000203821000794307
"153" 0.00103033213379835 0.000157291054979922 0.00228972741450505 0.000873984373392569 0.0019748287561831 0.000668007857326091 -3.03291938305214e-05 0.000849302551646091 0.000489463168015831 0.000143933699475133 -0.000270750297195452 -0.000507643612066027 0.000278941721096363 -0.000252899627197261 -0.000364602355881135 0.000201571755023156
"154" 0.00102142557088878 0.00013580707091417 0.00228433843820649 0.000896915440885325 0.00199282016124751 0.000663237125662831 -6.39351515726039e-05 0.000854278950349994 0.000492457641042717 0.000150996120139372 -0.000286349552112219 -0.000532012689202319 0.00027426327474299 -0.000256122953033606 -0.000376581534285821 0.000198756870296511
"155" 0.00101153921418041 0.000113932536336635 0.00227775736032429 0.000918964789558996 0.00200945570612175 0.000657900025243144 -9.65546202496918e-05 0.000858904859981776 0.000495097836807171 0.000156722877748053 -0.000301760449095429 -0.000556452746869112 0.000268767588500891 -0.00025912318383143 -0.000387993952138415 0.000195391601405894
"156" 0.0010006895040441 9.17727581493162e-05 0.00226994778943928 0.000940044982313268 0.00202466274837009 0.000651981361022694 -0.000128041752590511 0.000863189843499552 0.000497384110882264 0.000161130423269588 -0.000316934535900785 -0.000580752321075685 0.000262504652459354 -0.000261863966592898 -0.00039880257462982 0.0001914938873618
"157" 0.000988890243666944 6.94344669163581e-05 0.00226088702171542 0.000960066169212522 0.00203837603382066 0.000645460624905915 -0.000158258293315674 0.00086714678184771 0.000499314143513877 0.000164235946075406 -0.000331821499487099 -0.000604711964636154 0.000255523394807316 -0.000264306042440635 -0.000408975942705916 0.000187087676661448
"158" 0.000976165115906981 4.70130059317892e-05 0.00225055422718339 0.000978947037095101 0.00205053732797472 0.00063832835771906 -0.000187085397213787 0.000870786886284117 0.000500895029162046 0.000166069305667725 -0.000346380716228994 -0.000628133810352008 0.000247877476635833 -0.000266420416014187 -0.000418483290398778 0.000182204602054782
"159" 0.000962547164884572 2.46278673932417e-05 0.00223894863274244 0.000996633916891929 0.0020610993933629 0.000630571904351043 -0.000214416079068404 0.000874126061209563 0.000502131799919769 0.000166662507119466 -0.000360571578096105 -0.000650833200194063 0.000239625022786396 -0.000268159130226636 -0.000427301336337721 0.000176874427854942
"160" 0.000948071838880967 2.37436133479804e-06 0.00222607116276435 0.00101306124067067 0.00207002767811744 0.000622187261102375 -0.000240149094770344 0.000877178073785896 0.000503035968741715 0.000166053887788988 -0.000374357561955823 -0.000672631080991843 0.000230829514279074 -0.000269487634009106 -0.000435405193343384 0.00017113630871925
"161" 0.000932778238821076 -1.96380933858304e-05 0.00221194423595657 0.00102818282958914 0.00207729587765532 0.000613170632597117 -0.000264205421303274 0.000879963297952972 0.000503617004643983 0.000164293879872288 -0.000387708603898963 -0.00069335814274932 0.00022155552017028 -0.000270371334899896 -0.000442771531138248 0.000165027330686245
"162" 0.00091671116132983 -4.13003740290294e-05 0.00219659381407663 0.00104197486407216 0.00208288754559643 0.000603518843215411 -0.000286511642091756 0.000882491959022131 0.000503891053830333 0.000161434376421945 -0.000400590296091868 -0.000712859967034462 0.000211868212107813 -0.000270762155242581 -0.00044938729032559 0.000158593436697289
"163" 0.000899921330397821 -6.25151656019481e-05 0.00218005292798909 0.00105439664695298 0.00208679734479793 0.00059323718648147 -0.000307020119688844 0.000884785222275557 0.000503868711766021 0.000157528863503327 -0.000412985598466014 -0.000730997561587275 0.000201835920424385 -0.000270629028363163 -0.000455238986449829 0.000151883749619888
"164" 0.000882461045843144 -8.31793017465645e-05 0.00216237386344147 0.00106545117253556 0.00208902918038186 0.000582329207305428 -0.000325681114932912 0.000886857122152632 0.000503569323234407 0.00015264388616818 -0.000424872991806527 -0.000747638315549693 0.000191528258512954 -0.000269935429609303 -0.00046031849398185 0.000144942744374587
"165" 0.000864390939153118 -0.000103201802666624 0.00214360995449241 0.00107511970296193 0.00208959308367845 0.000570810805402958 -0.000342475887677209 0.00088872008126259 0.000503008859022295 0.000146843940873914 -0.000436238557067923 -0.000762672853000164 0.000181012309071143 -0.000268652179118572 -0.00046462282272891 0.000137823088833609
"166" 0.000845770099336951 -0.00012249068248367 0.00212382818671638 0.00108341722208833 0.00208851528902613 0.000558688011373752 -0.0003573861722626 0.000890390682636915 0.000502202792081444 0.000140200237840024 -0.000447079335785781 -0.000776004820186319 0.00017035617397072 -0.000266746216384922 -0.000468152368223606 0.000130580238223866
"167" 0.000826662349488738 -0.000140965419274396 0.00210309647776743 0.00109035499062477 0.0020858215797164 0.00054597865304257 -0.000370418821265656 0.000891881406811955 0.000501166933324649 0.000132786557406605 -0.000457392745080624 -0.000787554712380937 0.000159625851516863 -0.000264195467714872 -0.000470915706442475 0.000123263641693882
"168" 0.000807137385094597 -0.000158546022982882 0.0020815037730141 0.00109596190185247 0.00208155710095893 0.000532707558446705 -0.000381581514479659 0.000893203840174908 0.000499918339076071 0.000124682822221204 -0.000467179652464066 -0.000797254108871772 0.000148890397168597 -0.000260982486932879 -0.000472923407050599 0.000115930127394174
"169" 0.000787260495288779 -0.000175160392598879 0.00205912629022567 0.001100267348415 0.00207576434193234 0.000518895164014933 -0.000390901516433031 0.000894364337352015 0.000498470021393937 0.000115961185529861 -0.000476450285755293 -0.000805059425510915 0.000138208896284757 -0.000257083954951108 -0.000474188139272482 0.000108633747145592
"170" 0.00076710322591144 -0.000190748508754348 0.00203606422337698 0.00110331749101444 0.00206849651780827 0.000504566257515217 -0.000398420578864961 0.000895374468088128 0.000496836381179936 0.000106705117206244 -0.000485217847742907 -0.000810940451828764 0.000127639765493702 -0.000252497994510633 -0.000474732631437364 0.000101425730037274
"171" 0.000746736583173004 -0.000205248353764205 0.00201241452643795 0.00110515656783776 0.00205981394319702 0.000489753242319994 -0.000404183643162643 0.00089623905425806 0.000495033402487898 9.69987713356126e-05 -0.000493503815868427 -0.000814879017408427 0.000117246101021612 -0.000247218504055809 -0.00047458296783683 9.43602930066553e-05
"172" 0.000726235492776281 -0.00021861539841689 0.00198827325942339 0.0011058392624789 0.00204978178457245 0.000474490310221134 -0.000408251238629858 0.00089695858870381 0.000493070531114505 8.69218925234978e-05 -0.000501335050150028 -0.000816882985256492 0.000107074965175828 -0.000241248371614815 -0.000473771922166254 8.74873175442236e-05
"173" 0.000705666649635395 -0.000230813327769202 0.00196374752735282 0.0011054247247036 0.00203846595522779 0.000458815775308458 -0.000410695229837441 0.000897535800949471 0.00049095884367744 7.65583421261526e-05 -0.000508734050420013 -0.000816969296181599 9.71756012357638e-05 -0.000234597763817152 -0.000472332674338321 8.08571524963971e-05
"174" 0.000685108696664152 -0.000241809301557075 0.00193893918921337 0.00110397615528222 0.00202594483659474 0.000442766607543925 -0.000411589507021781 0.000897968527949349 0.000488708267470342 6.59893733022186e-05 -0.000515742131805905 -0.000815173904092113 8.75931699382413e-05 -0.000227283694128861 -0.000470306498832017 7.45146504530474e-05
"175" 0.000664631101254696 -0.000251583432176127 0.00191396055754684 0.00110155954373689 0.00201229046431769 0.000426388179171417 -0.000411026512129691 0.000898254993515826 0.000486326141809177 5.52949328517332e-05 -0.000522395208478087 -0.000811546294447385 7.83647560309854e-05 -0.000219334179303832 -0.000467739971430139 6.84996782935993e-05
"176" 0.000644300615813267 -0.000260119007242895 0.00188891051260459 0.00109824631267208 0.0019975864165245 0.000409725793407513 -0.000409094246444849 0.000898385130688531 0.000483817945218824 4.45574514444122e-05 -0.000528733639097616 -0.000806151074344926 6.95238895576584e-05 -0.000210774842691825 -0.000464680625317718 6.28564660529301e-05
"177" 0.000624191217348128 -0.000267419456551017 0.00186390055990655 0.00109410085865317 0.00198191346064532 0.000392829355369726 -0.000405889261924121 0.00089835576225259 0.000481190948366894 3.38539521075345e-05 -0.00053480704794248 -0.000799063335464077 6.11007718012149e-05 -0.000201649693807464 -0.00046118240071615 5.76187226964114e-05
"178" 0.000604367018397832 -0.000273485754455807 0.00183902591512671 0.00108919445628316 0.0019653507649147 0.000375752054607042 -0.000401525023066138 0.000898150352824008 0.000478450441482423 2.32594049468118e-05 -0.000540656288128222 -0.000790378498482046 5.31138820688521e-05 -0.000192006790319662 -0.000457299279258015 5.28153785170219e-05
"179" 0.000584893597832369 -0.000278337330285109 0.00181439112708733 0.00108360571364395 0.00194798098789152 0.000358544433473068 -0.000396099431871756 0.000897760480244826 0.000475599570151862 1.28478434946081e-05 -0.00054634005264714 -0.000780194157417919 4.55864557194538e-05 -0.000181896069490777 -0.000453094263344229 4.84754233279457e-05
"180" 0.000565828702849944 -0.000281998195157176 0.00179008913645862 0.00107738609510934 0.00192989193728881 0.000341266966929704 -0.0003897376043708 0.000897171164493239 0.000472635148187362 2.68557583574922e-06 -0.000551905985225593 -0.000768624510205332 3.85195557114187e-05 -0.000171383683007098 -0.000448631991695658 4.46218665328571e-05
"181" 0.000547236506417525 -0.000284502322840509 0.00176620971894518 0.00107060906070235 0.00191116148203339 0.000323975067212839 -0.000382540579769157 0.000896364051492264 0.000469563263973971 -7.15788704087074e-06 -0.000557407598901551 -0.000755788512339377 3.19277985634688e-05 -0.000160532014758636 -0.000443971821435415 4.12690901933698e-05
"182" 0.000529166584111897 -0.000285889774303036 0.00174283589788211 0.00106333160174115 0.00189187308712892 0.000306733710093538 -0.000374631080970721 0.000895323361833552 0.000466385484790339 -1.66233081006811e-05 -0.000562899975422361 -0.000741812016533229 2.58064741683134e-05 -0.000149418911696004 -0.00043918276461196 3.84295289720166e-05
"183" 0.000511673547788988 -0.000286215918009177 0.00172005034549557 0.00105561111502988 0.00187210893713379 0.000289599050191861 -0.000366122870942099 0.000894029454519636 0.000463098734833722 -2.56535093648678e-05 -0.000568438663481795 -0.000726833146357775 2.0151674158811e-05 -0.000138124562058281 -0.000434334737073189 3.61094915427967e-05
"184" 0.000494806956400438 -0.000285534295563748 0.00169791754075369 0.00104750147742039 0.00185194381402132 0.000272635251802302 -0.000357137828846047 0.000892464324508362 0.000459701693037018 -3.4194209654336e-05 -0.000574074173291246 -0.00071098906712826 1.49529519876331e-05 -0.000126729815628516 -0.000429493393724941 3.43119825122155e-05
"185" 0.000478600141198383 -0.000283917843955356 0.00167650584878617 0.00103904192211029 0.00183145472321048 0.00025590872373441 -0.000347782634273375 0.000890608269294443 0.000456197665343447 -4.2197371374744e-05 -0.000579861782365782 -0.0006944218622069 1.0192423897549e-05 -0.000115326620240033 -0.00042473048959566 3.30313555397342e-05
"186" 0.000463100069713288 -0.000281434674458242 0.0016558663801485 0.001030280196376 0.00181071244424844 0.000239481029092025 -0.000338179964934008 0.000888439370906604 0.000452582038781221 -4.96226032599107e-05 -0.000585847051995141 -0.00067727538235113 5.85594964340024e-06 -0.000104004484230421 -0.000420110597198733 3.22592050063806e-05
"187" 0.000448338826344621 -0.000278166789000595 0.00163604702859557 0.00102124746798269 0.00178979543039314 0.000223416165536539 -0.000328433334424916 0.000885940737604506 0.000448853961899016 -5.64294489490528e-05 -0.000592085576014781 -0.000659690352902827 1.91773545643381e-06 -9.28599757966363e-05 -0.000415702407584459 3.19806061274557e-05
"188" 0.000434339679197018 -0.000274193569870615 0.00161708427708288 0.00101197790106547 0.00176876619016058 0.000207776104634319 -0.00031865340851887 0.000883093400598525 0.000445014707297669 -6.25880783103561e-05 -0.00059861486181234 -0.000641807881260585 -1.64652447088405e-06 -8.19824035791377e-05 -0.000411567919071958 3.21767203234399e-05
"189" 0.000421132275637222 -0.000269609797744172 0.00159900806384575 0.00100249365450982 0.00174768993388439 0.000192623396277975 -0.000308942313569512 0.000879880780227682 0.000441064775210876 -6.8072873458553e-05 -0.000605476501639809 -0.000623772250386789 -4.86851258356705e-06 -7.14749056340407e-05 -0.000407775334312014 3.28253498949232e-05
"190" 0.000408732308682675 -0.000264511225688557 0.00158183815970996 0.000992799848273007 0.00172663562812009 0.000178021843146568 -0.000299399397619825 0.00087628739131525 0.00043700026443547 -7.28623520998852e-05 -0.000612711010306486 -0.000605708668304098 -7.77815606133086e-06 -6.14300378933426e-05 -0.000404375493938549 3.38953002758892e-05
"191" 0.000397154842178033 -0.000258989935129489 0.00156558388238174 0.000982920984272756 0.0017056604607589 0.000164030239115242 -0.000290113372047573 0.000872297694092384 0.000432824791883966 -7.69409248079725e-05 -0.000620350008354995 -0.000587752987077733 -1.04083078195801e-05 -5.19424898401399e-05 -0.000401431770256997 3.53553697809298e-05
"192" 0.00038640685538817 -0.000253150218634546 0.00155024833270933 0.000972855024778719 0.00168481964044517 0.000150703896849808 -0.000281175120208911 0.000867901821875928 0.00042853675755377 -8.03002888778216e-05 -0.000628416756129061 -0.000570020413678608 -1.27939153154948e-05 -4.31003334224383e-05 -0.000398991576226445 3.71692979613587e-05
"193" 0.000376490308143218 -0.000247085258064127 0.00153582132272953 0.000962614467962982 0.00166416861791126 0.000138096450250927 -0.00027266233988645 0.000863089426862291 0.000424143196897408 -8.29398114074446e-05 -0.000636936025339189 -0.000552627653220031 -1.49663288132658e-05 -3.49920498542642e-05 -0.000397097447325056 3.92967865160171e-05
"194" 0.000367405864199295 -0.000240899990905688 0.00152229212707939 0.000952186577179507 0.0016437631358057 0.00012626041593131 -0.000264647191338924 0.000857856779053564 0.00041964146012617 -8.48557926285552e-05 -0.000645923718910273 -0.00053567598871899 -1.69630644961771e-05 -2.77006410214852e-05 -0.000395794695342074 4.16969811211331e-05
"195" 0.00035914317154283 -0.000234695861311338 0.00150963318380555 0.00094155818585248 0.00162365093508393 0.000115248578614739 -0.000257194421410503 0.000852198026694107 0.000415038372369159 -8.60626138242312e-05 -0.00065538704446215 -0.000519258763329242 -1.88183748530038e-05 -2.13018960085522e-05 -0.000395116406444804 4.43196741198448e-05
"196" 0.000351692657447532 -0.000228568468571606 0.00149781380351997 0.000930739391370145 0.00160387604854248 0.000105095200614949 -0.000250364985100501 0.000846115477786213 0.000410340536240657 -8.65666479983591e-05 -0.000665330052519999 -0.000503459363363786 -2.05616616435478e-05 -1.58619073001042e-05 -0.000395091875392475 4.71217309308758e-05
"197" 0.000345039235330205 -0.000222613064154493 0.00148680040795843 0.000919704442913034 0.00158448798961722 9.58485814037533e-05 -0.000244203046919639 0.000839613392290134 0.00040555292699797 -8.63879984359619e-05 -0.00067574583052977 -0.000488349242214131 -2.2228853921805e-05 -1.14483446200023e-05 -0.000395744366682922 5.005014829142e-05
"198" 0.000339154164422251 -0.000216923721155845 0.00147654363817557 0.000908440599295949 0.00156552340148451 8.75414667617577e-05 -0.000238750570718128 0.000832697563731445 0.00040068459147178 -8.5549886566671e-05 -0.000686626494470952 -0.000473983445054847 -2.38438657620887e-05 -8.11096649066964e-06 -0.000397084578148495 5.30536882746491e-05
"199" 0.000334015068809592 -0.000211586707661902 0.00146699860975732 0.000896935728826241 0.00154702689047101 8.02022981937226e-05 -0.000234038415762933 0.000825379955935081 0.000395744180395034 -8.40784084689208e-05 -0.000697955423320876 -0.000460413173515668 -2.54383210568574e-05 -5.89405550413871e-06 -0.000399125828922083 5.6081561907569e-05
"200" 0.000329594715198392 -0.00020668363654105 0.00145810482161637 0.000885178896925206 0.00152903093866696 7.38588445612605e-05 -0.000230091382683687 0.000817674161379264 0.000390744407087838 -8.20049261631043e-05 -0.000709705827317784 -0.000447667520044164 -2.70325038508168e-05 -4.83389569710004e-06 -0.000401866159658525 5.90797045224581e-05
"201" 0.00032585275164198 -0.00020228751598906 0.00144980726531326 0.00087315060484895 0.00151157604530116 6.85304628965623e-05 -0.000226918421128096 0.00080959807973869 0.000385698573139519 -7.93637585517083e-05 -0.000721847505563965 -0.000435772215231103 -2.86495191676584e-05 -4.9552304182126e-06 -0.000405302104172897 6.19975820193343e-05
"202" 0.000322754740940062 -0.000198473717008566 0.00144204501481976 0.000860840412402043 0.00149469317610192 6.42307197827616e-05 -0.000224530231458066 0.000801175887389479 0.000380614649626451 -7.61910965651918e-05 -0.000734345227579742 -0.000424733895806572 -3.03053489449227e-05 -6.26889645811757e-06 -0.000409419308762954 6.47804603773003e-05
"203" 0.000320261548568815 -0.000195301813165185 0.0014347506115204 0.000848232517320012 0.00147841249902359 6.09708682770942e-05 -0.000222921730062529 0.00079243249213525 0.000375515511911397 -7.25288924483298e-05 -0.000747155978315075 -0.000414551465187402 -3.20173642137023e-05 -8.78521709904593e-06 -0.000414198700404019 6.73769129204333e-05
"204" 0.000318319576246956 -0.000192821445544742 0.00142785742946997 0.000835329302408276 0.00146276049594717 5.87485243976966e-05 -0.000222077732812191 0.000783391294352723 0.000370414704224768 -6.84218427473151e-05 -0.000760227297588297 -0.000405207687379997 -3.37931117504778e-05 -1.24869534498705e-05 -0.000419611857097911 6.97409043685374e-05
"205" 0.00031688981222419 -0.000191080730035944 0.00142130121720501 0.000822113901303102 0.00144776498624181 5.75676651175467e-05 -0.000221978660423587 0.000774083818144772 0.000365329802651206 -6.39115508780502e-05 -0.000773508569147067 -0.000396683931528023 -3.56388501748868e-05 -1.73659835671813e-05 -0.000425629591735375 7.18193567130832e-05
"206" 0.000315918702959715 -0.000190118290381799 0.0014150118343031 0.000808586608114504 0.00143345276514982 5.74161421967447e-05 -0.000222601765980085 0.000764547761986546 0.000360282802692423 -5.90502507312717e-05 -0.000786938047861043 -0.00038893859674641 -3.75620522617941e-05 -2.33883823633238e-05 -0.000432208592316041 7.35708752698406e-05
"207" 0.000315352167205746 -0.000189954895624502 0.0014089209785842 0.000794756632856404 0.00141983999136265 5.82783645524789e-05 -0.000223908196971806 0.000754814686869072 0.000355294403177754 -5.38807324658146e-05 -0.000800452145653908 -0.00038193472901889 -3.95593924736582e-05 -3.0511818522814e-05 -0.000439305044907223 7.49490925635244e-05
"208" 0.000315140287875397 -0.000190613366597142 0.00140296831691741 0.00078062199774389 0.00140694613726851 6.013554671841e-05 -0.000225857806864891 0.000744919960529028 0.000350385262234295 -4.84534927418455e-05 -0.000813986138029791 -0.000375617079926836 -4.16274794920622e-05 -3.86925448269662e-05 -0.000446870738696075 7.59161550801862e-05
"209" 0.00031522045571517 -0.000192097071203642 0.00139708461830712 0.000766193215041815 0.00139478375686133 6.29606045651364e-05 -0.00022840248238599 0.000734902505964218 0.000345578696433441 -4.28207455186582e-05 -0.000827462200418102 -0.000369928366797816 -4.37654185890434e-05 -4.78680057520595e-05 -0.000454845766179795 7.64355830818089e-05
"210" 0.000315539585507044 -0.000194407110119182 0.00139121218785869 0.000751488693002693 0.00138336520564408 6.67202031690874e-05 -0.000231488720013187 0.000724798301704013 0.000340895385939699 -3.70288461432178e-05 -0.000840809558692165 -0.000364804859408255 -4.59562571650081e-05 -5.79663483548272e-05 -0.000463174465964434 7.64738841850819e-05
"211" 0.000316039573238872 -0.00019753660205554 0.00138529248993714 0.000736522404858019 0.00137269988642123 7.13795903428068e-05 -0.000235060107991218 0.000714648383534543 0.000336362975266341 -3.11248084777753e-05 -0.000853954874085469 -0.000360174799821173 -4.81924552900538e-05 -6.89189060815149e-05 -0.000471794553517551 7.60035302017918e-05
"212" 0.000316660913695974 -0.0002014588304844 0.00137926992099815 0.000721325622244354 0.00136278790919436 7.68922905289704e-05 -0.000239056793467397 0.000704486760887703 0.000332004656091377 -2.5160690419255e-05 -0.000866814270079267 -0.000355969404248382 -5.04579099289327e-05 -8.06343772601143e-05 -0.000480634957946594 7.49987723974917e-05
"213" 0.000317347006520103 -0.000206155318477169 0.00137309752804187 0.000705913960632807 0.00135362993837838 8.32149543342931e-05 -0.000243411126284633 0.000694354088105408 0.000327840919937419 -1.91819873576043e-05 -0.000879318077102553 -0.000352111152082849 -5.27390803896681e-05 -9.30240989355647e-05 -0.000489633652198335 7.34375789694264e-05
"214" 0.000318043159295769 -0.000211586810843094 0.00136672648102 0.00069032348291382 0.00134522190722037 9.02915214275682e-05 -0.000248057677853863 0.00068428202772134 0.000323895940471175 -1.3233018433584e-05 -0.000891380920097952 -0.000348528375719111 -5.50179962094807e-05 -0.000105992429483078 -0.000498713437387329 7.1308838161472e-05
"215" 0.000318683161045 -0.000217709529480947 0.00136011747076829 0.00067458938920964 0.00133755396067024 9.80680067375161e-05 -0.000252928092193584 0.00067430622583832 0.00032019231008762 -7.35570649385111e-06 -0.000902928358948838 -0.000345139740242338 -5.72759660714677e-05 -0.00011943537053932 -0.000507809706428393 6.85989768494702e-05
"216" 0.000319218655088752 -0.000224480239628827 0.00135322911531786 0.000658745846166082 0.00133060983178819 0.000106483149429639 -0.000257954001143255 0.000664454018013768 0.000316750480608312 -1.59556313639324e-06 -0.000913884966121386 -0.000341878973824034 -5.94936877323061e-05 -0.000133246642068063 -0.000516845870185301 6.53030379209404e-05
"217" 0.000319592900148478 -0.000231840512197778 0.00134603697404199 0.000642833917128437 0.00132437045530461 0.000115472385689684 -0.000263065090360267 0.000654754243674465 0.000313589312782847 4.01024786652722e-06 -0.000924175042740821 -0.000338668859663582 -6.1651320647981e-05 -0.000147318328102914 -0.00052574990097589 6.14213071514112e-05
"218" 0.000319749060032957 -0.000239730315760545 0.00133850577326445 0.00062689760599864 0.00131881075802115 0.000124964063622105 -0.000268195747249065 0.000645227965426841 0.000310725133027663 9.42589864519159e-06 -0.000933725927144024 -0.000335443907521412 -6.37266844851799e-05 -0.000161537539311329 -0.000534454381207554 5.69557695420078e-05
"219" 0.00031964265676983 -0.000248089772913257 0.00133061819624453 0.000610977833238922 0.00131389721010723 0.000134892638890654 -0.000273282423465922 0.000635897226827419 0.000308172685101426 1.46145801354557e-05 -0.00094247264726175 -0.000332142486978735 -6.57072724119601e-05 -0.000175796060909198 -0.000542889692485734 5.19169834015332e-05
"220" 0.000319220760095576 -0.000256844944851953 0.00132235188813363 0.000595124295229827 0.00130959231430098 0.000145182250888904 -0.000278255086880944 0.000626774553485471 0.000305948284221285 1.95484206061632e-05 -0.000950347494660659 -0.000328708875124346 -6.75733273771726e-05 -0.000189977810836928 -0.000550984640784687 4.63160555331891e-05
"221" 0.000318442815086025 -0.000265927236256543 0.00131369499103346 0.000579381857238385 0.00130585314222466 0.000155757866765285 -0.000283058494257593 0.000617871286577037 0.000304055680585454 2.41939261108413e-05 -0.000957294663362461 -0.000325090803130663 -6.93044214211937e-05 -0.000203973640956823 -0.00055867935608362 4.01728596846705e-05
"222" 0.000317261381898145 -0.000275270310938228 0.0013046387909168 0.000563790198272381 0.00130263204010705 0.000166543179451188 -0.000287638249659763 0.000609193973610383 0.000302503437876646 2.85288688718037e-05 -0.000963260875784554 -0.000321244790087045 -7.08932669123856e-05 -0.000217681437864644 -0.000565915047678256 3.35081026448241e-05
"223" 0.000315640013021315 -0.000284796132234772 0.00129517202124659 0.000548398898912716 0.00129986921956319 0.000177457259928956 -0.000291933544015945 0.000600738952302423 0.000301297012523846 3.25280478500519e-05 -0.000968190262473825 -0.000317139316267279 -7.23226522236217e-05 -0.000230989763706217 -0.000572628900929649 2.6348010345309e-05
"224" 0.00031354504838227 -0.000294439640175488 0.00128529468766103 0.000533245105464801 0.00129750431983952 0.000188425567566839 -0.000295907609665211 0.000592502793758202 0.000300430725958753 3.61732831338622e-05 -0.000972051173593826 -0.000312743560421235 -7.35861774604832e-05 -0.000243802360739933 -0.000578772646932374 1.87225777438609e-05
"225" 0.000310945078324789 -0.000304121392677368 0.00127500360556177 0.000518374774834992 0.0012954626857938 0.000199367067800439 -0.000299510183101456 0.00058447333353092 0.000299902335393926 3.94457573793276e-05 -0.000974799429794697 -0.000308044503369437 -7.46766252908437e-05 -0.000256026479010113 -0.000584297215915626 1.06662613239307e-05
"226" 0.00030780976891435 -0.000313774799995719 0.00126429649556961 0.00050382591586269 0.00129367454087019 0.000210202410721917 -0.000302707273560324 0.000576633160493801 0.000299703714162368 4.23299172400422e-05 -0.000976409212765655 -0.000303030149443283 -7.55895080961927e-05 -0.000267570219210715 -0.000589161085717519 2.21095747963383e-06
"227" 0.000304123720277494 -0.000323331012019509 0.00125317851821136 0.000489638048267976 0.00129205287755416 0.000220856676219594 -0.000305472150804623 0.000568959192722557 0.000299823533733399 4.48163733854623e-05 -0.000976855848694241 -0.000297706332978825 -7.63289389191316e-05 -0.000278354766574255 -0.000593326630605101 -6.60182834722513e-06
"228" 0.000299866933443857 -0.000332728994972926 0.00124165428176491 0.000475835869635511 0.00129051076345124 0.000231252362797365 -0.000307773013301775 0.000561423803472012 0.000300246433169121 4.68949661996638e-05 -0.000976126015240918 -0.000292077835346196 -7.68948046108876e-05 -0.000288309324389501 -0.000596765071667165 -1.57311653093694e-05
"229" 0.000295023423445093 -0.00034190491914123 0.00122972656009017 0.000462458602467655 0.00128895929118014 0.000241313977853592 -0.00030959548928266 0.000553995744213774 0.0003009504814969 4.85582986107537e-05 -0.000974210086826395 -0.000286171098053391 -7.72931002683258e-05 -0.000297362103318098 -0.000599449026601491 -2.51373680629838e-05
"230" 0.000289589694521111 -0.000350803041664687 0.00121739746812229 0.000449521270404341 0.00128729119117365 0.000250974006168868 -0.000310927609642001 0.000546632989546772 0.000301914347534691 4.98030199786235e-05 -0.000971111513788911 -0.000280013902378523 -7.75399303163383e-05 -0.000305463472513516 -0.000601362151040129 -3.477566564551e-05
"231" 0.000283563992367535 -0.000359369391973894 0.00120467368220995 0.000437044200794441 0.00128540682006194 0.000260162686898241 -0.000311757833233982 0.000539293328796967 0.00030311050154825 5.06260618610255e-05 -0.000966836055919414 -0.000273642439396196 -7.76473919668389e-05 -0.000312570085003665 -0.000602492461027331 -4.46044130741171e-05
"232" 0.000276949481052938 -0.000367561902185846 0.00119155483681063 0.000425046333690674 0.00128319554332264 0.00026881132022704 -0.000312086914625585 0.000531930804704458 0.000304511440626664 5.10287314537934e-05 -0.000961398459945461 -0.0002671065812428 -7.7637009784459e-05 -0.000318642162232746 -0.000602831921767541 -5.45754568216538e-05
"233" 0.000269751299887577 -0.000375336657793938 0.00117804639251336 0.000413531650112801 0.00128054994952705 0.000276864427354142 -0.00031192525060648 0.000524493934385718 0.000306078680153151 5.10126544147358e-05 -0.00095482271071895 -0.000260462747125214 -7.75302290823423e-05 -0.000323657728448019 -0.000602383263766226 -6.46477763288973e-05
"234" 0.000261982148005084 -0.000382657836491945 0.00116414303578254 0.000402512732182943 0.00127735017760112 0.000284259461869807 -0.000311275964500991 0.000516931110013077 0.000307782775641952 5.0582740826134e-05 -0.000947131632004816 -0.000253768109471618 -7.73519128219509e-05 -0.000327595902505904 -0.000601151127834832 -7.47748935785695e-05
"235" 0.000253667564432494 -0.000389499013034922 0.001149847064891 0.000391975585554191 0.00127348130587771 0.000290948991397376 -0.000310159062189772 0.000509181087376378 0.000309584352785795 4.97405863914883e-05 -0.000938367973330266 -0.000247094857825375 -7.71371231317026e-05 -0.000330461762507924 -0.000599152500508031 -8.491700340417e-05
"236" 0.000244825352020065 -0.000395830952131427 0.00113515403442807 0.000381926678900804 0.00126882194863142 0.000296881911496556 -0.000308594304486263 0.000501190206729803 0.00031144487598588 4.84983240945516e-05 -0.000928569558507958 -0.000240517644907443 -7.69115829993098e-05 -0.000332254818042839 -0.000596402587646667 -9.50338271486564e-05
"237" 0.000235483487291704 -0.000401638226998565 0.00112005472514907 0.000372346732915132 0.00126325830720347 0.000302018733162796 -0.000306606102935823 0.000492895874271486 0.000313322408464358 4.68636335571413e-05 -0.000917786588475103 -0.000234114790803514 -7.6716299496516e-05 -0.00033299549760158 -0.000592927693145689 -0.000105081696530566
"238" 0.0002256764712978 -0.00040691710500888 0.00110453491675539 0.000363214580519641 0.00125666751743584 0.000306325591879657 -0.000304225887564707 0.00048423884502264 0.000315176023234732 4.48434288959236e-05 -0.000906070540050961 -0.00022796976534735 -7.65881281803267e-05 -0.000332706580946073 -0.000588753291039865 -0.000115026430489227
"239" 0.000215444374775242 -0.000411652719307823 0.00108859127733376 0.00035451515080961 0.00124893473504376 0.000309771117044374 -0.000301484129187649 0.000475162430316745 0.00031696403822129 4.24505475791245e-05 -0.000893480578313261 -0.000222166400485106 -7.65690995498223e-05 -0.000331429878688349 -0.000583920021007988 -0.000124831030904281
"240" 0.000204821880120993 -0.000415849669040814 0.00107219791816361 0.000346211452605213 0.00123994983192351 0.000312330602581648 -0.000298421349386158 0.000465605834225509 0.000318646052460796 3.9694364617802e-05 -0.000880079702667134 -0.000216793905267685 -7.67025348761161e-05 -0.000329207459248403 -0.000578459592445394 -0.000134463662642147
"241" 0.000193860664177857 -0.00041951779085257 0.00105534345060913 0.000338275818081925 0.00122959867825548 0.000313989202251887 -0.000295075957645619 0.000455515337039618 0.000320176699582237 3.65928403258417e-05 -0.000865932606957936 -0.000211934639205996 -7.70270053019136e-05 -0.000326094587876531 -0.000572415963918821 -0.000143894704844455
"242" 0.000182604963133078 -0.000422661392461899 0.001038003604104 0.000330671358496699 0.00121778152773037 0.000314736636630435 -0.000291489967656719 0.000444839364998807 0.000321522647668322 3.31567175104296e-05 -0.00085110754552024 -0.000207676701365042 -7.75896558506768e-05 -0.000322151713819532 -0.000565833126072266 -0.000153096480282667
"243" 0.000171107854577569 -0.000425303138671675 0.00102015318019476 0.000323358325059812 0.00120439748353069 0.000314568134811211 -0.000287706180507352 0.000433524208246124 0.000322640332072184 2.93997744549787e-05 -0.000835679411494353 -0.000204103733676063 -7.84343513360803e-05 -0.000317451374322785 -0.000558762379591206 -0.000162043992621643
"244" 0.000159425086437226 -0.000427461405275751 0.00100176949604844 0.000316284912282682 0.00118935720995168 0.000313490138264478 -0.000283769536801814 0.000421531314520399 0.000323492881713115 2.53353336561689e-05 -0.000819719597073034 -0.000201296557523289 -7.9601788919622e-05 -0.000312066802404699 -0.000551248643619908 -0.000170719689555195
"245" 0.000147614418734936 -0.000429163836024518 0.000982821090417726 0.000309407989723775 0.00117258266554828 0.000311508432084589 -0.000279728556631836 0.000408822019029543 0.000324051715331145 2.09830402960137e-05 -0.000803300440662535 -0.000199323135231373 -8.11347621812421e-05 -0.000306078602187321 -0.000543344370010292 -0.000179100263694721
"246" 0.000135728922252366 -0.000430435269694314 0.000963280321923351 0.000302684025457774 0.00115400231924759 0.00030864271157394 -0.000275628175270265 0.000395363721605148 0.000324284640007311 1.63589990443209e-05 -0.000786496069172288 -0.00019825859261823 -8.30711914510862e-05 -0.000299568374449615 -0.000535095033033864 -0.000187174994292962
"247" 0.00012383519429092 -0.000431312899664194 0.000943121111207911 0.000296045976269634 0.00113355380511783 0.000304915584101656 -0.000271516483720746 0.000381130003512079 0.000324162611106901 1.14783315667953e-05 -0.000769383211171041 -0.000198156224945746 -8.54521101590805e-05 -0.0002926325612099 -0.000526560383602459 -0.000194929225763551
"248" 0.000111986722039056 -0.000431824072686157 0.00092230390840218 0.000289458640005479 0.00111119209818248 0.000300355093844033 -0.000267436560847589 0.000366104515561767 0.000323663406660048 6.35863557056373e-06 -0.000752026507098978 -0.000199075862823535 -8.83023380268558e-05 -0.000285345495116564 -0.000517780649407265 -0.000202351168168159
"249" 0.000100247011440313 -0.000432013080158889 0.000900808549332138 0.000282854540382052 0.00108688486184835 0.000294998752422949 -0.00026343664360245 0.000350279872879993 0.000322767046072355 1.01959016621792e-06 -0.000734501497614067 -0.000201059686829798 -9.16594732790345e-05 -0.000277808436926308 -0.00050880509258905 -0.000209437912405407
"250" 8.86794617596974e-05 -0.000431908519485405 0.000878600722431667 0.000276195505538572 0.00106060734311991 0.000288888054136739 -0.000259556133486939 0.000333654197610073 0.000321462822230401 -4.51716304558741e-06 -0.000716868784709261 -0.000204137508092381 -9.55428851583386e-05 -0.000270105115884779 -0.000499681279397866 -0.000216180907012549
"251" 7.73394613802816e-05 -0.000431550065094791 0.000855655043507612 0.00026942711555972 0.00103235402457131 0.00028206532918916 -0.000255841742851313 0.000316236040521092 0.000319739238206699 -1.02335066031131e-05 -0.000699197323191801 -0.000208333192841884 -9.99724298344194e-05 -0.000262322609270854 -0.000490448665550322 -0.000222578253834841
"252" 6.62888860895876e-05 -0.000430977665406824 0.000831950538409941 0.000262499149618654 0.00100213814859893 0.00027458727679455 -0.000252324894714169 0.000298044113107682 0.000317593707976246 -1.61065018705809e-05 -0.000681539362651708 -0.000213659302451384 -0.000104960815644235 -0.000254549084202552 -0.000481146858107282 -0.000228630793156516
"253" 5.55794858132982e-05 -0.000430224621409542 0.000807464313262623 0.000255367880281441 0.000969982025714077 0.00026650866561428 -0.00024904712881378 0.000279106804108383 0.000315025810526771 -2.21147659926111e-05 -0.000663951340543363 -0.000220109070176291 -0.000110516144499075 -0.000246862632900639 -0.000471807624037273 -0.000234336433923722
"254" 4.52691435136157e-05 -0.000429328645854343 0.000782180892855406 0.000247991227600415 0.000935932152416384 0.000257890464196832 -0.000246038105957139 0.00025946177885102 0.000312041687823918 -2.8232965314209e-05 -0.000646480538032888 -0.000227674220491745 -0.000116638148573258 -0.000239339540493324 -0.000462461756679513 -0.000239697937758978
"255" 3.54103334765172e-05 -0.000428320768888858 0.000756093851224688 0.000240335466707095 0.000900039390398387 0.000248794100279368 -0.000243326947779094 0.000239153376026731 0.00030865801720463 -3.44352553827549e-05 -0.000629169360506026 -0.000236325473916272 -0.000123317791954358 -0.000232049186300276 -0.000453131608658606 -0.000244722066919682
"256" 2.60524163413549e-05 -0.000427234087886172 0.000729195842499393 0.000232369071970475 0.000862381502776334 0.000239287409655442 -0.000240937767004063 0.000218240656359686 0.000304888921857722 -4.06968164950472e-05 -0.00061205288579799 -0.000246024688521491 -0.000130542276176714 -0.000225050661890044 -0.000443839016000204 -0.000249408134966598
"257" 1.7239923903844e-05 -0.000426092879637973 0.000701493286970841 0.0002240648096425 0.000823049941251398 0.000229443611900709 -0.000238894435442405 0.000196791769840908 0.000300757409609295 -4.69886089349065e-05 -0.000595163851692753 -0.000256719368493872 -0.000138291218582234 -0.000218408390492909 -0.000434597213574928 -0.000253764026464858
"258" 9.01234388310918e-06 -0.000424921827533311 0.000672994745295632 0.000215399518623291 0.000782148615844911 0.000219332096226834 -0.00023720533871923 0.000174875684001624 0.000296295946446298 -5.32771130225656e-05 -0.000578522104848382 -0.000268346421899402 -0.000146532032016905 -0.00021216390066288 -0.000425410868131162 -0.000257794924368042
"259" 1.40898491595832e-06 -0.000423742672578983 0.000643719183719935 0.000206368601240734 0.000739794274759182 0.000209023202337111 -0.000235891191670615 0.000152575935163998 0.00029153567368101 -5.95359917618654e-05 -0.000562146024322127 -0.000280831799323421 -0.000155228932514342 -0.000206355308924736 -0.000416280870853413 -0.000261504878257659
"260" -5.53590576991677e-06 -0.000422570465110333 0.00061369509223859 0.000196955268532498 0.000696125284704599 0.000198596288933172 -0.000234951835568285 0.00012998534684326 0.000286515435024467 -6.57274710955438e-05 -0.000546046667721767 -0.000294085492107475 -0.00016433702773954 -0.000201015570951529 -0.000407209223728391 -0.00026490199128762
"261" -1.17953864421807e-05 -0.000421416128722106 0.000582962675844346 0.000187165070583346 0.000651288955710035 0.000188120455300794 -0.000234391265901205 0.000107199064025609 0.000281281266243726 -7.18173211395242e-05 -0.000530225983024152 -0.000308014504934864 -0.000173808327298059 -0.000196163748681111 -0.00039818236710131 -0.000267988932367651
"262" -1.73443036676889e-05 -0.000420288357638535 0.000551564620861569 0.000177003642355566 0.000605445917378431 0.000177674284135664 -0.000234207225664191 8.4321320389577e-05 0.000275879587773771 -7.77698567258565e-05 -0.000514678138667939 -0.000322508194935637 -0.00018357862260502 -0.000191807588237652 -0.000389180778963325 -0.000270770445217664
"263" -2.21622986060631e-05 -0.000419188247798799 0.000519562947543115 0.000166488173877132 0.000558765776953702 0.000167327341382561 -0.000234385997807032 6.14601006798781e-05 0.000270363343420802 -8.35427974486459e-05 -0.000499400020119126 -0.000337453292681088 -0.00019358531074515 -0.000187957421910676 -0.000380192970632539 -0.000273252549588857
"264" -2.6239479573213e-05 -0.000418113048427819 0.000487024351056366 0.000155644789668997 0.000511432291674033 0.000157153707113472 -0.000234916096116032 3.87265088063467e-05 0.000264792992289148 -8.90988997829454e-05 -0.000484368818072967 -0.000352725047106523 -0.00020375914940155 -0.000184596445382419 -0.000371186235812949 -0.000275437169397357
"265" -2.95599403022856e-05 -0.000417054881744173 0.000454026484306558 0.000144497222247709 0.000463636830260927 0.00014722344746147 -0.000235782400989881 1.62380351009315e-05 0.000259223108950093 -9.439353158198e-05 -0.00046957156772051 -0.000368195047433701 -0.000214018805345526 -0.000181711430473737 -0.000362135937860844 -0.000277328434222651
"266" -3.21201651562205e-05 -0.000416005792001178 0.000420660029179912 0.000133084126680673 0.000415575275124152 0.000137600906217398 -0.000236957049752203 -5.88554749157876e-06 0.00025372080055556 -9.93835355012852e-05 -0.000454981800900912 -0.000383725975187192 -0.00022428806683865 -0.00017927805536435 -0.000353008434434226 -0.000278929410250423
"267" -3.39246333258565e-05 -0.000414947606420087 0.000387024939959183 0.000121447600211524 0.000367453076608269 0.000128353348738329 -0.000238420578269179 -2.75255563769812e-05 0.000248348563336313 -0.000104022955359485 -0.000440564554957972 -0.000399182756823992 -0.000234478008258337 -0.000177260257697402 -0.000343767890686409 -0.00028023769380762
"268" -3.49735882178209e-05 -0.000413856685960713 0.000353230058691469 0.000109642829936554 0.000319479635062165 0.00011954059898878 -0.000240131044925729 -4.85621640899059e-05 0.000243171842746862 -0.00010826633368897 -0.000426293495961523 -0.000414420831849241 -0.000244499784414865 -0.000175618991518465 -0.000334374869181307 -0.000281257560546755
"269" -3.52803804784254e-05 -0.000412713105625718 0.00031939967016425 9.77164841837377e-05 0.000271865156843905 0.000111218747145244 -0.000242064006014375 -6.88719177463772e-05 0.000238261441132293 -0.000112062460697404 -0.000412128612339063 -0.00042929974293203 -0.000254262135582024 -0.000174306444417658 -0.000324791270389055 -0.000281987283215232
"270" -3.48568969965487e-05 -0.000411488303050001 0.000285656774132083 8.57313231375107e-05 0.00022482423770144 0.000103442309124665 -0.000244179414701373 -8.83394859300228e-05 0.000233682538582325 -0.000115364516980985 -0.000398029101080414 -0.00044367506471233 -0.000263673825402941 -0.000173267368995516 -0.000314971430741378 -0.000282422694077297
"271" -3.37246122372334e-05 -0.000410149940326788 0.000252143776231873 7.37581740332294e-05 0.000178568024854547 9.62587046313225e-05 -0.00024643557807352 -0.000106849494335762 0.000229509659253817 -0.000118122986411875 -0.00038395939423692 -0.000457405210487012 -0.000272641819443047 -0.00017244352623615 -0.000304880425971016 -0.00028256740278337
"272" -3.1899321366614e-05 -0.000408669651939449 0.000219005276390626 6.18539875836868e-05 0.000133307492255332 8.97092352664021e-05 -0.000248788417108189 -0.000124289885782492 0.000225802652709838 -0.000120288305837516 -0.000369872241344392 -0.000470351808401837 -0.000281069107733825 -0.000171769159611351 -0.000294469824982614 -0.000282412271443676
"273" -2.94125222873081e-05 -0.000407009919859186 0.0001863908958701 5.00989171417728e-05 8.92546752489856e-05 8.38316072018697e-05 -0.000251198271926862 -0.000140553979060717 0.00022263407216488 -0.000121814126783856 -0.000355728536663203 -0.000482384777331705 -0.000288864917838191 -0.000171179635670341 -0.000283704383576347 -0.000281957300635321
"274" -2.62918286948294e-05 -0.000405135200850326 0.000154463913994089 3.85608967855216e-05 4.66040589595416e-05 7.86616437479927e-05 -0.000253615267259104 -0.000155542201162232 0.000220064837520934 -0.000122645424547204 -0.000341487927602398 -0.00049336846902915 -0.000295938067408415 -0.000170605676519005 -0.000272545054123921 -0.000281198882515374
"275" -2.25672084874065e-05 -0.00040300588327404 0.000123382932836063 2.7318094218507e-05 5.55616664307737e-06 7.42209483822736e-05 -0.000255993645639263 -0.000169160212799523 0.000218158892860915 -0.000122741311037134 -0.000327108259905361 -0.00050318767483165 -0.000302203783712213 -0.000169976881549995 -0.000260955969304049 -0.000280133217768335
"276" -1.82791460132824e-05 -0.000400584179681653 9.33174638652782e-05 1.64433827454674e-05 -3.37010477462558e-05 7.05313692687229e-05 -0.000258290757349706 -0.000181320931997515 0.000216971966982878 -0.000122050314864929 -0.000312545847285503 -0.000511723140269441 -0.000307574082538515 -0.000169217098300053 -0.000248902167413574 -0.000278754278782135
"277" -1.34657375266302e-05 -0.000397834377402512 6.44368467377172e-05 6.01625187601644e-06 -7.09884451995464e-05 6.76063626015121e-05 -0.000260456751107898 -0.000191947136875312 0.000216561903826422 -0.000120530932070315 -0.000297770761006072 -0.000518873019855441 -0.000311972548349472 -0.000168259397282858 -0.000236359560162195 -0.000277059831054532
"278" -8.16213485647743e-06 -0.000394724463060199 3.69076467094009e-05 -3.90247674239634e-06 -0.000106139649414457 6.54546660239725e-05 -0.000262449625538885 -0.000200971431932952 0.000216977985407408 -0.00011814242736704 -0.000282748353757916 -0.000524540973269817 -0.000315325941055247 -0.000167037946649838 -0.000223304059637992 -0.000275044001341172
"279" -2.41352384624975e-06 -0.00039121270439161 1.09052572707452e-05 -1.32348836278587e-05 -0.000138994746985297 6.40761891385181e-05 -0.000264223847474834 -0.00020833188694789 0.000218261564924243 -0.000114842451327534 -0.000267443643174387 -0.0005286379147412 -0.000317561572687241 -0.000165481504772012 -0.000209713611977885 -0.000272704411079001
"280" 3.73710937762841e-06 -0.00038726908777867 -1.34085283571297e-05 -2.1920150701802e-05 -0.00016941118897484 6.34673781579845e-05 -0.000265736910837776 -0.000213986004427324 0.00022045634339595 -0.000110597418180507 -0.000251833715208693 -0.000531098994366348 -0.000318624797880274 -0.000163528350114018 -0.000195574649272212 -0.000270039489923851
"281" 1.02435883799747e-05 -0.000382862350322264 -3.5861792897319e-05 -2.98904691851621e-05 -0.000197261715235094 6.36159593696593e-05 -0.000266948076085834 -0.000217892691487901 0.000223593700818306 -0.000105377738829846 -0.000235895850862663 -0.000531854911463611 -0.000318457717524342 -0.000161121538599296 -0.000180884395283939 -0.000267047065308894
"282" 1.70591929912388e-05 -0.000377967130996979 -5.62966059948693e-05 -3.70944134164621e-05 -0.000222424298143718 6.45066176778762e-05 -0.000267819841398503 -0.000220028658867193 0.000227701271877711 -9.91516797249272e-05 -0.000219611387750548 -0.000530862940419608 -0.000317016050935246 -0.000158206970972583 -0.000165634655945976 -0.000263726716452508
"283" 2.41449582635967e-05 -0.000372555043214549 -7.45597672986064e-05 -4.34754089194252e-05 -0.000244804279051107 6.61163566956072e-05 -0.000268319112801872 -0.000220376728155032 0.000232799172025707 -9.18995649626401e-05 -0.000202968733828867 -0.00052808699723971 -0.000314266117025563 -0.000154739564505204 -0.000149838041766849 -0.000260076611647581
"284" 3.1444870986746e-05 -0.000366611531921933 -9.05029290531624e-05 -4.89885222776756e-05 -0.00026431889253591 6.84116319983001e-05 -0.000268412114687277 -0.000218942340796149 0.000238898830105926 -8.36080420431834e-05 -0.000185960160631521 -0.000523506222454107 -0.00031017826111681 -0.000150673120900825 -0.00013350040502532 -0.000256103928271078
"285" 3.89157745981864e-05 -0.000360116919282456 -0.000103986284662734 -5.3602249753569e-05 -0.000280898539912865 7.13608087593351e-05 -0.000268074527153445 -0.000215731291432902 0.0002460036436618 -7.42598681743198e-05 -0.000168584958027904 -0.000517113308117715 -0.000304734904527912 -0.000145976163152021 -0.000116645031096833 -0.000251806423944014
"286" 4.65146896949287e-05 -0.000353059703018612 -0.000114883757743331 -5.72759032720366e-05 -0.000294493299811024 7.49252795044311e-05 -0.000267275156096088 -0.000210769544418639 0.000254115055559515 -6.38504523010681e-05 -0.000150848924655657 -0.000508914827956878 -0.000297927371259719 -0.000140625174733465 -9.92948566255449e-05 -0.000247195371384423
"287" 5.41945700639634e-05 -0.000345437644949312 -0.000123073034596055 -5.99994986823258e-05 -0.000305071133682046 7.90567558208436e-05 -0.000265998329770745 -0.000204087919702453 0.000263219580652614 -5.23849077060264e-05 -0.000132755072763648 -0.000498931627000484 -0.000289759281209014 -0.000134599880690227 -8.14803474874301e-05 -0.000242276385632833
"288" 6.19091420629992e-05 -0.000337244368259749 -0.000128447606245568 -6.17516731314793e-05 -0.00031261890332825 8.37071895161757e-05 -0.000264226148186543 -0.000195738114930114 0.000273298540053943 -3.98702352378427e-05 -0.000114327681115634 -0.000487198878028288 -0.000280241765792968 -0.000127889788517751 -6.32468949917762e-05 -0.000237059391678889
"289" 6.9616012025847e-05 -0.000328484350016461 -0.000130925772772107 -6.25244354492588e-05 -0.000317138219211053 8.88226037379938e-05 -0.000261939410992825 -0.00018577933882038 0.000284327521731843 -2.63204643427293e-05 -9.55804155221902e-05 -0.000473764289988613 -0.000269394668543622 -0.000120493037052647 -4.46331445591061e-05 -0.000231555505050932
"290" 7.72764119197457e-05 -0.000319165001182355 -0.00013042062620622 -6.23268942081688e-05 -0.000318652300056164 9.43442608953339e-05 -0.000259138149894028 -0.000174277622984098 0.00029626790811951 -1.17591732142536e-05 -7.65419389298943e-05 -0.000458687479098373 -0.000257253890705375 -0.000112418546983031 -2.56957122203768e-05 -0.000225780582761872
"291" 8.48478930619708e-05 -0.000309306413452579 -0.00012687534971465 -6.11705791197059e-05 -0.000317199320371103 0.000100209527793366 -0.00025580728262194 -0.000161317514061591 0.000309079529892739 3.77974988137728e-06 -5.72448689227576e-05 -0.000442045344732783 -0.000243860791602766 -0.000103680914658924 -6.48836941064645e-06 -0.00021975230564085
"292" 9.22916899474465e-05 -0.000298919865939324 -0.000120242680685222 -5.90783332332884e-05 -0.000312833388871688 0.000106357386002619 -0.000251949689999116 -0.000146990875670371 0.000322712767132902 2.02650254606026e-05 -3.77250507166277e-05 -0.000423920395864237 -0.00022926291655555 -9.43060054328877e-05 1.29227925604785e-05 -0.000213488779493919
"293" 9.95746162993092e-05 -0.000288031711182933 -0.000110504201465416 -5.60727811434582e-05 -0.000305631217255855 0.000112715384145987 -0.000247565746539586 -0.000131397363784743 0.000337107630687154 3.76482208881521e-05 -1.80201886023437e-05 -0.000404411624562247 -0.000213525933470972 -8.43240596991801e-05 3.24738023647616e-05 -0.000207014572677557
"294" 0.000106658589823739 -0.000276676478530544 -9.76403520095346e-05 -5.22078444643736e-05 -0.000295676974470638 0.000119221219517237 -0.000242657668704941 -0.000114645619830626 0.000352198981073815 5.58744479395969e-05 1.81881546402612e-06 -0.000383623839879495 -0.00019671636016637 -7.37774316377892e-05 5.2090236621116e-05 -0.000200349564763375
"295" 0.000113513648394752 -0.000264875363647001 -8.16666776060973e-05 -4.75129884739385e-05 -0.000283082003449283 0.000125802701234658 -0.000237232076275615 -9.68567418613703e-05 0.000367919657802179 7.48861238361672e-05 2.17469269455288e-05 -0.000361676382005236 -0.000178913346680146 -6.27159230816956e-05 7.1696583631431e-05 -0.000193526299439992
"296" 0.000120111260086212 -0.000252677410199956 -6.26088740372349e-05 -4.20508640000131e-05 -0.000267964469232066 0.000132390333128334 -0.000231300634873307 -7.81528197640828e-05 0.000384190768787907 9.46133106469446e-05 4.17151072744187e-05 -0.000338691435570045 -0.000160204958823802 -5.11955693254967e-05 9.121515156048e-05 -0.00018656957569442
"297" 0.00012642726823767 -0.00024011857359493 -4.05200302432447e-05 -3.58895784752172e-05 -0.000250457376073089 0.000138913232138421 -0.00022487857110936 -5.86652443317188e-05 0.000400926927067982 0.000114984079879423 6.16603423683128e-05 -0.000314800403250028 -0.000140684378558053 -3.92769996497757e-05 0.00011056263581882 -0.000179511164322569
"298" 0.000132433965513279 -0.000227244609658252 -1.54670485592182e-05 -2.90843085440182e-05 -0.000230709266684302 0.00014530088185007 -0.000217972331273999 -3.85300751705894e-05 0.000418041435506289 0.00013591480749957 8.15355381288892e-05 -0.000290140503757228 -0.000120449082146962 -2.70278730537519e-05 0.000129661869239892 -0.000172386552921477
"299" 0.000138109648153641 -0.000214104066945495 1.24646676768412e-05 -2.17110124003677e-05 -0.000208880130670466 0.000151487811169072 -0.000210605390764792 -1.78845918936505e-05 0.000435443269921478 0.000157320162825035 0.000101274731045094 -0.000264854012358301 -9.96070718056109e-05 -1.45224492161812e-05 0.0001484246816478 -0.000165231320035244
"300" 0.000143438505536013 -0.000200749166101361 4.31602604026143e-05 -1.38614147445084e-05 -0.000185141265031256 0.000157403963460595 -0.000202794701437994 3.12810480997641e-06 0.000453035441846267 0.000179106960065638 0.000120820556461958 -0.000239087423222484 -7.82683529297991e-05 -1.84179613306134e-06 0.000166768853137396 -0.000158078441461442
"301" 0.000148402251917591 -0.000187233875178039 7.64992325020395e-05 -5.60874139316874e-06 -0.000159670606246279 0.000162988491082337 -0.000194554927676077 2.43671823671996e-05 0.000470719647368289 0.000201173684989889 0.00014011257274958 -0.000212983641659233 -5.65453392888623e-05 1.09333928384124e-05 0.000184610895751005 -0.00015096966746147
"302" 0.000152989950149513 -0.000173614079378012 0.000112335525447158 2.95408658214e-06 -0.000132657113854856 0.000168180683341687 -0.000185917264464428 4.56921310482368e-05 0.000488393941693995 0.000223422795688423 0.000159088481675588 -0.000186691955263121 -3.45590077725082e-05 2.37166199233437e-05 0.000201870998319776 -0.000143942104482324
"303" 0.000157185577999347 -0.000159945362384842 0.00015049846615848 1.17467840965596e-05 -0.000104291195604621 0.000172920962185387 -0.000176891742817559 6.69608777680792e-05 0.000505960004833863 0.000245746186433959 0.000177696559696249 -0.000160355703318363 -1.24257337880979e-05 3.64259587515588e-05 0.000218473640702757 -0.000137036281190058
"304" 0.000160985057254786 -0.000146283145514967 0.0001908056727158 2.06708697041788e-05 -7.47783341870629e-05 0.000177158419534333 -0.000167504451807421 8.80351672847121e-05 0.00052331367068119 0.000268032239828724 0.000195872025607017 -0.000134121011247099 9.73324265789864e-06 4.89688327893166e-05 0.000234337990251934 -0.000130290744252248
"305" 0.000164382711619838 -0.000132688283830222 0.00023305905600154 2.96379931740556e-05 -4.43152339311461e-05 0.000180844357098327 -0.000157781320271306 0.000108783243019506 0.000540354052668563 0.000290173221990625 0.000213566152994615 -0.000108125387059116 3.17959226436975e-05 6.1258746019696e-05 0.000249397428219602 -0.000123745136039739
"306" 0.000167376388919368 -0.000119217442031086 0.000277042443372982 3.85604177989273e-05 -1.31093776594533e-05 0.000183938154459859 -0.000147736346336504 0.000129077452693199 0.000556981967408811 0.000312055608819711 0.000230720498983969 -8.25030985960427e-05 5.36448888803341e-05 7.32091780671987e-05 0.000263580816922915 -0.000117441195053028
"307" 0.00016996205135464 -0.000105925192854718 0.000322524566306325 4.73435434131331e-05 1.86347734101328e-05 0.000186400529240416 -0.000137393312626024 0.00014879714396977 0.0005731025017119 0.000333567448005423 0.000247289583699081 -5.73788295838473e-05 7.51601686111181e-05 8.47358162370255e-05 0.00027683161354639 -0.000111417684290593
"308" 0.000172141110502294 -9.28665259744149e-05 0.000369265746488701 5.59066495183299e-05 5.07191997823856e-05 0.000188200224688847 -0.000126776697866958 0.000167830722948454 0.00058861749240496 0.00035460044638049 0.000263226563077085 -3.28747484877225e-05 9.62331031720915e-05 9.57549947918536e-05 0.000289092683048793 -0.000105707007887519
"309" 0.00017391983632557 -8.00923837191575e-05 0.000417004947527164 6.41674841948755e-05 8.2936058357622e-05 0.000189315657618851 -0.000115903868445674 0.000186071951861936 0.00060344333266237 0.000375039759123488 0.000278493681342168 -9.09823956555873e-06 0.000116749965522937 0.000106186968723408 0.000300313657551758 -0.000100351288822205
"310" 0.000175302069065256 -6.76555459256925e-05 0.000465479157163562 7.20504660886848e-05 0.000115098909827581 0.000189725019126885 -0.000104797647847865 0.000203427900762833 0.000617490953126733 0.000394783177128223 0.000293052881865545 1.38468971275735e-05 0.000136604699952627 0.000115964694523289 0.000310454931379821 -9.53801438128286e-05
"311" 0.000176295296302084 -5.56047926546274e-05 0.000514415232306885 7.94782358942e-05 0.000147009746243229 0.000189421557463204 -9.34707595880306e-05 0.000219812702366101 0.000630685875119207 0.000413724548811139 0.000306869145813447 3.58716639645629e-05 0.000155699002387106 0.000125012172687919 0.000319482186340693 -9.08268720776081e-05
"312" 0.000176909872011567 -4.39788889064666e-05 0.000563532121856787 8.63873997780382e-05 0.000178499189899005 0.000188398981184109 -8.19438288001854e-05 0.000235159653352403 0.000642953592043792 0.000431766596970242 0.000319925344184041 5.69023296233459e-05 0.00017394495433969 0.000133274986723931 0.000327368580735613 -8.671738577433e-05
"313" 0.000177155505546809 -3.28203345695765e-05 0.000612550243847208 9.27250466265e-05 0.00020938803861182 0.000186661153733201 -7.02376808559458e-05 0.000249402831832645 0.000654236323437527 0.000448821480173325 0.000332196145788946 7.68657789349888e-05 0.000191249631011587 0.000140691500899056 0.00033409448862359 -8.30797490913373e-05
"314" 0.000177048621930456 -2.21636469741625e-05 0.000661180717185145 9.84332841627983e-05 0.000239517288626651 0.000184218044770529 -5.8360862914233e-05 0.000262501050269639 0.000664471568446054 0.000464798047760568 0.000343669883912628 9.57146656031692e-05 0.000207541635253734 0.00014721770848244 0.000339654174093196 -7.9934710647839e-05
"315" 0.000176598129333403 -1.20400067612201e-05 0.000709141676023051 0.000103474493945475 0.00026874119825751 0.000181089670853942 -4.63298642449761e-05 0.000274415879891796 0.000673616909692606 0.000479619862436483 0.000354340774271458 0.000113409801584235 0.00022275421581125 0.000152815457479222 0.000344040891773673 -7.729836080831e-05
"316" 0.000175821961610801 -2.47938473623363e-06 0.000756153186306164 0.000107815385404454 0.000296920204525697 0.000177298380863441 -3.41566215599714e-05 0.000285129941415523 0.000681633920344287 0.000493221782965807 0.000364203506658246 0.000129923502788775 0.00023682814847392 0.000157449027378309 0.000347262758931887 -7.51873679242992e-05
"317" 0.00017473938448521 6.50307508601128e-06 0.000801934408332932 0.00011143492393338 0.000323933213647927 0.00017287560570144 -2.18563257768532e-05 0.000294630806845638 0.000688497418866809 0.000505539067535793 0.000373269291446431 0.000145235019092462 0.000249712431370649 0.000161102360222568 0.000349336186284881 -7.36103675536953e-05
"318" 0.000173361080628553 1.48871108679493e-05 0.000846223354186341 0.000114310556112016 0.000349674015717412 0.000167859581872923 -9.4358097307134e-06 0.000302924905706453 0.000694181499733662 0.000516524405581337 0.00038154468927619 0.000159351816326499 0.00026137314805905 0.000163760927117866 0.000350281636619412 -7.25702692846111e-05
"319" 0.000171712409460098 2.2659996047315e-05 0.00088875881511397 0.000116441014297225 0.000374048335642743 0.000162292918564406 3.0860523395017e-06 0.000310032924059053 0.000698688711315343 0.000526138021157002 0.000389051547505518 0.000172281918989515 0.000271775601236122 0.000165420369584111 0.000350133273559165 -7.20707864584534e-05
"320" 0.000169814025358127 2.9818188807393e-05 0.000929298659294945 0.000117832714016022 0.00039697890007485 0.000156226908497514 1.57119140122493e-05 0.000315977349121221 0.000702015084214868 0.000534350779551048 0.000395810495023038 0.000184049430881451 0.000280906147399081 0.000166080350521879 0.000348924075884852 -7.21057960661435e-05
"321" 0.00016768267270019 3.63609566995023e-05 0.000967611058683169 0.000118504214042631 0.000418407154310531 0.000149713025859444 2.84255025293667e-05 0.000320805025758527 0.000704178548810301 0.000541147702757347 0.000401856359156544 0.000194691542425559 0.000288757114310032 0.000165765707022615 0.00034670435421045 -7.26649113504444e-05
"322" 0.00016534353096499 4.22842285586193e-05 0.00100348521221894 0.000118461623253511 0.000438285511756897 0.000142815021403701 4.12200031079214e-05 0.000324563545937637 0.000705199504377798 0.000546519090001995 0.000407216837040531 0.000204251540671077 0.000295325446224029 0.000164489733342107 0.000343520663144544 -7.37352862861074e-05
"323" 0.00016281719409257 4.76062246894367e-05 0.00103672545810522 0.000117754004478095 0.000456585890107369 0.000135595221543871 5.40880146833157e-05 0.000327317831733663 0.00070511083927075 0.000550476311430043 0.000411935120190084 0.000212786833052051 0.000300629059917996 0.000162288054006162 0.000339431094575044 -7.52998429113538e-05
"324" 0.000160127322761473 5.2335194340014e-05 0.00106715682574836 0.000116412316623585 0.000473293465746765 0.000128115720813265 6.70150705305644e-05 0.000329137443085139 0.000703954019574467 0.000553032656611342 0.000416057562871567 0.000220359683896128 0.000304686546714546 0.000159204097419381 0.000334503006440069 -7.73313449098007e-05
"325" 0.000157296074350589 5.64885681899565e-05 0.00109462964495505 0.000114491141059118 0.000488408394900156 0.000120449783792014 7.9999584732088e-05 0.000330095461704983 0.000701787363005712 0.000554219669467337 0.000419632107841181 0.000227044514557084 0.000307526345177923 0.000155280703134993 0.00032879900805946 -7.98056399192891e-05
"326" 0.000154349224227973 6.00896368779473e-05 0.00111901474193242 0.000112041014144151 0.000501944378771313 0.000112668925415541 9.30273696129889e-05 0.000330284066535463 0.000698667249117616 0.000554078891858517 0.000422707789885885 0.000232918781148323 0.000309189583162988 0.000150571787964732 0.000322392333796095 -8.26867474119722e-05
"327" 0.000151312079414741 6.31572160876502e-05 0.00114021175969485 0.000109122237028611 0.000513931874284738 0.000104846493237812 0.000106092176878435 0.000329789605290913 0.000694662819867273 0.000552660312390325 0.000425346355616195 0.000238067855975384 0.000309721273141276 0.000145141141158504 0.000315356190618665 -8.59424271512503e-05
"328" 0.000148207065240688 6.57191248416065e-05 0.00115813687549269 0.000105801167193256 0.000524405121503304 9.70568964637579e-05 0.000119177774503592 0.00032870631772648 0.000689853670913788 0.000550027791347155 0.000427596725089361 0.000242577653225825 0.000309172055399109 0.000139049737380877 0.000307766575996684 -8.95312827278965e-05
"329" 0.000145064530071073 6.78041881165954e-05 0.00117273989038488 0.000102152795817861 0.000533421233863343 8.93719968434434e-05 0.000132270858263392 0.000327131190635221 0.000684320955304941 0.000546252822903757 0.000429527089623228 0.000246540144476707 0.000307604055544981 0.000132372394732161 0.000299703590038801 -9.3406732370648e-05
"330" 0.000141905223093674 6.94485791885057e-05 0.00118399333217512 9.8243886023582e-05 0.0005410382799314 8.18677990818676e-05 0.000145360592977823 0.000325165983838086 0.000678154126710896 0.000541413736220749 0.000431194654126923 0.000250047437448083 0.000305082158548922 0.00012518295861421 0.000291246527918966 -9.75274582255244e-05
"331" 0.000138758247976102 7.06860287949574e-05 0.00119189628586593 9.41597005089976e-05 0.000547327782390091 7.46133328616962e-05 0.000158433523713264 0.000322905068275293 0.000671446953782594 0.00053560438700913 0.000432665437082832 0.000253192623310864 0.0003016763748045 0.000117560936468522 0.000282473595661146 -0.000101841957238926
"332" 0.000135651942643176 7.15467305623883e-05 0.00119647202604624 8.9976793303766e-05 0.000552369942072879 6.76802533162333e-05 0.000171465655707142 0.000320454254582969 0.00066430066085748 0.000528921284765542 0.000433996483366884 0.00025606881668146 0.000297458659510493 0.000109585585875123 0.000273466491124804 -0.000106299696914832
"333" 0.000132609575322291 7.20629922502764e-05 0.00119776356774101 8.57647581935563e-05 0.000556241177762276 6.11362717467531e-05 0.000184435720173424 0.000317901039521123 0.000656812303282229 0.000521461231393013 0.000435253114287941 0.00025876085333573 0.000292501101316611 0.000101339332957367 0.000264301104089062 -0.000110845582378019
"334" 0.000129655998178816 7.22772578427721e-05 0.00119584772032323 8.16170506903095e-05 0.000559033130742385 5.50415990837151e-05 0.000197328733848241 0.000315342288951479 0.000649087240929016 0.000513340822726217 0.000436494172398297 0.000261357508295714 0.000286888452153599 9.29043898816882e-05 0.000255049920824927 -0.000115430575834174
"335" 0.000126824820757435 7.22205480738553e-05 0.00119081127994814 7.75988564329116e-05 0.000560836423769305 4.94599667081953e-05 0.000210111051615262 0.000312865401040986 0.000641230085293544 0.000504667474088751 0.000437780875728721 0.000263939163540574 0.00028069123323331 8.43633689247103e-05 0.000245789326035847 -0.000119997570033886
"336" 0.000124137899527975 7.19255751349321e-05 0.00118277456978183 7.37906407916543e-05 0.00056174240250115 4.44445611794264e-05 0.000222761044577495 0.000310553654772968 0.000633344882720867 0.000495558590717496 0.000439167377153236 0.000266579547166217 0.000273995153448439 7.57943341868034e-05 0.000236587883150823 -0.000124490739611678
"337" 0.000121625292318626 7.14291508143738e-05 0.00117186105287102 7.02598977404272e-05 0.000561844701357363 4.00454895485669e-05 0.000235246914792332 0.000308484889322732 0.000625533159019067 0.000486134047346722 0.000440712230438136 0.000269347451881435 0.000266876777234092 6.72785596752834e-05 0.00022751210099222 -0.000128856230405279
"338" 0.000119308076866432 7.07578861415619e-05 0.00115822145748462 6.70756000744193e-05 0.000561233312353436 3.6304252768731e-05 0.000247532048690805 0.000306722471514339 0.000617897728352799 0.000476508293904781 0.000442464362123052 0.000272304728063899 0.000259410113659934 5.88929609017344e-05 0.000218621448638935 -0.000133043576004511
"339" 0.000117216508811353 6.99401226660399e-05 0.00114202137372534 6.42897172492893e-05 0.000559998752196609 3.32645203611379e-05 0.000259585307323319 0.000305333297273954 0.000610535999795895 0.000466805156125815 0.000444468678969973 0.000275502373093838 0.000251671534087468 5.07053669610997e-05 0.000209969766007357 -0.000136997785301903
"340" 0.000115376126135769 6.90031857404462e-05 0.00112342904688724 6.19623512193206e-05 0.000558225007375876 3.09526961540241e-05 0.000271366203832958 0.000304366898077119 0.000603540890691762 0.000457135465406736 0.000446773238990532 0.000278987422620029 0.000243730496548533 4.2785321112315e-05 0.000201613161554856 -0.000140668656715335
"341" 0.000113807764791027 6.79706620604687e-05 0.00110263408133319 6.01424712375729e-05 0.000555990039198464 2.93973279343344e-05 0.000282835647943838 0.000303863721973021 0.000597003210418459 0.000447616183042679 0.000449411621405764 0.000282787341888112 0.000235651901222583 3.51955664477481e-05 0.000193592843231707 -0.000144008928917799
"342" 0.000112538167029865 6.68646735292445e-05 0.00107982825824817 5.88657396785615e-05 0.000553370833468266 2.86148702757184e-05 0.000293947638244571 0.000303860368169785 0.000591003656715661 0.000438357407076644 0.000452423077244616 0.00028693296329152 0.000227504129484497 2.79961445117675e-05 0.000185950822545936 -0.000146973181000498
"343" 0.000111592057416596 6.56976974094916e-05 0.00105521099888829 5.81595296427387e-05 0.000550432204885748 2.86171029182165e-05 0.000304660719055645 0.000304379055575322 0.000585622070948981 0.000429465253450847 0.00045583475726306 0.000291431925268448 0.000219341433787138 2.12298670239881e-05 0.000178716417147488 -0.000149521299099202
"344" 0.000110987607390249 6.44902407444647e-05 0.00102897999339476 5.80546295289077e-05 0.000547236245582088 2.94082883723287e-05 0.000314926955558052 0.000305432003425032 0.000580925764864323 0.000421037204948856 0.000459672009920163 0.000296290773560565 0.000211215183869751 1.49501587235683e-05 0.000171919597723676 -0.000151614031220595
"345" 0.000110747758145091 6.32468366794448e-05 0.00100134175073949 5.85509338011482e-05 0.0005438374261217 3.09824379169643e-05 0.00032469896137258 0.000307023860312701 0.000576978366198295 0.000413168798439437 0.000463948912580747 0.000301504086491182 0.000203178204119641 9.18816273962976e-06 0.00016558070982687 -0.000153218854716034
"346" 0.000110890133312035 6.19788111210356e-05 0.000972493950438568 5.96638926198893e-05 0.000540273089984155 3.33317713266319e-05 0.000333924867324149 0.000309146178200386 0.000573831011252825 0.000405942960383167 0.000468687189372193 0.000307050534109104 0.000195264354494166 3.97566466274699e-06 0.000159712383615072 -0.000154301221922413
"347" 0.000111428585569994 6.06879032658075e-05 0.000942636474036335 6.13804962746308e-05 0.000536580239251191 3.64349339757265e-05 0.000342558535806758 0.000311783853393723 0.000571531172838202 0.000399437774814068 0.000473885640395917 0.0003129017519869 0.000187511480399381 -6.64588629305854e-07 0.000154324087517398 -0.000154842629300476
"348" 0.000112384761389826 5.937564638564e-05 0.000911962337004407 6.36902563893201e-05 0.000532783533293534 4.02694417552841e-05 0.000350547459147573 0.000314909768039163 0.000570112177001607 0.000393723241895727 0.000479552702807067 0.000319025363582465 0.000179948249075833 -4.71479067713158e-06 0.000149414961478649 -0.000154817422977866
