"V1" "V2" "V4" "V5" "V7" "V8" "V10" "V11" "V13" "V14" "V15" "V17" "V18" "V20" "V21" "V23"
"1" -6.95128530531886e-07 -6.20082381208008e-06 -7.98895213892801e-06 -8.69480885923765e-06 -1.91971288287177e-05 -8.42000773807589e-06 -4.86341374430544e-06 -6.86739774143565e-06 1.7147648071011e-06 1.2316638166518e-06 -4.93193517802823e-06 -1.68292028286775e-05 -1.86441612753718e-05 -6.50347520584271e-06 -1.50697769568052e-05 -3.88190674556642e-05
"2" 3.44475846920386e-05 9.94970572259923e-07 2.04701858481206e-05 1.23211884864241e-05 1.62365336773061e-05 2.27409207241897e-05 2.6095365387242e-05 5.1710687934323e-06 8.79912637485577e-05 -3.48550637923048e-05 5.91847072090668e-05 6.59990925280468e-06 4.96985845772919e-05 0.000208689034430371 0.000447872057224102 0.000579362112833216
"3" 6.945719015088e-05 8.12695257111065e-06 4.87901036138569e-05 3.32720157391467e-05 5.15462902080034e-05 5.36940141578006e-05 5.67662587933687e-05 1.7185945831925e-05 0.000173620390076051 -7.16498408037086e-05 0.000122978502605997 3.00048199274098e-05 0.000117788368654005 0.000415582908818639 0.000909612428710747 0.00118552602076641
"4" 0.00010418373475704 1.51746928799459e-05 7.68189504058877e-05 5.40930908009183e-05 8.65611885930992e-05 8.41637430556302e-05 8.68278908898249e-05 2.91516718710029e-05 0.000257923352932426 -0.00010917469181586 0.000185910778789 5.3322047423279e-05 0.000185280446639752 0.000614425786274692 0.00136795959839451 0.00177670773425984
"5" 0.000138481129678584 2.21121553893617e-05 0.000104400847763659 7.47138323311882e-05 0.000121103441216739 0.000113881792459809 0.00011596716791344 4.10420076737883e-05 0.000340228935946884 -0.000147441448131294 0.000247444976962829 7.64785671963001e-05 0.000251834088788173 0.000805583029240956 0.00182075895800081 0.00234997214192709
"6" 0.000172212596849675 2.89270676041385e-05 0.000131391103889652 9.50758487895317e-05 0.000154997648387016 0.000142581689504256 0.000143872794263545 5.28366160227704e-05 0.000419880944380216 -0.000186434914018307 0.000307057357835939 9.94058723125577e-05 0.000317116622433726 0.000989499115246379 0.0022658774402024 0.00290242784365588
"7" 0.000205244585039708 3.56009545079812e-05 0.000157653542115742 0.000115115696559534 0.000188073329200549 0.000170008278094014 0.000170256275807508 6.45090714626469e-05 0.000496253074449718 -0.00022612327183617 0.000364236452712394 0.000122028284144408 0.00038080192164473 0.00116667935989668 0.00270124105105903 0.00343124431866872
"8" 0.000237457123893349 4.21263172498488e-05 0.000183053989798977 0.000134781823935681 0.000220169528592654 0.000195921729377505 0.000194843333188115 7.6036604268606e-05 0.000568744896160481 -0.000266455446750652 0.000418495368870122 0.000144272323650764 0.000442578261135627 0.00133766725553383 0.00312483070884322 0.00393367196063501
"9" 0.000268736818345828 4.84911567396231e-05 0.000207476028862774 0.000154019211083493 0.000251133369580135 0.000220095422305807 0.000217374243980019 8.73977353935618e-05 0.000636794386388563 -0.000307364165237958 0.000469374015468539 0.000166060362738884 0.000502155378702574 0.00150301367735811 0.00353470260195051 0.00440708306139619
"10" 0.000298987644520629 5.46949170106376e-05 0.000230810226357933 0.00017278470565064 0.000280817644544853 0.000242325089104407 0.000237626183714977 9.85743934374024e-05 0.000699884037633281 -0.000348758687902276 0.000516442617619811 0.000187315155337141 0.000559252555893115 0.00166326985968342 0.00392899561137965 0.00484899692419028
"11" 0.000328128458070729 6.07347700040366e-05 0.000252960361427537 0.000191036597422651 0.000309094527478831 0.000262426265486811 0.000255395377140897 0.00010954558765631 0.000757549443032055 -0.000390530256392086 0.000559318893046918 0.000207952185871877 0.000613617671002249 0.00181895437319766 0.00430595674644048 0.00525711899159773
"12" 0.000356082427918028 6.66162990258581e-05 0.000273842678204663 0.000208738117270334 0.000335834634815114 0.000280237759872078 0.000270510255175618 0.000120294128305117 0.00080937963473331 -0.000432557342302956 0.000597653128005276 0.000227893780510397 0.000665021832935712 0.00197055728441169 0.00466393777224803 0.00562939912324561
"13" 0.000382801521391002 7.23451598357467e-05 0.000293391229913523 0.000225860395293521 0.000360932643870172 0.000295630727786018 0.000282839144470755 0.000130802999755996 0.000855021828534311 -0.000474695615968481 0.000631147092465084 0.000247050453045425 0.000713258484840687 0.0021185130846042 0.0050014227621995 0.00596405197084465
"14" 0.000408245500350216 7.79357808457866e-05 0.000311552436870552 0.00024237831915819 0.000384299047405446 0.000308500570365997 0.000292276330345865 0.000141054518416185 0.000894197028226984 -0.000516795890207643 0.000659557775453112 0.000265340657064695 0.000758157055376093 0.00226319618007131 0.00531703613841858 0.00625961744185875
"15" 0.00043238977500508 8.34026660998424e-05 0.000328288539801332 0.000258274437158706 0.000405850030315841 0.000318775296563655 0.000298759803624371 0.000151038561336468 0.000926680173558378 -0.000558692817503608 0.000682689705043386 0.000282677220479239 0.000799572960673744 0.00240490914434395 0.00560955186573971 0.00651498213428613
"16" 0.000455235489509401 8.87624095736498e-05 0.000343578710516771 0.000273538201052994 0.000425523833312985 0.000326413471589742 0.000302265641673589 0.000160739881322341 0.000952334368131224 -0.000600216178668207 0.000700409099828988 0.000298969378323412 0.000837393256626347 0.00254388131493376 0.00587790985230707 0.006729414543185
"17" 0.000476791561361647 9.40376826052592e-05 0.000357415695466989 0.000288157688509573 0.000443270390499761 0.000331404024193565 0.000302803683556944 0.000170148926229158 0.000971079568159839 -0.000641185208954308 0.000712641600273699 0.000314135611824482 0.00087153990480928 0.00268026070223782 0.00612122730010373 0.0069025997608639
"18" 0.000497083009452618 9.92527346002861e-05 0.000369810347731189 0.000302135732530284 0.000459065236234694 0.000333771145202186 0.000300428474696241 0.000179258274082654 0.000982917039462821 -0.000681420159122619 0.000719366436311389 0.000328086221973478 0.000901963069157865 0.0028141095585827 0.00633880342665386 0.00703463886959905
"19" 0.000516158209525933 0.000104431924972337 0.000380785000595842 0.000315474355035331 0.000472889672837387 0.000333568347513467 0.000295222919368401 0.000188057607977304 0.000987921966406273 -0.000720733870023387 0.000720632134345601 0.000340738824109537 0.000928654433280823 0.00294540315816229 0.0065301358660059 0.00712605918331974
"20" 0.00053407144331957 0.000109605921763839 0.000390384936206417 0.000328182780388539 0.000484749541846971 0.000330883457853468 0.00028731925720381 0.000196541509837672 0.000986236268933188 -0.000758948980252816 0.0007165354839773 0.000352011197206633 0.000951626129210356 0.00307403585335898 0.0066949123847826 0.00717781619614019
"21" 0.00055090010207852 0.000114803395974347 0.000398662894084065 0.000340279521350008 0.000494656324606525 0.000325826543976815 0.000276871316666174 0.000204703671035781 0.000978074784720242 -0.000795880046728715 0.000707237981364091 0.000361822072016746 0.00097093339281466 0.00319981175488081 0.00683303244138581 0.00719126292417364
"22" 0.000566722810203662 0.000120051794077561 0.00040568697587234 0.000351779528158658 0.000502648429554056 0.000318542082783343 0.000264072516995936 0.000212540043011153 0.00096371782599713 -0.000831357044395136 0.000692960331827379 0.000370095953017252 0.000986657997275851 0.00332245124877813 0.00694458635207898 0.0071681361079757
"23" 0.000581640952061866 0.000125380962633116 0.000411534828561625 0.000362708373004329 0.000508774820938283 0.000309196848887955 0.000249146685051612 0.000220046814669624 0.000943508969363444 -0.000865208339620754 0.000673963074452138 0.000376765928675157 0.000998910813856228 0.00344160074839309 0.00702987075858084 0.00711052444903909
"24" 0.000595756983416453 0.000130824043948114 0.00041630128140444 0.000373091692533152 0.000513090947667352 0.000297982047949847 0.0002323366098503 0.00022722294571284 0.000917848472242462 -0.00089727413501405 0.000650568172003641 0.000381760799438491 0.00100783180888674 0.00355682812794996 0.0070893801798615 0.00702082022117067
"25" 0.000609187964947494 0.000136403841224922 0.000420090315030798 0.000382965636875616 0.000515671541726745 0.000285111685520895 0.000213918000989199 0.000234068895729433 0.00088719145825123 -0.000927399357511472 0.000623134647005504 0.000385025363080316 0.00101358228559614 0.0036676354588605 0.007123785233695 0.006901681290481
"26" 0.000622053842314703 0.000142147902723088 0.000423008090141773 0.000392359615032426 0.000516606858045178 0.000270809496277143 0.000194180426741157 0.000240575291874959 0.000852037473870558 -0.000955437611206271 0.000592065170329223 0.000386504125664883 0.00101634915732691 0.00377346239974216 0.00713394733411158 0.00675597491994562
"27" 0.000634480417047951 0.00014808368303698 0.000425175204172495 0.000401315127936056 0.000515990962326196 0.00025532513267912 0.000173428015084784 0.000246753199448998 0.000812926464134187 -0.000981260409815527 0.000557794130311959 0.000386156016671323 0.00101633913528019 0.0038737069964768 0.00712089354136467 0.00658674377110064
"28" 0.000646595317544299 0.000154228658391136 0.000426717070158839 0.000409868259699987 0.000513927970644371 0.00023890778110455 0.000151979465732796 0.000252592725712522 0.000770434388766487 -0.00100473575094193 0.000520789607269475 0.000383944558251541 0.00101377908901873 0.00396771500398142 0.00708580066717262 0.006397142570836
"29" 0.000658530438850897 0.00016060483355007 0.000427762957946707 0.000418063721079808 0.000510531490824601 0.000221822300569243 0.000130160702868232 0.000258101820237827 0.000725159835037015 -0.00102575206615338 0.000481534874913957 0.00037984624302122 0.00100890423858831 0.00405481935118819 0.00702998649827808 0.00619040292370295
"30" 0.000670410595071223 0.000167225859009087 0.000428441581143069 0.000425941229498912 0.000505919723575477 0.000204334928433424 0.000108301722311248 0.000263274472072992 0.000677720348231847 -0.00104420042953111 0.000440538350466513 0.000373844318910596 0.00100196424253907 0.00413433269079171 0.00695488397126933 0.00596978790165902
"31" 0.000682363941174851 0.000174105161433753 0.000428885952911511 0.000433547743590867 0.000500221982452544 0.000186718155569059 8.67356268998555e-05 0.000268118703655256 0.000628745800764129 -0.00105999282227663 0.000398315495872296 0.000365938028771485 0.000993223279311108 0.00420557541258132 0.0068620371465376 0.00573855094533282
"32" 0.000694508224475311 0.000181249244393089 0.000429230024929699 0.000440924700341226 0.000493566337851267 0.0001692361036082 6.57830651065209e-05 0.000272634317939716 0.000578867519101807 -0.00107303826762069 0.000355384242686623 0.000356136427386236 0.000982938366554717 0.00426788494455024 0.00675307684688988 0.0054999008604516
"33" 0.000706955128806335 0.000188660527413138 0.000429603077142054 0.000448112935899048 0.00048608247470156 0.000152154711700631 4.57654462960777e-05 0.000276822738763475 0.000528714121752723 -0.00108326453904468 0.000312263003554229 0.00034446421919742 0.000971380916420127 0.00432062982963433 0.00662969661364069 0.00525697252231703
"34" 0.000719818107243834 0.000196338650170725 0.000430129250474345 0.000455158822880112 0.000477909654592187 0.000135728713313228 2.69953136610763e-05 0.000280690974566446 0.000478904215063623 -0.00109060818109151 0.000269466449426389 0.000330958257000947 0.000958813076756389 0.00436323830897282 0.00649363815543521 0.00501280139630856
"35" 0.00073318448861568 0.000204279927917629 0.000430935280887511 0.000462099796263567 0.000469177519763084 0.000120208393945119 9.76134285404465e-06 0.000284239317171208 0.000430042695548888 -0.00109501530041932 0.000227493050954035 0.000315667004536765 0.000945495234015476 0.00439520473807652 0.00634667819915879 0.00477029897394499
"36" 0.00074714277580936 0.000212471885269256 0.000432133900822586 0.000468972907727034 0.000460027785295506 0.000105825409526128 -5.65331708649287e-06 0.000287473564747773 0.000382702848956329 -0.00109644716226917 0.000186817996902361 0.000298661244264504 0.000931688352437292 0.00441610990506347 0.00619059444052434 0.00453223099257301
"37" 0.000761760041610921 0.000220899664512592 0.000433829874205636 0.000475814222105212 0.000450584870398094 9.28045436940564e-05 -1.8992087067628e-05 0.000290398846482715 0.000337438196117089 -0.00109486697104024 0.00014790737834686 0.00028001408724237 0.000917640819063939 0.0044256234035377 0.00602715689517475 0.00430120782931455
"38" 0.000777094014237785 0.000229542425248732 0.000436117216606352 0.000482652332161108 0.000440985583489459 8.13467930697406e-05 -3.00123472060162e-05 0.000293021341097617 0.000294762374814946 -0.00109026317175563 0.000111187460835114 0.000259825575545865 0.00090358484080212 0.0044235422597596 0.00585811882698369 0.00407966526223588
"39" 0.000793186095046879 0.000238372670737888 0.000439083462517295 0.000489515064222222 0.000431348022266889 7.16451077408955e-05 -3.85076857565746e-05 0.000295344746148982 0.000255158068986273 -0.00108262970415235 7.70605369441802e-05 0.000238200660726526 0.000889745424289416 0.00440976592179245 0.00568517472114944 0.00386984820543934
"40" 0.000810059714615468 0.000247360491347149 0.000442804104145751 0.000496420551283354 0.000421795614393935 6.38656596523874e-05 -4.42828237114598e-05 0.000297379846116463 0.000219060462457891 -0.00107197308690761 4.58878322474806e-05 0.000215262854536064 0.000876330644742997 0.00438433225582328 0.00550997909305983 0.00367380684003864
"41" 0.000827719900111011 0.000256469666634131 0.00044733574290265 0.000503386559406477 0.000412441500674994 5.81582685374955e-05 -4.71807880018745e-05 0.000299129014318374 0.000186860618554072 -0.00105832273812525 1.8000426707661e-05 0.000191148124173986 0.000863536677385263 0.00434741040799395 0.00533410910694263 0.00349338979870213
"42" 0.000846155346239249 0.000265657299069446 0.000452726044761121 0.000510419475890896 0.000403389446698946 5.46489348138462e-05 -4.70691554886438e-05 0.000300598971079821 0.000158902565403178 -0.00104171417289313 -6.31564299083181e-06 0.000166002215103902 0.00085153958557388 0.00429929166362839 0.00515906146117955 0.00333022413761635
"43" 0.000865342178312531 0.000274874249668268 0.000459002614238902 0.000517524655767424 0.000394741311532352 5.34449344124353e-05 -4.38425139688936e-05 0.000301798015227557 0.000135484033736447 -0.00102220366478496 -2.68180221617846e-05 0.000139988113866294 0.000840491810032858 0.00424039905207519 0.00498622671020551 0.00318571790033435
"44" 0.000885227327406916 0.00028406957048812 0.000466183832277171 0.000524693157669919 0.000386584480144959 5.46233644188368e-05 -3.74321233319748e-05 0.000302735016806947 0.000116841262623578 -0.00099986542058253 -4.33067264363064e-05 0.000113273024390329 0.000830530452605515 0.00417127762657069 0.00481691193708334 0.00306104861161956
"45" 0.000905748685481496 0.000293185359410688 0.000474267249791149 0.000531916528914613 0.00037900000306426 5.82441359802006e-05 -2.77964867866405e-05 0.000303412547973186 0.000103168037389698 -0.000974785584877532 -5.56243722512457e-05 8.60368791012859e-05 0.000821769951987729 0.00409256820704555 0.00465228818763438 0.00295715307945993
"46" 0.000926817818619044 0.000302157231326748 0.000483233680526523 0.000539175790497561 0.000372056434381929 6.43437161064972e-05 -1.49278002531986e-05 0.000303841688997835 9.4592666008131e-05 -0.000947082086686541 -6.36664979865024e-05 5.84708305766789e-05 0.000814302536490912 0.00400502845792275 0.00449341825159934 0.00287473602189839
"47" 0.000948339280046602 0.000310921927263865 0.000493054649778644 0.00054644600699982 0.00036582036590578 7.29266548500023e-05 1.15035834440806e-06 0.000304028129463951 9.11950023156189e-05 -0.000916876089456766 -6.7373007765729e-05 3.07683287531314e-05 0.000808204292930642 0.00390947636488071 0.00434123126944009 0.00281424878717764
"48" 0.000970189896960529 0.000319407128500974 0.000503680273717273 0.000553695923988274 0.000360338694025396 8.39796814060772e-05 2.03842383248395e-05 0.000303976424126827 9.29979869619717e-05 -0.000884311678989647 -6.67313154600752e-05 3.12896597628421e-06 0.000803522487675222 0.00380681010001346 0.00419652486986231 0.00277589847303857
"49" 0.000992240323745199 0.00032753847263355 0.000515050572165158 0.00056088364414202 0.000355649084028392 9.74624407751335e-05 4.26827644921661e-05 0.000303692475371662 9.99683052753763e-05 -0.000849557547640767 -6.17745317733415e-05 -2.42412151465703e-05 0.000800284302179419 0.00369796500950853 0.00405996347646098 0.00275964265843703
"50" 0.00101433964146412 0.000335240102458366 0.000527085548858779 0.000567968535748722 0.000351785788385556 0.00011331170625744 6.79295906492787e-05 0.000303186291297955 0.000112014263213798 -0.000812790651801069 -5.25842547229055e-05 -5.11308793242405e-05 0.000798497040321631 0.00358392682729468 0.00393207156470674 0.00276519706473054
"51" 0.00103632870001642 0.000342432727304794 0.000539696368601043 0.000574899910197393 0.000348767313324625 0.000131437061046812 9.59736235993572e-05 0.000302457566203428 0.00012899746723637 -0.000774215578128545 -3.92822194747688e-05 -7.73367488045426e-05 0.000798141940096606 0.0034656767514303 0.00381324360413039 0.00279202292525719
"52" 0.00105803700332134 0.00034903835545085 0.000552782566369843 0.000581624988822106 0.000346601028819395 0.000151730313984009 0.00012663684285028 0.000301512197659908 0.000150723844337065 -0.000734044363853059 -2.20379016893131e-05 -0.000102652007033232 0.000799184724835942 0.00334421418049329 0.00370373158671679 0.00283934690070272
"53" 0.00107928233479818 0.00035497123613724 0.000566227988604233 0.000588083027090589 0.00034528657041739 0.000174052240958684 0.000159709817627868 0.000300356748968776 0.000176949925865518 -0.000692512237569754 -1.0616017209847e-06 -0.000126876481627817 0.000801569060305093 0.00322052395381577 0.00360366361847269 0.00290616029844068
"54" 0.00109987388284979 0.000360154565947619 0.000579911844066581 0.000594214550725311 0.000344809868993535 0.000198248101094514 0.000194959593439291 0.000298992008511546 0.000207379851299856 -0.000649863305921061 2.33991575238807e-05 -0.000149809155507928 0.000805215804407917 0.00309557458898131 0.00351303958327348 0.00299123179692041
"55" 0.00111961996412292 0.00036450777853885 0.000593706878600813 0.000599960398749856 0.00034514778061878 0.000224143338448293 0.000232123007155411 0.000297418147845511 0.000241683128077499 -0.000606360199550538 5.10627893023103e-05 -0.000171266220189735 0.000810032432627359 0.00297030025195674 0.0034317399482207 0.00309311704175016
"56" 0.00113832318023442 0.000367949731062794 0.000607473604864145 0.000605249195688488 0.000346271141968043 0.000251535617674097 0.000270915669282829 0.000295635503491118 0.000279483233980811 -0.000562274437666156 8.16098457806686e-05 -0.000191071319875445 0.000815904110269018 0.00284560781344449 0.00335953463888448 0.00321016901899411
"57" 0.00115578410941293 0.000370408342782232 0.0006210716816118 0.00061002117006099 0.000348133999907277 0.000280211242855004 0.000311031944513967 0.000293642290288064 0.000320367700037921 -0.000517886964900961 0.000114696151154974 -0.000209055507774352 0.00082270934815286 0.00272235749094197 0.00329609314305146 0.00334056222916019
"58" 0.00117181412762317 0.000371807667645534 0.000634355074804833 0.000614210554848263 0.000350691956968026 0.000309937468173514 0.000352149952474954 0.000291438139926894 0.000363891189041708 -0.000473489148934444 0.000149950634799079 -0.00022507431304561 0.000830304210353174 0.00260136171213937 0.00324098194995274 0.00348230109006528
"59" 0.00118621714648918 0.000372078851151626 0.000647182076179216 0.000617751762451086 0.00035388140623436 0.00034046834945182 0.000393926253823994 0.000289020359132295 0.000409583485263273 -0.000429376377232211 0.000186978242490241 -0.000238992788025784 0.000838537324958954 0.00248339836500657 0.00319369259639186 0.00363324145413248
"60" 0.00119881698495433 0.000371163824171476 0.000659407913449345 0.000620590989350906 0.000357635803355048 0.000371546061020273 0.000436007796262019 0.000286378141615052 0.000456953194362139 -0.000385845253255654 0.000225373696833377 -0.000250699893667837 0.00084724451632266 0.00236917240033916 0.00315363477436083 0.00379111993761788
"61" 0.00120943640312921 0.000369002502784182 0.000670893343142067 0.000622665021917169 0.000361879267656825 0.000402898413155584 0.000478033233320837 0.000283509201100219 0.000505484816882 -0.000343199689122335 0.000264710004165561 -0.00026009925352406 0.000856260546344195 0.00225936432242068 0.00312016766877366 0.0039535774978902
"62" 0.00121792347792367 0.000365547048812914 0.000681499835287504 0.000623924728662749 0.000366538655395614 0.000434252724418803 0.00051963151457129 0.000280404693731748 0.000554655266586059 -0.00030173880767593 0.000304556025940534 -0.000267121486134066 0.000865405678158847 0.00215458559296775 0.00309259442847021 0.00411817739912668
"63" 0.00122412500161531 0.000360759165589703 0.000691099622736527 0.000624321718262886 0.000371523855422116 0.000465327494067458 0.000560432179741274 0.000277055058826396 0.000603939514551209 -0.000261751480588122 0.00034447901864568 -0.000271721577729583 0.00087449820701923 0.00205539288410686 0.00307017461989463 0.00428244013497723
"64" 0.00122791811234644 0.000354605616504638 0.000699571574473977 0.000623813680936799 0.000376748687002087 0.000495838934792947 0.000600067120963631 0.000273455067947603 0.000652801214582905 -0.000223524728824354 0.000384040463848714 -0.000273869224529573 0.000883364908047889 0.00196230187666818 0.00305216286526062 0.00444387237021197
"65" 0.00122920164898264 0.000347069902262025 0.000706807571519592 0.000622367835226411 0.000382120391655312 0.00052550902167348 0.000638169836754828 0.000269590737364936 0.000700721519222755 -0.000187335238835978 0.000422813376796604 -0.000273565904508718 0.000891820273074277 0.00187575916287172 0.00303778089427064 0.00459999664087096
"66" 0.00122787964874615 0.000338139771740596 0.000712707102161522 0.000619953483378865 0.000387549385306946 0.000554062235503914 0.000674389980433234 0.000265455874858004 0.000747178811609449 -0.000153445297191919 0.000460375219937747 -0.000270835554817827 0.000899696705232679 0.00179616665895948 0.00302626631547298 0.00474838777876503
"67" 0.00122389910323279 0.000327819701975203 0.000717184486976637 0.000616554918216012 0.000392938315403174 0.000581230829368009 0.000708387563767948 0.000261037023407121 0.00079167707997337 -0.000122096114245803 0.000496326573871424 -0.000265723187725824 0.000906815632355683 0.00172386124301297 0.00301685620343206 0.00488670023775866
"68" 0.00121721427688478 0.000316124586272895 0.000720168038671714 0.000612159867134721 0.000398202799009365 0.000606763092491718 0.000739841596108408 0.000256334207983039 0.000833732780643248 -9.3518278441336e-05 0.000530270083705575 -0.000258298762310942 0.000913026673985288 0.00165913363815609 0.00300881936341546 0.00501270947341936
"69" 0.00120781900512539 0.000303085029992596 0.000721606229231094 0.000606765310038609 0.00040325355307546 0.000630417825428263 0.000768456199797496 0.000251334613303354 0.000872895883840375 -6.79111273667688e-05 0.000561847778308808 -0.000248652623026878 0.000918170704908404 0.00160220342205786 0.00300144837687269 0.00512433817186093
"70" 0.00119571720022906 0.000288740742151053 0.000721456642257507 0.000600378069646823 0.000408005131029109 0.000651973305527078 0.000793955190609535 0.000246036129749207 0.00090873984668535 -4.54607392354679e-05 0.000590719719563623 -0.000236901059098058 0.000922113833663516 0.00155324661836784 0.00299409173735426 0.00521969881434987
"71" 0.00118095473353829 0.000273144403720815 0.000719699613325844 0.000593013916515886 0.000412379845709793 0.000671225574926214 0.000816095731643862 0.000240434212232708 0.000940876265766051 -2.63165746254922e-05 0.000616576644337432 -0.000223169222773566 0.000924731592639517 0.00151236943957609 0.00298613175775902 0.0052971126387058
"72" 0.0011635976162274 0.000256370838546299 0.000716331156270387 0.000584698996985134 0.000416312792933851 0.000688002241672392 0.00083467346610232 0.000234533253863917 0.000968953972348147 -1.06038254001969e-05 0.000639139266562555 -0.000207607830734211 0.000925916990846959 0.00147962286130519 0.00297701934447907 0.00535515280197612
"73" 0.00114373204918923 0.000238494008612629 0.0007113596161956 0.00057546590960801 0.000419733051478985 0.000702146832192178 0.000849507680851995 0.000228333289572286 0.000992662177289621 1.57809841462466e-06 0.000658169787240731 -0.000190378188436469 0.000925579821384965 0.0014549983369455 0.00296626741350436 0.00539264469766659
"74" 0.00112147887445872 0.000219615491671326 0.000704822175004452 0.000565360130508045 0.000422589187705146 0.000713542790528863 0.000860465505335514 0.000221840267412478 0.00101173684901712 1.01694990440942e-05 0.000673462460806879 -0.000171659423343671 0.000923647721815409 0.00143843428906963 0.00295345440173285 0.00540871031617197
"75" 0.00109696990321337 0.000199835013433281 0.000696762942408948 0.000554429585465892 0.000424835783877854 0.000722089211258932 0.000867445053935126 0.000215064749723036 0.00102596025449901 1.51342796113273e-05 0.000684854579317984 -0.000151634242763352 0.000920069032413172 0.00142979632611997 0.00293824075003995 0.00540276233582087
"76" 0.00107037098495877 0.000179272613629008 0.000687247579819254 0.00054273544871734 0.000426443274905051 0.00072772869447676 0.000870388977821855 0.000208021384258371 0.00103516424211884 1.64703432290748e-05 0.000692220994536985 -0.00013050215989998 0.000914809817646616 0.00142890209699448 0.00292035121713701 0.00537452543829904
"77" 0.00104186652091389 0.000158055054012939 0.000676357748742488 0.000530343933821363 0.000427379018767522 0.000730425847118329 0.000869279828077151 0.000200723537242729 0.00103922778621415 1.42108603683603e-05 0.000695485768354184 -0.000108463210536663 0.00090786075447155 0.00143551088405079 0.00289959553501269 0.00532402933860747
"78" 0.00101164831465636 0.000136315985985918 0.000664184455748656 0.000517329029214235 0.000427635843357213 0.000730182403461643 0.000864141620093665 0.000193193678311738 0.00103808214049951 8.41816619650169e-06 0.00069460408481268 -8.57215584434076e-05 0.000899225861737099 0.00144931971639285 0.00287586367483334 0.00525160048959446
"79" 0.000979942177952102 0.000114200193958743 0.00065083943920659 0.000503770588880619 0.000427209216404491 0.00072702578861338 0.000855034716024999 0.000185457089522673 0.00103171419968768 -8.1554290609788e-07 0.000689584683789482 -6.24896647066563e-05 0.000888941440928783 0.00146997259344412 0.00284911077881107 0.00515786517493029
"80" 0.000946970816156787 9.1856719398328e-05 0.000636442793085555 0.000489752568256894 0.000426107550058299 0.000721020087790177 0.000842062613175147 0.000177538347358098 0.00102015377435291 -1.33710279137968e-05 0.000680468257589037 -3.89746340535493e-05 0.000877050449149518 0.00149706607285511 0.0028193827163098 0.00504372290053628
"81" 0.000912980077187386 6.94392573374132e-05 0.000621127590982242 0.000475364430816158 0.000424345486598215 0.000712256456110121 0.000825362111673616 0.000169467294089612 0.00100348169467638 -2.90922882660968e-05 0.000667341465348958 -1.53769965216551e-05 0.000863623504893602 0.00153013095070093 0.00278678366002381 0.00491033326677912
"82" 0.000878216664085863 4.71065336751889e-05 0.000605034315789942 0.000460700304293293 0.000421959964111923 0.000700851138145038 0.000805106369241207 0.000161279455903739 0.000981825182142541 -4.78050105548121e-05 0.000650325831324248 8.09291427838463e-06 0.000848744702079983 0.00156866067532772 0.00275149306837837 0.00475908502002697
"83" 0.000842935282629899 2.50154835600286e-05 0.000588306037565457 0.000445853084020638 0.000418978234545593 0.000686947529788708 0.000781496694321864 0.000153006481024771 0.000955359673600924 -6.93119265941662e-05 0.000629580701387471 3.12448936917569e-05 0.000832512807935763 0.00161209459824915 0.00271375197529241 0.00459157105692055
"84" 0.000807392970981558 3.3214051705815e-06 0.000571100340482153 0.000430921255277882 0.00041545235477235 0.000670710171649694 0.000754766034899276 0.00014468540767753 0.000924301356315395 -9.33883914704944e-05 0.000605302824079115 5.3887507674533e-05 0.000815049456243501 0.00165983106520245 0.00267385549234809 0.00440956529333198
"85" 0.000771849042210068 -1.78137277688101e-05 0.000553577201984296 0.000416003255776789 0.000411433888222902 0.000652330632285168 0.00072517096692318 0.000136358584134671 0.000888897515166874 -0.000119799054050363 0.000577710820033843 7.58445754700309e-05 0.000796483411464126 0.00171123319052378 0.00263215131046365 0.00421498494506254
"86" 0.000736557167776206 -3.82417854940664e-05 0.000535893536463488 0.000401195048382308 0.000406983606938146 0.000632008854838502 0.000692989675396192 0.000128062030939092 0.000849441204270639 -0.00014828701412207 0.000547062002448062 9.69420678006568e-05 0.000776954286261597 0.00176562083960591 0.00258902925529045 0.00400985840345579
"87" 0.000701767554062987 -5.78132847104378e-05 0.000518204993796266 0.000386590992440979 0.00040216080229296 0.000609967216067325 0.0006585173997356 0.00011983664214822 0.000806248419148587 -0.000178586257358333 0.000513629973695197 0.000117025883387272 0.000756616189225897 0.00182229275948177 0.00254491382990787 0.00379630453354191
"88" 0.000667719882054999 -7.63859604783983e-05 0.00050066949285871 0.000372287899419202 0.000397040839534451 0.000586435949881424 0.000622061095345705 0.000111723086286968 0.000759662543189568 -0.000210419202689886 0.000477710221693686 0.000135949732540147 0.000735623373224335 0.00188051945958919 0.00250025155054652 0.00357649289970106
"89" 0.000634647954758551 -9.38259550085839e-05 0.000483446814436762 0.000358372250372281 0.000391691804301309 0.000561650221832762 0.00058394037629163 0.000103760278315579 0.000710051111421765 -0.000243502545590057 0.000439622107139947 0.000153576776583521 0.00071414491922717 0.00193954758391574 0.00245551551465896 0.00335261951978047
"90" 0.000602766913320501 -0.000110006318922341 0.000466681285320733 0.000344934496435816 0.000386190822086871 0.000535857579928299 0.000544474939468891 9.59859999927116e-05 0.000657797971316903 -0.000277545908321005 0.000399684718487883 0.00016979482066691 0.000692346493709033 0.0019986212831906 0.00241118133196426 0.00312688590771757
"91" 0.000572283880864699 -0.000124816221695251 0.0004505122293148 0.000332053036214258 0.000380608716929223 0.000509303775807358 0.000503991983885562 8.84378663319163e-05 0.000603295302649613 -0.000312262946807913 0.000358238035342525 0.000184499331543407 0.000670395627514626 0.00205696685168372 0.00236772824869331 0.00290146617631088
"92" 0.00054338385555561 -0.000138149285894263 0.000435073056356457 0.000319803639861599 0.00037501848871097 0.000482231430098299 0.00046281003230805 8.11477019629154e-05 0.00054694833966207 -0.000347367977212327 0.000315623965998932 0.00019759671283559 0.000648460640252443 0.00211382135862103 0.00232562884512683 0.0026784987481776
"93" 0.000516239865475482 -0.000149912404573871 0.000420493609685102 0.00030825909776254 0.000369493412332321 0.000454885890183737 0.000421246496077334 7.41530501532344e-05 0.000489159640529434 -0.00038257752453019 0.000272177006769527 0.000209017305360099 0.000626710581431451 0.00216843041663388 0.00228534081036025 0.00246005316470206
"94" 0.000490997532443952 -0.000160027540827438 0.000406880149048024 0.000297476136542196 0.000364103352009961 0.000427498856053071 0.00037961015871421 6.74792550656929e-05 0.000430334916218134 -0.000417622006335508 0.000228243130481417 0.00021870095434113 0.000605303315867452 0.00222005404807063 0.0022473024617879 0.00224812063547045
"95" 0.000467787933067784 -0.000168429706516224 0.0003943337445651 0.000287513011762093 0.000358914502376264 0.00040029639992127 0.000338193615229056 6.11526840458672e-05 0.00037086887158564 -0.000452236577780023 0.000184151332561442 0.00022660603265024 0.000584395427536824 0.00226798459044869 0.00221192244635828 0.00204460046059273
"96" 0.000446720187177303 -0.000175062608316326 0.000382943983469932 0.000278414461005955 0.000353983680652679 0.000373496840048587 0.000297276126319237 5.51994139899538e-05 0.000311149135839268 -0.000486167917981691 0.000140223301735478 0.000232705367272621 0.000564131926630498 0.00231153937547608 0.00217957329305812 0.0018512774737791
"97" 0.000427881590058009 -0.000179891453142129 0.000372778805051628 0.000270219628993528 0.000349368837092954 0.000347297820988714 0.000257121554310027 4.96340435042783e-05 0.000251545593750191 -0.000519177961870117 9.67688311687508e-05 0.000236990197091217 0.000544650657464408 0.00235008887514302 0.00215059828982004 0.00166982063073148
"98" 0.00041133064102008 -0.000182889108470202 0.000363903989180085 0.000262956471525555 0.000345120603891548 0.000321891312850509 0.000217977460053333 4.4476418330537e-05 0.000192416761161187 -0.000551048451294353 5.40849956931487e-05 0.00023946499954218 0.000526079315613985 0.00238304602873718 0.00212528423573077 0.00150175981573779
"99" 0.000397109005966443 -0.00018404804300812 0.000356355287260996 0.000256644601954177 0.000341282309518443 0.000297447838249158 0.000180064084691117 3.97359609312473e-05 0.000134092111295472 -0.00058157460386774 1.24431278496072e-05 0.000240148680246118 0.000508535763758359 0.00240989050980279 0.00210388237177815 0.00134849101170176
"100" 0.000385236270152428 -0.000183368368073076 0.00035016796855916 0.000251295416288313 0.000337889047348302 0.000274120428129958 0.000143583847982606 3.54197450124489e-05 7.68856660774865e-05 -0.00061057360922095 -2.79004187712913e-05 0.000239078799612502 0.000492119017748124 0.00243016528553874 0.00208658487492363 0.00121125335197625
"101" 0.000375703478532705 -0.00018087220890863 0.000345348652642555 0.000246909236482065 0.000334969173161208 0.000252044160469222 0.00010871723732812 3.15326907157592e-05 2.10774699922298e-05 -0.000637880173801999 -6.6715630625806e-05 0.000236305124451236 0.000476914109029089 0.0024434905194051 0.00207354254309615 0.00109112958187002
"102" 0.000368480406099699 -0.000176588940224335 0.000341897152674399 0.000243476886352443 0.000332544896411906 0.000231337018789637 7.56141762215885e-05 2.80705554644413e-05 -3.3075022932485e-05 -0.000663350681239667 -0.00010379391599761 0.000231893664504337 0.00046300264194066 0.00244956394396608 0.00206484374479726 0.000989034532057384
"103" 0.000363521793566076 -0.000170566163006436 0.000339793544882281 0.000240980550811792 0.000330626584730339 0.000212097811578032 4.44073478898624e-05 2.50292653203865e-05 -8.53440170629089e-05 -0.000686868177765637 -0.000138954132615211 0.000225920847156101 0.000450437668783496 0.00244816793994235 0.00206053563250281 0.000905705101624675
"104" 0.000360751607869938 -0.00016286120089767 0.000339002408842955 0.0002393936739033 0.000329220720971655 0.000194403357939089 1.52009666746528e-05 2.23977267120861e-05 -0.000135531297026842 -0.000708331801393602 -0.000172039863101565 0.000218478666853854 0.000439263803353626 0.00243917278265557 0.00206060127082703 0.000841697480907476
"105" 0.00036007943431055 -0.000153547961014213 0.000339475906766228 0.000238678408985761 0.00032832159181506 0.000178308747268093 -1.19240784431535e-05 2.01654558845838e-05 -0.000183475919296927 -0.000727669056042787 -0.000202926465299144 0.000209671123891604 0.000429509761291803 0.00242253492972241 0.00206497501181068 0.000797387319410091
"106" 0.000361399988666189 -0.00014270352207223 0.000341154011743899 0.000238793910523676 0.00032791889403016 0.000163856282972812 -3.69078333310826e-05 1.8313329117906e-05 -0.000229035684115386 -0.000744825515578667 -0.000231513330957468 0.000199614141522064 0.000421192403404339 0.00239830902700848 0.00207354357294992 0.000772959580496025
"107" 0.000364580513797691 -0.000130429613860071 0.000343954615802794 0.000239683796114302 0.000327993812567417 0.000151062733506596 -5.97226711097131e-05 1.68180933502793e-05 -0.000272115695708747 -0.000759777789050707 -0.000257729163177806 0.00018843147206775 0.000414306515915423 0.00236662841571604 0.0020861427417405 0.000768403606415919
"108" 0.000369483733309425 -0.000116827778761852 0.000347787795486968 0.000241289629405212 0.000328520672904024 0.000139926766459336 -8.03548186161614e-05 1.56560902970587e-05 -0.000312637630812057 -0.000772516369590698 -0.000281526393179193 0.000176256201986451 0.000408837096869798 0.00232772068906357 0.00210256554035699 0.000783520672189289
"109" 0.000375947880265801 -0.00010201340289635 0.000352560700464469 0.000243545351467653 0.000329460472533114 0.000130433374071227 -9.88184332300189e-05 1.48029921890472e-05 -0.00035055685310186 -0.000783063820601976 -0.000302889389433535 0.000163227056635092 0.000404753357405497 0.00228189529961848 0.00212255525697084 0.000817908953693928
"110" 0.000383805235426059 -8.61122217483812e-05 0.00035815693003093 0.000246377604715307 0.00033078060608034 0.000122545552296038 -0.000115145817314008 1.42222907312381e-05 -0.000385865470163132 -0.000791457491588889 -0.000321825337035169 0.000149497793181034 0.00040200834397731 0.00222953756451056 0.00214582531598738 0.000870977733039798
"111" 0.000392879174841964 -6.92529254664205e-05 0.000364458602002584 0.000249707888858145 0.000332426541509881 0.00011620958511172 -0.00012938860086179 1.38832591518164e-05 -0.000418569800848561 -0.000797758466245115 -0.000338365377514358 0.000135217443859319 0.000400550099826021 0.00217110345013275 0.00217205032626138 0.000941947444300776
"112" 0.000402980040124634 -5.15766048053115e-05 0.000371338378869403 0.000253454252691728 0.000334348198587526 0.000111361811178501 -0.000141619088580112 1.37486413748731e-05 -0.000448709360800851 -0.000802044729017339 -0.000352560783984652 0.000120544930166022 0.000400307529067353 0.00210710951334649 0.00220086895092428 0.00102984543358582
"113" 0.000413913616342525 -3.32247577424798e-05 0.000378666740546724 0.000257530961312925 0.000336491386264765 0.000107918403462766 -0.000151921757353226 1.37820926363512e-05 -0.00047634696751525 -0.000804422075780309 -0.000364496554107699 0.000105635327787388 0.000401203433452087 0.00203813991492884 0.0022319082280065 0.00113352843187666
"114" 0.00042548839713269 -1.4350595850975e-05 0.000386305280149511 0.000261850092883888 0.000338791296756622 0.00010578664982405 -0.000160401507386276 1.39419275031213e-05 -0.000501559260753965 -0.000805002313623927 -0.000374258986576977 9.06509494851446e-05 0.000403143337528584 0.0019648055819395 0.00226476001525048 0.00125167642203088
"115" 0.000437503322794326 4.89793488361247e-06 0.00039411139513743 0.000266323385842388 0.000341187565163616 0.000104860164583066 -0.000167170576477318 1.41910334397756e-05 -0.000524456786414804 -0.000803919573844929 -0.000381970364072033 7.57475020959385e-05 0.000406036693124461 0.0018877666757346 0.00229900802227768 0.00138281284643649
"116" 0.000449760393235875 2.43659945982624e-05 0.000401948381548562 0.00027086203332516 0.000343609971518684 0.000105026943361357 -0.000172359039985195 1.44847371594317e-05 -0.000545152322600488 -0.000801319237705896 -0.000387752387348946 6.10817882219967e-05 0.00040977161309955 0.00180770066019621 0.00233421497796827 0.00152531466633413
"117" 0.000462067656238352 4.39005785266184e-05 0.000409678181537 0.000275376820978632 0.000345994009693921 0.000106161411095351 -0.000176097060182955 1.47823773277508e-05 -0.000563778460185341 -0.000797360159553294 -0.000391752424226332 4.68040478340785e-05 0.000414243772561501 0.00172530084024785 0.00236995139305657 0.0016774225170173
"118" 0.000474237874194584 6.33463710329846e-05 0.000417162217510081 0.00027978020033481 0.000348271728682856 0.000108135920306663 -0.000178532741543899 1.50472720767226e-05 -0.000580482611185616 -0.000792211170993526 -0.000394120879315878 3.30609197560269e-05 0.000419332685689891 0.00164127273610015 0.00240577429920958 0.00183726937487253
"119" 0.000486089642342115 8.25534785416756e-05 0.00042426640845562 0.000283992664788083 0.000350374336208492 0.000110819898598854 -0.000179810676014992 1.52356658297467e-05 -0.000595413915395951 -0.000786046686513039 -0.00039501579618974 1.99888492598858e-05 0.000424926371100869 0.00155630248773442 0.00244124762823822 0.00200287902997669
"120" 0.000497453706799501 0.000101374652402064 0.000430871342768707 0.000287932257131308 0.000352242365111305 0.00011407232590403 -0.00018008178883716 1.53108983465708e-05 -0.000608731642023471 -0.000779050984597672 -0.000394607015552627 7.7186673410695e-06 0.00043090325081174 0.00147108119390815 0.00247594548803358 0.00217220413333556
"121" 0.000508174271730721 0.000119668556034828 0.00043684946692696 0.00029152739109736 0.00035380834160296 0.000117759521423265 -0.000179500436388926 1.52356927615429e-05 -0.000620600121593338 -0.000771405225813509 -0.000393066791484026 -3.62957145143128e-06 0.000437144702225877 0.00138626094895832 0.00250945248957122 0.00234313575599695
"122" 0.000518102898543369 0.000137301089513365 0.000442100694691486 0.000294711108266491 0.000355016764730826 0.000121746229817929 -0.000178214281870088 1.49759403484811e-05 -0.00063118270796733 -0.000763291096558151 -0.000390561062415637 -1.3949974610213e-05 0.000443531578364273 0.00130247639285601 0.00254136341479155 0.00251353205494111
"123" 0.000527116614007477 0.00015414180494994 0.000446521886727207 0.000297422528178368 0.000355812006301953 0.00012589823895842 -0.000176375060125766 1.45057212244499e-05 -0.000640643797471842 -0.000754895838061714 -0.000387260068392998 -2.31397056597651e-05 0.00044994905195756 0.0012203276000819 0.00257129973350741 0.00268124248638288
"124" 0.000535098251632135 0.000170075571694956 0.000450030142827633 0.000299610000005023 0.000356152575564783 0.000130086025603324 -0.000174125854523615 1.37906569551454e-05 -0.000649138921861594 -0.000746398361610812 -0.000383333751063864 -3.11167180771814e-05 0.000456289740325739 0.00114037315111457 0.00259890345149578 0.00284412588388224
"125" 0.000541959659301708 0.000184992919939444 0.00045255020322916 0.000301229030105008 0.000355995633982729 0.000134188241299207 -0.000171602015601371 1.28141788526902e-05 -0.000656817532339747 -0.00073796635171837 -0.000378935953955253 -3.78133452550332e-05 0.000462446145445132 0.00106312657406675 0.00262384043894528 0.0030000872863133
"126" 0.000547626100991537 0.000198799376143347 0.000454022761795579 0.000302246614175456 0.000355306821763988 0.000138092747134583 -0.000168932471814315 1.155208949892e-05 -0.000663828617867333 -0.000729763248832259 -0.000374222107157097 -4.31691770834439e-05 0.000468324345917123 0.000989056826435388 0.00264581331097255 0.0031470955053176
"127" 0.000552040690486427 0.000211413377840726 0.00045440701288228 0.000302637058334879 0.000354062738750041 0.000141693303043631 -0.000166237758401425 9.99280327935414e-06 -0.000670300209527097 -0.000721940187990946 -0.000369332429682569 -4.71432144332641e-05 0.000473833039463977 0.000918583624564453 0.0026645463529658 0.00328321542336122
"128" 0.000555179768497781 0.000222760601941792 0.000453667571148683 0.000302387604674373 0.000352248910083983 0.000144897032967649 -0.000163624866587573 8.1256755389837e-06 -0.000676352228581711 -0.000714638027685471 -0.000364393836375305 -4.97056396161475e-05 0.000478888117173457 0.000852076749735666 0.00267980119485872 0.00340663239854125
"129" 0.000557018625752931 0.000232788042378204 0.000451798098759113 0.000301489282988756 0.000349853668384506 0.000147618676927771 -0.000161187156641329 5.94927352883783e-06 -0.00068209718605945 -0.000707979424952418 -0.000359525199142297 -5.08451126322956e-05 0.000483424789624686 0.00078985785414568 0.00269137950071962 0.00351567793579004
"130" 0.000557576997393212 0.000241451330759484 0.000448796230296192 0.000299951040809308 0.000346887554523055 0.000149792694855948 -0.000159011020560956 3.46020341253039e-06 -0.000687617829559917 -0.000702071804630095 -0.000354826341278494 -5.05585731382552e-05 0.00048738278213927 0.000732194787325899 0.002699114853843 0.00360884868791524
"131" 0.000556878414434203 0.000248727174686652 0.000444680776705704 0.000297786233688239 0.000343355624055758 0.000151364256846821 -0.000157162607777624 6.68789570420281e-07 -0.00069299410539286 -0.000697005569899095 -0.000350386122140695 -4.88606796508078e-05 0.000490710089007683 0.000679310108735401 0.00270288137158444 0.00368483488564573
"132" 0.00055497116817916 0.000254603216315119 0.000439489298519439 0.000295022596941399 0.000339282289343086 0.000152289611240527 -0.000155696656631979 -2.41591248088846e-06 -0.000698277954227804 -0.000692852200080604 -0.000346273444555168 -4.57781415175754e-05 0.000493376251531466 0.00063137612276626 0.00270259304400733 0.0037425394744392
"133" 0.000551922056281416 0.000259080224191485 0.000433261548701441 0.000291688386142122 0.000334701517712996 0.000152543386837535 -0.000154648953170446 -5.77489393293386e-06 -0.000703517539176622 -0.000689664187430144 -0.000342541966700243 -4.13499712377965e-05 0.000495349884452394 0.000588519683501568 0.00269819649900463 0.0037810818246937
"134" 0.000547816570754255 0.000262177222128005 0.000426062486697689 0.000287829471433838 0.000329647062433631 0.000152115522780774 -0.000154046670675658 -9.3845464951046e-06 -0.000708727821389431 -0.000687478031966514 -0.000339228528549722 -3.56221198086412e-05 0.000496623665496762 0.000550827786003747 0.00268969368472249 0.00379982979372151
"135" 0.000542753789803789 0.000263926205459706 0.000417971413962487 0.000283500216204525 0.000324171364246025 0.000151009922614795 -0.000153896020382096 -1.32190236770505e-05 -0.000713916025771311 -0.000686301881995067 -0.0003363496944921 -2.86616833857529e-05 0.000497198108950908 0.000518340731843047 0.00267710235413058 0.00379838795302489
"136" 0.0005368484837017 0.000264371239030478 0.000409068300976017 0.000278751225971869 0.000318332685581557 0.000149240861914003 -0.00015419409877786 -1.72456945625397e-05 -0.000719068522833228 -0.000686132906808601 -0.000333913073377361 -2.05373649169757e-05 0.000497081911987362 0.000491063291696702 0.00266049282889286 0.00377661006605179
"137" 0.000530226524245198 0.000263569841690176 0.000399454322345283 0.000273651493572909 0.000312192509915406 0.000146844478321773 -0.000154917664053546 -2.14298468698309e-05 -0.000724154244574557 -0.0006869436976555 -0.000331901123731329 -1.13301817921903e-05 0.000496304080165146 0.000468963897260651 0.00263996312264029 0.00373459459638898
"138" 0.000523025522774981 0.00026159672231997 0.000389236073712653 0.000268272373010113 0.000305828124398257 0.000143865720925477 -0.00015603429728452 -2.57254120352106e-05 -0.000729128296838188 -0.000688690760464007 -0.000330287782310657 -1.12203710162068e-06 0.000494894802534008 0.000451981270813426 0.00261564544146135 0.00367269077874595
"139" 0.000515389240183426 0.000258525716549481 0.000378522041427575 0.000262686249497667 0.000299311700350801 0.000140363706324271 -0.000157502438680918 -3.00948454131579e-05 -0.000733929196655681 -0.000691315189906475 -0.000329030156810419 9.9865753710946e-06 0.000492900742428951 0.000440018157908804 0.00258769702806589 0.00359146917739197
"140" 0.000507467065449085 0.000254450195230395 0.00036743872205969 0.000256970194094434 0.000292722244314435 0.000136403168177032 -0.000159263382676622 -3.44881296220911e-05 -0.000738480910230786 -0.000694737779867535 -0.000328071154912665 2.18994890635428e-05 0.000490376028539919 0.00043295379207771 0.00255630872923555 0.0034917281467293
"141" 0.000499418284023728 0.000249468522742314 0.000356109569421256 0.000251206592028457 0.000286153123717016 0.00013206835544719 -0.000161249758854279 -3.88569528686732e-05 -0.000742699351421758 -0.000698867710627367 -0.000327348095714416 3.45136576597806e-05 0.000487383304904494 0.000430646017062299 0.00252169544244892 0.00337446454413669
"142" 0.000491393408232204 0.000243686876706355 0.000344663074657321 0.000245476668260442 0.000279689343295699 0.000127442637442059 -0.000163390908676497 -4.31510002292667e-05 -0.000746483542674563 -0.000703599129364432 -0.000326781051607398 4.77204436141659e-05 0.000483998114778524 0.000432926214340681 0.00248408263570426 0.00324085665723695
"143" 0.000483550150985125 0.00023721180587818 0.000333224669749827 0.000239860584003901 0.000273416464463782 0.000122624521239626 -0.000165604883210437 -4.73179674707468e-05 -0.000749735391663564 -0.00070881789275679 -0.000326284745868593 6.14126693557963e-05 0.000480293694831538 0.000439614168755949 0.00244372749487984 0.0030922533936914
"144" 0.000476035485075509 0.000230161787851663 0.000321922528571922 0.000234439942067524 0.000267429970338445 0.000117713333510214 -0.000167805419271738 -5.13055309323363e-05 -0.000752343815105191 -0.000714401588471902 -0.000325772070988646 7.54766300470531e-05 0.000476350079080016 0.000450509994458572 0.00240089243371192 0.00293013729068822
"145" 0.000468996835931346 0.000222650059116091 0.00031088421902622 0.000229292710228372 0.000261811909169474 0.000112810582810724 -0.000169905940699873 -5.50678564376929e-05 -0.000754188293281766 -0.000720212249919117 -0.0003251422384437 8.98045547142048e-05 0.000472257554442308 0.000465396846407858 0.00235584713349814 0.00275610777613128
"146" 0.000462571038991205 0.000214797044734384 0.000300231192064856 0.000224493503969527 0.000256653913779014 0.000108024722078969 -0.000171813715372199 -5.85463575394323e-05 -0.000755157641742682 -0.000726116424762129 -0.000324301665884079 0.00010428653908395 0.000468099430114077 0.000484055437079691 0.00230887632917727 0.00257186565118273
"147" 0.000456885701946739 0.000206718103009003 0.000290080267653549 0.000220113243087928 0.000252034921651654 0.000103463320541975 -0.000173440189479538 -6.16998194773836e-05 -0.000755133906454684 -0.000731973532882641 -0.000323148429128077 0.000118810260841986 0.000463973555565703 0.000506248611018508 0.00226026451340214 0.00237917375908401
"148" 0.000452058758842716 0.000198525738148066 0.000280537593859034 0.000216217021199856 0.000248032297710164 9.92279785049015e-05 -0.000174695438038544 -6.44833282587475e-05 -0.000754004864463883 -0.0007376448024683 -0.000321590861071015 0.00013327380197018 0.000459959914163969 0.00053174450943182 0.00221030052038371 0.0021798495265195
"149" 0.000448188247260132 0.000190334892986391 0.000271707077406267 0.000212861023600882 0.000244716378588494 9.5420426920925e-05 -0.00017549599512365 -6.68517832522762e-05 -0.000751663025707315 -0.000742989935825653 -0.00031953320389729 0.000147570079491693 0.000456153037020572 0.000560292329954526 0.00215926872737775 0.00197573102670443
"150" 0.000445363641119899 0.000182249741856524 0.000263673316099945 0.000210099704212071 0.000242153217471648 9.21390958794668e-05 -0.000175762947198588 -6.87720317169226e-05 -0.000748008467859485 -0.000747869709638614 -0.000316887656045172 0.000161598928617186 0.000452632956157662 0.000591648393480759 0.00210744576848228 0.001768671228728
"151" 0.000443655362818189 0.00017437311762836 0.000256523558535074 0.000207977180901014 0.000240395685155168 8.94743490924928e-05 -0.000175422198815088 -7.02072222293285e-05 -0.000742945407436002 -0.000752157934347965 -0.000313574412430041 0.000175266269769519 0.000449482719487538 0.000625565311135285 0.00205510434095826 0.00156050498495451
"152" 0.000443117258783403 0.000166796565290472 0.000250320684936941 0.000206523292415538 0.000239495495669607 8.75051567766127e-05 -0.000174411068695291 -7.11355160322345e-05 -0.000736397744425621 -0.000755731861671783 -0.000309523277781137 0.000188475703020188 0.000446776479237452 0.000661795221006862 0.00200250454530361 0.00135303541203024
"153" 0.000443780636376734 0.000159604525642611 0.000245120822224733 0.000205768357124422 0.000239481949739389 8.63102130746895e-05 -0.000172674468589415 -7.15332299144629e-05 -0.000728294311145546 -0.000758474922049158 -0.000304671572372921 0.00020113982336447 0.000444579963144405 0.000700092488585691 0.00194989036678015 0.00114802099878941
"154" 0.000445667050309201 0.000152878789142428 0.000240970142973418 0.000205725856949345 0.000240387135550472 8.59476931713397e-05 -0.000170165684770428 -7.13839696972948e-05 -0.000718586077581227 -0.000760284484376257 -0.00029897444594552 0.000213178426363053 0.000442951712485833 0.000740212145797411 0.00189748742189576 0.000947161640648828
"155" 0.000448764083047946 0.000146677646722147 0.000237884725795414 0.00020640089359388 0.000242218591502434 8.64684750268247e-05 -0.000166858031484787 -7.06809295485086e-05 -0.00070723609999666 -0.000761077054312052 -0.000292395423767015 0.000224514656298893 0.000441948162659625 0.000781919525379176 0.0018455186240988 0.000752088868145518
"156" 0.000453049136754271 0.000141063885571996 0.000235884389838046 0.000207788238562602 0.000244982991304982 8.79134727528221e-05 -0.000162723317592394 -6.94264954595412e-05 -0.000694222690732055 -0.000760770261535135 -0.000284910811236039 0.000235079076100236 0.000441605338553826 0.000824975670776649 0.00179416240322823 0.000564349064467889
"157" 0.000458480319426551 0.00013608007044234 0.00023496414889887 0.000209873806005155 0.000248667075779485 9.03045720291523e-05 -0.000157760127791406 -6.76265673622844e-05 -0.000679549238772015 -0.000759302196384586 -0.000276515620943092 0.000244801525109361 0.000441957593750915 0.000869150409258533 0.00174359259247855 0.000385395114403305
"158" 0.00046498882138786 0.000131762001303228 0.000235106992577405 0.000212627599857607 0.000253248330188431 9.36541679105425e-05 -0.000151975430411416 -6.52946888798069e-05 -0.000663234487576765 -0.000756633746627631 -0.000267222606436545 0.000253626795856248 0.000443021798616021 0.000914227556978446 0.00169395733154871 0.00021659031203159
"159" 0.00047249034427899 0.000128128906634633 0.000236279940373165 0.000216016049199718 0.000258691894803794 9.79558591628332e-05 -0.000145386953235244 -6.24543083341116e-05 -0.000645315995370279 -0.000752732754484386 -0.000257053947189164 0.00026150318731054 0.000444807761477076 0.000959982226212936 0.0016453790861804 5.91851624938768e-05
"160" 0.000480885442840249 0.000125193373074543 0.00023843701711959 0.000219992807833083 0.000264948086683796 0.000103192360037819 -0.000138033259423229 -5.91343844802063e-05 -0.000625858500494034 -0.00074758795534186 -0.000246055898215426 0.000268387302993277 0.000447310217049201 0.00100620805631101 0.00159795386861795 -8.56728981567406e-05
"161" 0.000490043188373467 0.000122955951362256 0.000241513417090831 0.000224495225622555 0.000271956134335949 0.000109329805969923 -0.000129959442103174 -5.53753547142095e-05 -0.000604938672433324 -0.000741212097424142 -0.000234283065624816 0.000274234752144073 0.000450511957565181 0.00105269806274283 0.00155175733753532 -0.000216958947733145
"162" 0.00049983361963581 0.000121399755891535 0.000245435290511133 0.000229460736852661 0.00027964066220841 0.000116320790324748 -0.000121227635854321 -5.12209304739197e-05 -0.000582655055365474 -0.000733627490620049 -0.000221812792414863 0.000279019634773892 0.000454385905184845 0.00109925234909655 0.00150683198761694 -0.000333761530388629
"163" 0.000510101432297417 0.000120505208347765 0.000250114019501843 0.00023481352806944 0.000287918797524239 0.000124098616611132 -0.000111918162641529 -4.67238183533829e-05 -0.000559133649753597 -0.000724874518052851 -0.000208733689379831 0.000282709567420324 0.000458891946981209 0.00114567841590289 0.00146320160051104 -0.000435296235515456
"164" 0.000520676205658466 0.000120236227709086 0.000255450701262707 0.000240469104429389 0.0002966904285834 0.000132589200731989 -0.000102114438611475 -4.19429477896931e-05 -0.000534513476066135 -0.000715020908662896 -0.000195148908840228 0.000285293529581426 0.000463978596497002 0.00119179642357818 0.00142087150280886 -0.000520902607822788
"165" 0.000531379548483484 0.000120546347710893 0.00026133018913481 0.000246332932150514 0.000305853718553671 0.000141698547154096 -9.19180703850719e-05 -3.69458532511965e-05 -0.000508947942525386 -0.000704145683053618 -0.00018118348525969 0.000286756346112275 0.000469580697320547 0.0012374209500366 0.0013798230251412 -0.000590039396539146
"166" 0.000542021008503779 0.000121381755253462 0.00026763182337676 0.000252312341624817 0.00031528927710985 0.000151324311805034 -8.1439684239813e-05 -3.18017185103684e-05 -0.000482617981078228 -0.00069233927466546 -0.000166962157645776 0.000287094600349141 0.000475626524134176 0.00128237843394718 0.00134001280181557 -0.000642301070901925
"167" 0.000552403421851366 0.000122680144686355 0.000274227766773608 0.000258298594736757 0.000324876392756065 0.000161350405797439 -7.07982311431681e-05 -2.65856075287202e-05 -0.000455708796962187 -0.000679718986578357 -0.000152632842830661 0.000286309183519776 0.00048202898247323 0.00132650290303558 0.00130138631496145 -0.000677407287681966
"168" 0.000562323333675387 0.000124367354535009 0.000280981933937444 0.000264188453335271 0.000334481129175814 0.000171652154196974 -6.01190750358294e-05 -2.13806281163768e-05 -0.000428427406845087 -0.000666407169459061 -0.00013834575332782 0.000284407131672284 0.000488696751185955 0.00136962719970812 0.00126386378195549 -0.000695201837465128
"169" 0.000571572907782382 0.000126364662817058 0.000287748579660869 0.000269867895567954 0.000343968306648471 0.000182093230917803 -4.95418116619469e-05 -1.62711999778594e-05 -0.000400987647144354 -0.000652543710308899 -0.000124257579751296 0.000281402811003565 0.000495527105928604 0.0014115918526165 0.00122736038885911 -0.000695658617458066
"170" 0.000579948609897452 0.000128590196342502 0.000294384538341372 0.000275226077926153 0.00035319645357902 0.000192535142196294 -3.92010039417118e-05 -1.13405953946607e-05 -0.000373614242812734 -0.000638280357229237 -0.000110540335964787 0.000277321587445029 0.000502414750936199 0.0014522422057063 0.00119176962087165 -0.000678874620075013
"171" 0.000587243195324775 0.00013095184313248 0.000300744787858754 0.000280150737808413 0.000362018668030716 0.000202824786887265 -2.92393866899769e-05 -6.67819375109457e-06 -0.000346535916390602 -0.00062377655207408 -9.73587687418404e-05 0.000272185184456345 0.000509241591375564 0.00149142243208295 0.0011569788880407 -0.000645073736594445
"172" 0.000593258398463048 0.000133356345241016 0.000306678423120787 0.000284528046335011 0.000370300649609457 0.000212812929952794 -1.97994617070382e-05 -2.36705250553725e-06 -0.000319990682762072 -0.000609200735634493 -8.4886171592476e-05 0.00026602557324289 0.000515891448665915 0.00152898544931382 0.00112286811325782 -0.000594604472873196
"173" 0.00059780018111183 0.000135706328182574 0.000312040610987464 0.000288249300326423 0.000377891890680295 0.000222343330043784 -1.10271595691659e-05 1.49798485108394e-06 -0.000294214512573787 -0.00059472667496578 -7.32933850042838e-05 0.00025888406227731 0.000522245947247124 0.00156478392874546 0.00108931625975209 -0.000527927630819673
"174" 0.000600684514475772 0.000137907467204292 0.000316686076354576 0.000291207057038569 0.000384652666954375 0.00023126239337123 -3.06000978834072e-06 4.83703312452734e-06 -0.000269440206794818 -0.000580532500012841 -6.27509457038556e-05 0.000250801539686359 0.000528178959243565 0.00159867464628611 0.00105619408198258 -0.00044562037190725
"175" 0.000601745522418683 0.000139858622370349 0.000320486006786445 0.000293303929644273 0.000390447871995331 0.000239415151999727 3.96504960008892e-06 7.56690720584781e-06 -0.000245904497930646 -0.000566793524955343 -5.34205663039344e-05 0.000241827179676041 0.000533567852659721 0.00163051210228419 0.00102337107332354 -0.000348379530028866
"176" 0.000600825588264433 0.00014146823682183 0.00032330338709916 0.00029444251156545 0.000395148105609867 0.00024665575828207 9.92062420863513e-06 9.61014074832835e-06 -0.000223830810892301 -0.000553690596777269 -4.54593046721067e-05 0.000232009446464528 0.000538295791769111 0.00166015455098331 0.000990727188859748 -0.000237001354702106
"177" 0.000597788488403475 0.000142640467704043 0.000325025916253634 0.000294538251867868 0.000398633119411416 0.00025283681216183 1.46836082742425e-05 1.0893259259906e-05 -0.000203430776447037 -0.000541394372004044 -3.90128950144258e-05 0.000221406862241549 0.000542240179986235 0.00168746449639268 0.000958146244582422 -0.000112379194432517
"178" 0.000592517616707167 0.000143288188523261 0.000325537926467428 0.000293513687483756 0.000400788487984277 0.000257825721148525 1.81425905689442e-05 1.13511166588807e-05 -0.000184909882187124 -0.000530074585785689 -3.42154285868635e-05 0.00021007826138486 0.000545293271420442 0.00171230414469555 0.000925518173552691 2.44841570002221e-05
"179" 0.00058491467927062 0.000143329075678312 0.000324749644191447 0.000291304809888004 0.000401517745720382 0.000261496829804446 2.01992141766681e-05 1.09244082277923e-05 -0.000168451805988982 -0.000519880897726855 -3.11864222881013e-05 0.000198086699050124 0.000547349401988101 0.00173453726343407 0.000892740966612382 0.000172499555346478
"180" 0.00057490769555892 0.000142684228896461 0.000322571940356782 0.000287853414442431 0.000400727139975413 0.000263732475889803 2.07664001132568e-05 9.56219651586145e-06 -0.000154229111063588 -0.000510966974879047 -3.00329923428121e-05 0.000185496693794622 0.000548303565479626 0.00175403414453396 0.000859737092185036 0.000330499151367157
"181" 0.000562447782574304 0.000141286280182558 0.000318946878998658 0.00028311865308463 0.000398349046307881 0.000264436980846491 1.97752473146351e-05 7.22267063935838e-06 -0.000142385572467118 -0.000503459055871937 -3.08432616349559e-05 0.000172377850564413 0.000548072245808962 0.00177066514698127 0.000826430997693447 0.000497233577644744
"182" 0.000547513207619213 0.000139074169903945 0.000313812219723429 0.000277067937200625 0.0003943242395238 0.000263522470304286 1.71683314085497e-05 3.87755359279744e-06 -0.000133050382579029 -0.000497480867310981 -3.36812845324145e-05 0.000158801112075382 0.000546572604510544 0.00178431097309122 0.000792777245231087 0.000671381510104456
"183" 0.000530106484730159 0.000135998104608437 0.000307142676512992 0.00026968877422171 0.00038861419779294 0.000260920374931149 1.29079135893397e-05 -4.98654565706983e-07 -0.000126324303956631 -0.000493128008379842 -3.85975391283167e-05 0.00014483886229254 0.000543743388507779 0.0017948469506758 0.00075873714143186 0.000851571405216029
"184" 0.000510255589181427 0.000132018280349653 0.000298916887964629 0.000260979000825818 0.000381189056650002 0.000256578391562375 6.97260954703403e-06 -5.91070378392796e-06 -0.000122281488686495 -0.00049048091860424 -4.56190697356987e-05 0.000130562381191549 0.000539521832231919 0.00180216509129253 0.00072430017277676 0.00103636808972731
"185" 0.000488016406938068 0.00012710468177793 0.000289141677994227 0.000250948648562926 0.000372049056031642 0.000250464347405866 -6.40994844087204e-07 -1.23597251154904e-05 -0.000120973788325173 -0.000489600789623593 -5.47498172984179e-05 0.000116047618645362 0.000533869172145435 0.00180616007120945 0.000689473271570604 0.00122430754264228
"186" 0.000463474365816419 0.000121241847285708 0.000277834165523939 0.000239628156714082 0.000361200852839203 0.000242566909161467 -9.91196239453626e-06 -1.98275044153343e-05 -0.000122417817294943 -0.000490523465777349 -6.59724596661658e-05 0.000101368172816843 0.000526762830602324 0.00180673330043162 0.000654291573725398 0.00141388713264831
"187" 0.000436734388131622 0.00011442467502832 0.000265034217427663 0.00022705772950261 0.000348683870445894 0.000232892963893028 -2.08094267367578e-05 -2.82903485654427e-05 -0.000126606672611146 -0.000493262843397408 -7.92440857000319e-05 8.6600680134093e-05 0.000518187455374369 0.00180379587008925 0.000618796121055505 0.00160358951158929
"188" 0.000407929066322215 0.000106659620483529 0.000250795663134281 0.00021329304786366 0.000334544145704449 0.000221465602314699 -3.32742656525743e-05 -3.77094325548009e-05 -0.000133503490147095 -0.000497816836788857 -9.45041369888559e-05 7.18182539369818e-05 0.000508144512772324 0.00179727610422979 0.000583061622979178 0.00179189095688096
"189" 0.000377214879811557 9.79667225278163e-05 0.000235200362043245 0.000198403959593159 0.000318848222578798 0.000208337992448448 -4.72356923840243e-05 -4.80332157870809e-05 -0.000143041734222618 -0.000504148544496207 -0.000111662428543234 5.70897856343648e-05 0.000496654842830938 0.00178711016029106 0.000547177854133358 0.00197727570110838
"190" 0.000344770612994122 8.83795333918735e-05 0.000218337735855204 0.000182474365320056 0.000301689757042979 0.000193575253605824 -6.260168788787e-05 -5.92003143421134e-05 -0.000155122489682862 -0.000512205304263739 -0.000130610587746244 4.24922341659657e-05 0.000483752309726233 0.00177324160785064 0.000511248065591589 0.00215824686461999
"191" 0.000310791188527746 7.7939317620187e-05 0.000200310247973084 0.000165598788254787 0.000283163573771232 0.000177262496364739 -7.92657304670285e-05 -7.11327588637345e-05 -0.000169627654522122 -0.000521908379401779 -0.000151224281695284 2.80934924583722e-05 0.000469489236979805 0.00175563875567008 0.000475407771254744 0.00233334897580717
"192" 0.000275494406879731 6.67021123916274e-05 0.000181246442822605 0.000147883139184051 0.000263399646887893 0.000159505915669475 -9.71026479320582e-05 -8.37548325752765e-05 -0.00018640490280061 -0.000533156826818898 -0.000173352166401776 1.39617782478549e-05 0.00045392695378535 0.00173428211601614 0.000439793521285612 0.00250117531268586
"193" 0.000239102804935022 5.47350199670837e-05 0.000161278599094365 0.000129443158938193 0.000242526556739698 0.00014042891053461 -0.000115973556562771 -9.6964372016855e-05 -0.000205281577119129 -0.000545832957788651 -0.00019683084703974 1.64802366060582e-07 0.000437146156388427 0.00170917048797195 0.000404567078476658 0.00266039049074108
"194" 0.000201864443590534 4.21138424610524e-05 0.000140556458895372 0.000110405436727605 0.000220692653855628 0.000120168703122637 -0.000135724523125752 -0.000110663606904802 -0.000226063598360347 -0.000559791117944334 -0.000221473314038007 -1.32386380654585e-05 0.000419237287585014 0.00168031925714131 0.000369898493875794 0.00280974709289887
"195" 0.000164032441040535 2.89229509149988e-05 0.000119238605332996 9.09021556134032e-05 0.000198060517209879 9.88805186549433e-05 -0.000156195691925544 -0.000124739790479858 -0.000248527565506815 -0.000574875812983221 -0.000247084429891307 -2.61833408948154e-05 0.000400309353861968 0.00164776170975695 0.000335969630766026 0.00294809240562858
"196" 0.000125865307249529 1.52577395175648e-05 9.74873008555752e-05 7.10723305642302e-05 0.000174805200038131 7.67274665542654e-05 -0.000177210007418894 -0.000139075621145088 -0.000272438665746825 -0.000590907093411898 -0.000273455564177986 -3.86156666520572e-05 0.000380480356224986 0.00161154971001784 0.000302970401157714 0.0030743946962993
"197" 8.76281844323878e-05 1.21548553924499e-06 7.54798478506779e-05 5.10616889774593e-05 0.000151100122543974 5.38904356290408e-05 -0.000198590519338514 -0.000153546206294415 -0.000297543526407589 -0.000607695072634832 -0.000300369846175837 -5.04835122994899e-05 0.00035988006281732 0.00157176464206823 0.00027110029939203 0.00318774769247552
"198" 4.95872675407232e-05 -1.30917213340292e-05 5.33924289993628e-05 3.10181825145929e-05 0.000127140831753077 3.05556514751946e-05 -0.000220142662266497 -0.000168024332141715 -0.000323576148020732 -0.000625040411193992 -0.00032759277004083 -6.17311909209735e-05 0.000338647633060049 0.00152849741965787 0.000240549130794651 0.00328739378483916
"199" 1.20117614411646e-05 -2.75550191590181e-05 3.14103508065144e-05 1.10874844226037e-05 0.000103112157017179 6.91780444815574e-06 -0.000241677838098381 -0.000182375243861774 -0.000350260038497668 -0.000642726840954936 -0.000354896759985886 -7.23197046232475e-05 0.000316928068080644 0.0014818697642808 0.00021151847079473 0.00337272412488805
"200" -2.48345850714302e-05 -4.20568193420438e-05 9.71073707123155e-06 -8.57644968331597e-06 7.92132037560808e-05 -1.68252548725068e-05 -0.000263001660740407 -0.000196469988152827 -0.000377310866567638 -0.000660530675576542 -0.000382040383264819 -8.22052777555361e-05 0.000294876443195086 0.00143201279713424 0.000184198882294373 0.00344329041957152
"201" -6.06953526671442e-05 -5.64815683126979e-05 -1.15214591121038e-05 -2.78278353962084e-05 5.56405856526442e-05 -4.04723310794142e-05 -0.000283921572255147 -0.000210170714027275 -0.00040443093729252 -0.000678229225990303 -0.000408791478032614 -9.1351675786064e-05 0.000272655982497211 0.00137908202017985 0.00015877975695249 0.00349881718386661
"202" -9.53203932948282e-05 -7.07123615850808e-05 -3.21065880251448e-05 -4.65197750261045e-05 3.25879719642663e-05 -6.38147911326716e-05 -0.000304240995633295 -0.000223344048919554 -0.000431339337238501 -0.000695591132439562 -0.000434909712747285 -9.97287245498111e-05 0.000250427040541059 0.00132325964912561 0.000135444976847179 0.00353921042107644
"203" -0.000128467381029759 -8.46261676900817e-05 -5.18721241084604e-05 -6.45109656676965e-05 1.02506447682748e-05 -8.66566369876191e-05 -0.000323774450915978 -0.000235858677318119 -0.000457739463316217 -0.000712384761174648 -0.000460165781999417 -0.000107308210042435 0.000228356442454534 0.00126473940335974 0.000114359741004976 0.00356454512716122
"204" -0.000159913306223193 -9.81077763037535e-05 -7.06516534366676e-05 -8.16644061961175e-05 -1.11860838098603e-05 -0.000108794013172948 -0.000342341409182226 -0.000247585925141545 -0.000483339839948836 -0.000728383443614892 -0.000484332283404145 -0.000114070661427718 0.000206614185412312 0.00120373033762255 9.56786614871053e-05 0.00357507933905124
"205" -0.000189444590456955 -0.000111043110549951 -8.82809463948143e-05 -9.78505279401557e-05 -3.15405954351773e-05 -0.000130034523665719 -0.000359763291717035 -0.000258401945781788 -0.000507868154441578 -0.000743363073253848 -0.00050719359271705 -0.00011999953043999 0.000185363918741883 0.00114046527532389 7.95369897496409e-05 0.00357124273455398
"206" -0.000216864015124668 -0.000123322299119467 -0.000104608907126829 -0.000112946086210932 -5.06391578971161e-05 -0.000150192352844996 -0.00037587765301358 -0.000268190869471755 -0.000531050254670717 -0.000757107195262933 -0.000528543104266045 -0.000125086245943426 0.000164768496096797 0.0010751867977855 6.6053690505497e-05 0.0035536359930554
"207" -0.000241997380372243 -0.000134840481879598 -0.000119500638928772 -0.000126840977491523 -6.83179616128301e-05 -0.000169089074795342 -0.000390531949361522 -0.000276840175647883 -0.000552627772459533 -0.000769404980562025 -0.000548185059376455 -0.000129324027367744 0.000144989273405274 0.00100814508009707 5.53223849527487e-05 0.00352300890618939
"208" -0.00026468379604577 -0.000145496521059568 -0.000132824694331382 -0.000139430830522616 -8.44252512388647e-05 -0.000186556892054812 -0.000403583167141117 -0.000284249299084961 -0.000572356345062158 -0.000780061147925755 -0.000565945324160423 -0.000132716301348916 0.000126179914590663 0.000939611488115846 4.74158469585205e-05 0.00348026955338357
"209" -0.000284785486128547 -0.000155199601301888 -0.000144465154763418 -0.00015062387239714 -9.88289413550141e-05 -0.000202444354004004 -0.000414905058356725 -0.000290323991504099 -0.000590012773887983 -0.000788888144548218 -0.000581655310107255 -0.000135267972595002 0.000108486123019298 0.000869856445677452 4.23799082569092e-05 0.00342644303419263
"210" -0.000302190203550857 -0.000163865835837699 -0.00015432923374835 -0.000160339110239229 -0.000111398020256687 -0.00021660970912774 -0.000424388502441113 -0.000294982954656437 -0.000605385828582348 -0.000795722627422292 -0.000595170544129406 -0.000136994817097911 9.20499131584953e-05 0.000799166211356855 4.02322852643725e-05 0.00336267911131841
"211" -0.000316807640735048 -0.000171421218578397 -0.000162329354434466 -0.000168510950091095 -0.000122032768176544 -0.000228926528955519 -0.00043193909466445 -0.000298156952761123 -0.000618290805419357 -0.000800409138931802 -0.000606366973954641 -0.000137911346829364 7.69968354201512e-05 0.000727826691992756 4.09664670787623e-05 0.0032902183559615
"212" -0.00032856577805563 -0.00017780047354812 -0.000168396501959282 -0.000175082343268822 -0.000130636173642515 -0.000239286338233043 -0.000437479296494543 -0.000299784959008325 -0.000628562045467211 -0.000802817100117845 -0.000615139041292463 -0.000138043062440135 6.34432260770231e-05 0.000656128530760282 4.4546346263798e-05 0.00321038853224198
"213" -0.000337422271416821 -0.000182949797343741 -0.000172487263789898 -0.000180015662337587 -0.000137139826346005 -0.000247601126305454 -0.000440953087915031 -0.000299826270812215 -0.000636068191548568 -0.000802829328432081 -0.000621399326161248 -0.000137418857139548 5.14969137325196e-05 0.000584358109980569 5.09019941202865e-05 0.00312456974354521
"214" -0.000343360428552621 -0.000186822670544246 -0.000174560729252643 -0.00018328184994206 -0.000141492529876899 -0.000253794948595385 -0.000442322916699708 -0.000298245620486049 -0.000640687389988586 -0.000800354166672058 -0.000625087436653635 -0.000136071253610921 4.1247728689246e-05 0.000512805296714375 5.99342099142491e-05 0.00303417904777311
"215" -0.00034638595906991 -0.000189390473652045 -0.000174608902680862 -0.000184868184862714 -0.000143652688025692 -0.000257816701071149 -0.000441567483459651 -0.00029502433433907 -0.000642340262327211 -0.000795325069761876 -0.000626163624764015 -0.000134043209902411 3.27685174302536e-05 0.000441752728356509 7.1512644506488e-05 0.00294065784369729
"216" -0.000346530323853489 -0.000190630729585228 -0.000172635700001681 -0.000184778706487406 -0.000143614622571114 -0.000259636567067553 -0.000438689279112284 -0.000290162640656956 -0.000640964073738656 -0.000787693074038551 -0.000624615429584619 -0.000131372092573486 2.61294026504525e-05 0.00037148002214141 8.5477868418733e-05 0.00284544036435695
"217" -0.000343845774516677 -0.000190533821068613 -0.000168663145869751 -0.000183029182489626 -0.00014137768775354 -0.00025923549271174 -0.00043371104451092 -0.000283672724480785 -0.000636532645131899 -0.000777432107833572 -0.000620445700405681 -0.000128106697333578 2.13678125403448e-05 0.000302253470352744 0.000101635141411073 0.00274994958456779
"218" -0.00033841774044583 -0.000189109307872471 -0.000162731033194365 -0.000179651777244721 -0.00013697311084233 -0.000256624461864871 -0.000426671601072739 -0.000275578563328184 -0.000629045665139027 -0.000764551306182406 -0.000613686329531869 -0.000124299814598826 1.85172239684401e-05 0.000234337393095103 0.000119768321991194 0.00265556562062094
"219" -0.00033035200193006 -0.000186366578781977 -0.000154901455803042 -0.000174691853741212 -0.000130446763994009 -0.000251836330638301 -0.000417633689474198 -0.000265927820353973 -0.00061853016550043 -0.000749072148345396 -0.000604397853334837 -0.000120004562625829 1.75885092661798e-05 0.000167976050512059 0.000139626814011853 0.00256361683803454
"220" -0.000319771481122584 -0.000182338951888503 -0.000145248072956846 -0.000168208672820449 -0.000121864469158792 -0.000244915472324244 -0.000406680428524692 -0.000254770767979683 -0.000605041131842679 -0.000731045575483651 -0.000592647621950198 -0.000115278242685652 1.85796262722784e-05 0.000103409478590088 0.00016093344421196 0.0024753628561332
"221" -0.000306828269108529 -0.00017706300403675 -0.000133867909298178 -0.000160276808264388 -0.000111315416589452 -0.000235935030385445 -0.000393906973190634 -0.000242183941512672 -0.000588667904700262 -0.000710548744007603 -0.00057854657563453 -0.000110175277290161 2.14639628194583e-05 4.08568328234241e-05 0.0001833948898069 0.00239197786763599
"222" -0.000291698256314095 -0.000170597187797835 -0.000120877599777017 -0.000150983242762068 -9.89094731190068e-05 -0.000224988291215044 -0.000379434118386701 -0.000228251812275583 -0.000569521208296858 -0.000687684798184486 -0.000562211887703153 -0.00010476174066008 2.62049065166334e-05 -1.94737012146691e-05 0.000206694853175192 0.0023145478404106
"223" -0.000274566409228609 -0.000162999932412668 -0.000106398890856111 -0.000140429221350507 -8.47668834799742e-05 -0.000212182253061639 -0.000363395355718417 -0.000213076517185987 -0.00054774680235806 -0.000662576500199762 -0.00054378497500097 -9.909046952719e-05 3.27458927796108e-05 -7.7389466461114e-05 0.000230495301127444 0.00224405567433593
"224" -0.000255645465234135 -0.000154350453147524 -9.05753429499944e-05 -0.000128724693423652 -6.9034921675098e-05 -0.000197646832506945 -0.00034594176608293 -0.00019676582852884 -0.000523503568286957 -0.00063536767704187 -0.000523431616409842 -9.32263577755285e-05 4.10111879538264e-05 -0.000132721335913982 0.000254451607282427 0.0021813686026955
"225" -0.000235159671055021 -0.000144731664302204 -7.35629669863375e-05 -0.000115995103649373 -5.18713425374127e-05 -0.000181530281502691 -0.000327237633018871 -0.000179449189079328 -0.000496989137837854 -0.000606230236324698 -0.000501331943653838 -8.72266086937778e-05 5.09119737454336e-05 -0.000185313257781271 0.000278205383796472 0.00212724701099679
"226" -0.000213352509886895 -0.000134238810211779 -5.55364436991208e-05 -0.000102372643395431 -3.34507704856871e-05 -0.000163994410614376 -0.000307460641760397 -0.000161257568702656 -0.000468416281522792 -0.000575352606860373 -0.00047768104981377 -8.11500201554507e-05 6.23492680616334e-05 -0.000235026992469213 0.000301394394493683 0.00208232704919959
"227" -0.000190475404638544 -0.000122980330233085 -3.66726272646596e-05 -8.79976978092471e-05 -1.39687582455213e-05 -0.000145220327118361 -0.000286800177250274 -0.000142343889884911 -0.000438018755288163 -0.000542940379487659 -0.00045269349791702 -7.50511286189211e-05 7.51968878557004e-05 -0.000281747937350644 0.000323652378468382 0.00204712632829675
"228" -0.000166790682901504 -0.000111059501279074 -1.7156229057584e-05 -7.3020963891599e-05 6.37656616356678e-06 -0.000125398278702916 -0.000265453063340658 -0.000122856779102954 -0.000406050615593298 -0.000509221090585727 -0.000426592323261447 -6.89871748819789e-05 8.93237599046753e-05 -0.000325374738744519 0.000344612587861646 0.002022041141185
"229" -0.000142572337398631 -9.86044048840258e-05 2.80437844694351e-06 -5.76033848523249e-05 2.7373565656192e-05 -0.000104735663306568 -0.000243626380062968 -0.000102962088024917 -0.000372784354724491 -0.000474432703102007 -0.000399615539673554 -6.30008969181302e-05 0.000104587233791277 -0.000365826354731595 0.000363920160856702 0.0020073412052287
"230" -0.000118093118291642 -8.57332814210593e-05 2.30144857843552e-05 -4.19007374067355e-05 4.88037903036764e-05 -8.34446216635069e-05 -0.000221532176095757 -8.28279130944281e-05 -0.000338501470206049 -0.000438831027329804 -0.000372005578784495 -5.71426863577206e-05 0.000120830379629951 -0.000403044493445293 0.000381219668390136 0.00200318276874677
"231" -9.36363179145503e-05 -7.25787328739522e-05 4.32622037931375e-05 -2.60817144096463e-05 7.0432429652687e-05 -6.17503907029438e-05 -0.000199385397992065 -6.26237821094138e-05 -0.000303497105162582 -0.000402671666943179 -0.000344015114468726 -5.14550979341224e-05 0.000137887521734993 -0.000436983372791202 0.000396183421424591 0.00200960569814752
"232" -6.947640785701e-05 -5.92744097546594e-05 6.33358982747768e-05 -1.03133868493822e-05 9.20314485985171e-05 -3.98787766437684e-05 -0.000177399743121235 -4.2528437536721e-05 -0.000268077196308366 -0.000366233327455338 -0.000315899746932984 -4.59682625819886e-05 0.000155585227471608 -0.000467615035721083 0.000408496276537241 0.00202653246491191
"233" -4.58882264433204e-05 -4.59525417388338e-05 8.30269292545881e-05 5.23485968214953e-06 0.000113373200789823 -1.80650541629516e-05 -0.000155790839013094 -2.27144179823884e-05 -0.000232548946677738 -0.000329784851013534 -0.000287912513351048 -4.07190607358235e-05 0.000173743323226828 -0.000494932200703721 0.000417871644360993 0.00205378411451907
"234" -2.3145537783337e-05 -3.27499452999771e-05 0.000102130536530759 2.0398488613087e-05 0.000134217084654532 3.4584679752267e-06 -0.000134767866906576 -3.35628437859629e-06 -0.000197221624698678 -0.000293602456766614 -0.000260307485525341 -3.57252679544464e-05 0.000192176531340485 -0.000518941479067965 0.000424046121601491 0.00209106726378098
"235" -1.50332259142942e-06 -1.98033109408898e-05 0.000120438042282492 3.50150792242993e-05 0.000154341198197804 2.44569464014656e-05 -0.000114537055933923 1.53716760743111e-05 -0.000162407176822352 -0.000257967730385454 -0.000233337218011394 -3.10101724550513e-05 0.00021069729918837 -0.000539664620365185 0.000426790100531929 0.00213800135755828
"236" 1.87875121219608e-05 -7.24025946849553e-06 0.000137759677679435 4.89231624879944e-05 0.000173515149954413 4.47073450523754e-05 -9.52936039295953e-05 3.33026960532812e-05 -0.000128408170826564 -0.00022314991351946 -0.000207245060980062 -2.65842018162564e-05 0.000229120260230604 -0.000557136860003852 0.000425902725356669 0.00219410145332682
"237" 3.7493712802409e-05 4.80350991687627e-06 0.000153901311712654 6.19719465904562e-05 0.000191529332682431 6.39836284465384e-05 -7.72261425502201e-05 5.02760809786993e-05 -9.55197094946128e-05 -0.000189415525610949 -0.000182262592880871 -2.24536662082383e-05 0.000247253617895714 -0.000571413466045077 0.000421231052937649 0.00225880261993318
"238" 5.44014582911016e-05 1.62082322855246e-05 0.000168692302432802 7.40153976835426e-05 0.000208176049617529 8.20754744716026e-05 -6.050541089074e-05 6.61440296604165e-05 -6.40300467739253e-05 -0.000157019219516639 -0.00015861403366101 -1.86149992044256e-05 0.000264917950866375 -0.000582555678173953 0.000412655785301278 0.00233145031568231
"239" 6.93153655904223e-05 2.68523138756988e-05 0.000181964378302773 8.49229085986752e-05 0.00022326394519781 9.87780417824907e-05 -4.52921228067386e-05 8.07593617485789e-05 -3.42059749658902e-05 -0.0001262006979921 -0.000136505816644354 -1.50661816912785e-05 0.000281929352132754 -0.000590640275524301 0.00040009861142621 0.00241131256787635
"240" 8.20566861048211e-05 3.6629705953945e-05 0.000193572986188581 9.45704219824796e-05 0.000236616814894503 0.000113907333794287 -3.17292977746302e-05 9.39952223184654e-05 -6.30168132776961e-06 -9.71942910492561e-05 -0.000116132432101828 -1.17909430018928e-05 0.000298118070504738 -0.000595758481928828 0.000383536919914411 0.00249758689230843
"241" 9.24807040654262e-05 4.5436282929994e-05 0.000203384398890734 0.000102848491235182 0.000248076283976974 0.00012728992431585 -1.99373342609139e-05 0.000105733792451872 1.94499499979922e-05 -7.02030287242294e-05 -9.76651149824346e-05 -8.77257884133556e-06 0.000313316689458668 -0.000598004694313068 0.00036297077174799 0.00258940476720891
"242" 0.00010046254773915 5.31798049743734e-05 0.000211286636678556 0.000109660652681291 0.00025749883883891 0.000138769079313423 -1.00244061642979e-05 0.000115872715068311 4.28388206534726e-05 -4.54187810818012e-05 -8.12546007126861e-05 -5.98498635478411e-06 0.000327373034915491 -0.000597487814532508 0.000338461505148277 0.00268583132449132
"243" 0.000105906552487449 5.97805675665371e-05 0.000217183153443364 0.000114928621765882 0.000264771013022119 0.000148214871576863 -2.0749592361672e-06 0.000124325897150122 6.36854718664318e-05 -2.3004441760436e-05 -6.70287896542047e-05 -3.40381479627106e-06 0.000340141312509865 -0.000594326625653227 0.000310099346755548 0.00278587503710095
"244" 0.000108742045822029 6.51690095893852e-05 0.000221001065582147 0.00011858577497107 0.000269790934954762 0.000155512012997844 3.85208902054536e-06 0.000131026148842847 8.18297269736792e-05 -3.10478775305775e-06 -5.50998125834263e-05 -9.89362780368066e-07 0.000351491738994952 -0.000588641253772073 0.000278028627909089 0.00288850130213051
"245" 0.00010893766646636 6.92925759086455e-05 0.000222693517914385 0.000120588974555285 0.000272493250405759 0.000160574168106112 7.71241999743795e-06 0.000135922469099825 9.71464187924347e-05 1.41670723641122e-05 -4.55407969160586e-05 1.28828605912595e-06 0.000361310623172415 -0.00058055832753186 0.000242417485820082 0.00299262308122415
"246" 0.000106476600725483 7.21058221603404e-05 0.00022222628484291 0.000120905805214097 0.000272819181678922 0.000163332274291154 9.4943477807682e-06 0.000138981261053087 0.000109539252055681 2.8719686550548e-05 -3.84142422852088e-05 3.47252959887739e-06 0.00036949698549685 -0.000570211713119935 0.000203489561758347 0.00309712142394668
"247" 0.00010138309716671 7.35794926841649e-05 0.000219596474674356 0.000119528494959572 0.000270751896843676 0.000163745658616023 9.2005908919981e-06 0.000140185529866886 0.000118945686760706 4.04987195562e-05 -3.37422128329555e-05 5.60297998441566e-06 0.000375965901329969 -0.000557738730041884 0.000161484977100081 0.00320084180765511
"248" 9.37085940249233e-05 7.37028638867529e-05 0.000214818249549684 0.000116461094490878 0.000266291511779761 0.000161798622600561 6.86134345398445e-06 0.000139549180345466 0.000125330344278681 4.94643078874561e-05 -3.15324045231624e-05 7.72714106137039e-06 0.000380648474950497 -0.000543273577726208 0.000116686238984108 0.00330261408399194
"249" 8.35303100771875e-05 7.24713382384455e-05 0.000207930692917207 0.000111731158322913 0.000259461218233669 0.00015750199818591 2.53240980846182e-06 0.000137089170357879 0.000128697848998199 5.5619755663322e-05 -3.17604613303964e-05 9.88641297617048e-06 0.000383501116177151 -0.000526957596111152 6.93936084896551e-05 0.00340124841525914
"250" 7.09555562792176e-05 6.98976602947044e-05 0.000198992630256963 0.000105377942543425 0.000250317233754669 0.000150886075006668 -3.71803305761561e-06 0.000132849328490179 0.000129078386737762 5.89911814797714e-05 -3.43753664684763e-05 1.2126891903061e-05 0.000384484101107917 -0.00050893445585285 1.9934701222006e-05 0.00349554403543805
"251" 5.61107859932065e-05 6.60125624412343e-05 0.000188089303620151 9.74637320888524e-05 0.000238930411546019 0.000142012411238728 -1.17920002634539e-05 0.000126895823813287 0.000126536694715432 5.96272181827198e-05 -3.93062731801945e-05 1.44900087355643e-05 0.000383591216787338 -0.000489337541181724 -3.13393513475402e-05 0.003584319857646
"252" 3.91545573230258e-05 6.08553677747157e-05 0.000175318554738647 8.80642646944963e-05 0.000225404631617284 0.000130962162414604 -2.15750827316718e-05 0.000119303004241536 0.000121169238785154 5.76111003738027e-05 -4.64508835110005e-05 1.70193380789891e-05 0.000380824943853261 -0.000468308639891179 -8.40717764776532e-05 0.00366639638307778
"253" 2.0264585130037e-05 5.44793107837193e-05 0.000160804129097178 7.72689854507645e-05 0.000209853021650101 0.000117840311090212 -3.29350254380434e-05 0.000110167882905702 0.000113098080470661 5.30487352818571e-05 -5.56884268822645e-05 1.97540110471874e-05 0.000376204634311134 -0.000445981837664576 -0.000137887611459766 0.00374062232874332
"254" -3.63298932522342e-07 4.6950059833827e-05 0.000144679209737368 6.51837606977495e-05 0.000192419040024483 0.00010277061286717 -4.57208402296192e-05 9.96001369984872e-05 0.000102476709652549 4.60693547186369e-05 -6.68792815321531e-05 2.27290019717753e-05 0.000369772865443036 -0.000422491792124301 -0.000192398780003862 0.00380588921328249
"255" -2.25162435437916e-05 3.83457189758449e-05 0.00012709954478226 5.19247558634794e-05 0.000173265038872222 8.58977826177735e-05 -5.97691972705752e-05 8.77243128513726e-05 8.94789860070884e-05 3.68228888240312e-05 -7.98629213544231e-05 2.59798123861651e-05 0.000361586981415515 -0.000397960339296094 -0.000247221174830044 0.00386113491349349
"256" -4.59660911242097e-05 2.87541555882011e-05 0.000108229692359574 3.76213785613147e-05 0.000152558604124533 6.73854750602004e-05 -7.49014614320927e-05 7.46753975024859e-05 7.4307028940921e-05 2.54868060871737e-05 -9.44594302683129e-05 2.95282502483074e-05 0.000351713026958399 -0.000372519129925676 -0.000301969595388406 0.00390535726755899
"257" -7.04740443572316e-05 1.82692450298767e-05 8.82439222853801e-05 2.24127370469696e-05 0.000130493245317879 4.74081853214583e-05 -9.09323506251688e-05 6.06038281793811e-05 5.71806229753941e-05 1.22469005961472e-05 -0.000110478888608529 3.34019350440903e-05 0.000340240210938225 -0.000346280599788633 -0.000356251695279872 0.00393763502687946
"258" -9.57952514183989e-05 6.99737938359416e-06 6.73330024936492e-05 6.44253501337096e-06 0.000107269480200633 2.61598663151923e-05 -0.000107662924715709 4.56644381416818e-05 3.83357887798181e-05 -2.68966230360772e-06 -0.000127713384706192 3.76155677081319e-05 0.000327268622274191 -0.000319365351488738 -0.000409688672349814 0.00395712909870126
"259" -0.000121669512640315 -4.95071566775481e-06 4.56915636377669e-05 -1.01344671871956e-05 8.30952969479758e-05 3.84083127113117e-06 -0.000124889502602802 3.0021534246817e-05 1.80267095730227e-05 -1.91006698070165e-05 -0.00014595103284326 4.21792034033834e-05 0.000312912097067151 -0.000291884124154017 -0.00046191483466509 0.00396310076446678
"260" -0.000147839709796218 -1.74564446713091e-05 2.35170627734621e-05 -2.71632938998761e-05 5.81932471268873e-05 -1.93395393815217e-05 -0.000142403731099365 1.38464965926411e-05 -3.48192388065932e-06 -3.67611670752185e-05 -0.000164968033811355 4.70971293661988e-05 0.000297285621844012 -0.000263943698946245 -0.000512572901187126 0.00395492585578647
"261" -0.000174053380145148 -3.04010392313537e-05 1.00996105658072e-06 -4.44832399082491e-05 3.27873008976373e-05 -4.316496865573e-05 -0.000159999115219676 -2.68766445866671e-06 -2.5921775905511e-05 -5.54327525195553e-05 -0.000184537759882313 5.23694283011125e-05 0.000280529483558074 -0.000235638068698731 -0.000561316857902192 0.00393210185870153
"262" -0.000200054751112904 -4.36583174911148e-05 -2.16246639422046e-05 -6.19345626602927e-05 7.10047498013415e-06 -6.74115965163031e-05 -0.000177462705509314 -1.94093398256335e-05 -4.90121475731975e-05 -7.48699893625336e-05 -0.000204429442884298 5.79836951470388e-05 0.000262778226678592 -0.00020707248047789 -0.000607823438758121 0.00389425274349754
"263" -0.00022558865216179 -5.71019508860844e-05 -4.41855886968536e-05 -7.93557102790816e-05 -1.8638274694853e-05 -9.18585925176474e-05 -0.000194590525015796 -3.61362300862091e-05 -7.24713903859285e-05 -9.48315026330815e-05 -0.000224414442366215 6.39215360554496e-05 0.000244178129251761 -0.000178336238519666 -0.000651796144014808 0.00384115148533556
"264" -0.000250417711061654 -7.06110630248221e-05 -6.64755865947267e-05 -9.65908704932055e-05 -4.42084790339652e-05 -0.000116288258595569 -0.000211180713460809 -5.2704267283796e-05 -9.60211725497153e-05 -0.000115066922948484 -0.000244260100487336 7.01616773093251e-05 0.000224881345625899 -0.000149522967615164 -0.000692951978164167 0.00377271211568829
"265" -0.000274308827953438 -8.40551819398766e-05 -8.83060121129584e-05 -0.000113488187604833 -6.93922897267284e-05 -0.000140481881303392 -0.000227037763606625 -6.89371002025728e-05 -0.000119390371202457 -0.000135342598855533 -0.000263756485041829 7.66719445427779e-05 0.000205041101508448 -0.000120719542985399 -0.000731034112876218 0.00368900384803964
"266" -0.000297041539823614 -9.73143623426699e-05 -0.000109485495834192 -0.000129897183556245 -9.397184760356e-05 -0.000164222384363379 -0.000241973561797046 -8.46728288234221e-05 -0.000142305970015962 -0.000155414939761361 -0.000282677956398548 8.34116130864864e-05 0.000184807605917296 -9.20105166330295e-05 -0.000765817237383548 0.00359024567425106
"267" -0.000318413183313187 -0.000110271216536491 -0.000129842608050424 -0.00014567936344336 -0.000117750013195193 -0.000187311909103731 -0.000255814991049191 -9.97559766798369e-05 -0.000164512548366527 -0.000175056484558192 -0.000300823416266159 9.03391683795726e-05 0.000164337612069912 -6.34847818361781e-05 -0.000797094655438348 0.00347681277305305
"268" -0.00033823028881335 -0.000122810838261052 -0.000149213044440695 -0.000160699910791861 -0.000140532638430133 -0.00020955076333528 -0.000268398941382858 -0.000114038498696023 -0.000185762987048557 -0.000194048822440152 -0.000318000526830312 9.73971337402897e-05 0.000143782120937673 -3.52261520597247e-05 -0.000824697481956518 0.00334923621328187
"269" -0.000356324667442917 -0.000134825017763109 -0.000167445290813939 -0.000174840337826532 -0.000162137093478532 -0.00023075650726927 -0.000279575556629683 -0.000127378263457119 -0.000205826989667527 -0.000212186235074465 -0.000334029343634449 0.000104527666766101 0.000123292534371297 -7.31900918599278e-06 -0.000848474020451216 0.00320819804710179
"270" -0.000372541927736967 -0.000146210752082557 -0.00018439838740197 -0.000187982962255183 -0.000182402020350724 -0.000250755954066305 -0.000289210064773967 -0.00013965280490442 -0.00022449009015845 -0.000229270002401889 -0.000348741719439986 0.00011166742415862 0.000103006002414234 2.01426685759345e-05 -0.000868318502854094 0.0030545146775892
"271" -0.000386752823096337 -0.000156877064678965 -0.000199950352658884 -0.000200029450621705 -0.000201178365893504 -0.000269394589031592 -0.000297188269362115 -0.000150747821237912 -0.000241558733148275 -0.000245129401451521 -0.000361996276096774 0.000118741430696255 8.30645803742975e-05 4.70667878509096e-05 -0.000884139964765733 0.00288914364539211
"272" -0.000398844742633587 -0.00016673648814999 -0.000213994015594445 -0.000210889905542991 -0.000218324698327423 -0.000286528982556859 -0.000303407729701061 -0.000160558457791223 -0.000256857176008798 -0.000259596254153182 -0.000373656131359692 0.000125676270034446 6.35931849768641e-05 7.33576584168362e-05 -0.000895889527347329 0.00271316584839689
"273" -0.000408732280191518 -0.00017571564801528 -0.000226434978762763 -0.000220490678354253 -0.000233736553939098 -0.00030203664550229 -0.000307790902948371 -0.000169002249673816 -0.000270236445515751 -0.000272537500444194 -0.000383615586143517 0.000132392759748029 4.47189840300873e-05 9.8916544096702e-05 -0.000903545514595131 0.00252777124337344
"274" -0.000416352119863798 -0.000183746634938009 -0.000237204143308758 -0.000228767575333618 -0.000247313505773345 -0.000315811553664733 -0.000310273726826352 -0.000176008647582671 -0.00028157155030463 -0.00028382615909307 -0.000391784785316832 0.000138803089454448 2.654581782412e-05 0.000123634482535374 -0.000907114660807469 0.0023342442275795
"275" -0.0004216590857557 -0.00019077377946944 -0.000246240186430946 -0.000235671999426687 -0.000258977442009143 -0.000327763942707648 -0.00031081729616465 -0.000181519643805004 -0.000290755423734908 -0.000293359510406377 -0.000398089596456614 0.000144819753625335 9.17827148035078e-06 0.000147394810679221 -0.000906640125782361 0.00213395517096467
"276" -0.000424642614728633 -0.000196752045078637 -0.000253511123017403 -0.000241170359665086 -0.000268678465037538 -0.000337827432093301 -0.000309402127577326 -0.000185497836433679 -0.000297720470714371 -0.000301066428255868 -0.000402487487887542 0.000150353078399163 -7.29554924059408e-06 0.000170091689625834 -0.000902181863827804 0.0019283412259993
"277" -0.000425303062764503 -0.000201649457131188 -0.000258995780985646 -0.000245244920267171 -0.000276379983634233 -0.00034595439850814 -0.000306025814809003 -0.000187922219312661 -0.000302412078314776 -0.000306882516842218 -0.000404952056796598 0.000155312665214885 -2.2800860913351e-05 0.000191591529280345 -0.000893834837730654 0.00171888361533229
"278" -0.000423678044352975 -0.00020544161939111 -0.000262692262170765 -0.000247890120886636 -0.0002820677978399 -0.00035211589283514 -0.000300710167561227 -0.00018878828827597 -0.000304812118673927 -0.000310775128531873 -0.000405476189925656 0.000159603220582079 -3.72727281910537e-05 0.000211768542994999 -0.000881723061890151 0.00150710038872487
"279" -0.0004198194822532 -0.000208117963437747 -0.000264623531283186 -0.000249112818090829 -0.000285750445147008 -0.000356306965792298 -0.000293495217935518 -0.000188103931425479 -0.000304926890575847 -0.000312737178882251 -0.000404081494662903 0.000163136880904146 -5.06612831085447e-05 0.000230489246898346 -0.000865986974301899 0.00129452525188724
"280" -0.00041380408788731 -0.000209681648240561 -0.0002648205658864 -0.000248941348864481 -0.000287455838017786 -0.000358537852856947 -0.000284445542093089 -0.000185901316761382 -0.000302787986061326 -0.000312779079909035 -0.000400809674572232 0.000165817383989391 -6.29290396380602e-05 0.000247613085471322 -0.000846793768896311 0.00108268666214904
"281" -0.000405730334322343 -0.000210139261019962 -0.00026333887303751 -0.000247411741727716 -0.000287233393023406 -0.00035884377439 -0.000273639670682964 -0.000182225594143997 -0.000298454291548135 -0.000310935615677695 -0.00039571490544718 0.000167559890776092 -7.40540726412288e-05 0.000262995059348541 -0.000824333867206122 0.000873094507636593
"282" -0.00039572033914384 -0.000209519048983978 -0.000260254305454003 -0.000244574338465697 -0.000285151302305873 -0.000357278564185805 -0.000261175660980646 -0.000177132675281202 -0.000292012947722944 -0.000307262744014643 -0.000388889458571276 0.000168277289846482 -8.40203979648568e-05 0.000276486839820391 -0.000798805929528126 0.000667218781532
"283" -0.000383919818404313 -0.00020785286688245 -0.000255650875248269 -0.000240497373276457 -0.000281302896026274 -0.000353912259575714 -0.000247173269743705 -0.000170705570083295 -0.000283575796543502 -0.000301842879176163 -0.00038042664453646 0.000167891195368688 -9.28366945063762e-05 0.000287935008908009 -0.000770427605517313 0.000466484237008916
"284" -0.000370482126010977 -0.00020518652929003 -0.000249636072860981 -0.000235254707269589 -0.000275789603260487 -0.000348837143207186 -0.000231764923309751 -0.000163030907881014 -0.000273277237135365 -0.00029477497728527 -0.000370451435631768 0.000166325877098968 -0.000100513191478482 0.000297191131317056 -0.000739433540847229 0.000272255242393589
"285" -0.000355587725545402 -0.000201573204014 -0.000242323763119422 -0.000228939435950129 -0.000268736638707386 -0.00034216155452843 -0.000215101072029359 -0.000154211562087296 -0.000261274304060914 -0.000286176192795915 -0.000359098917246762 0.000163512773480285 -0.000107081371105812 0.000304105299280241 -0.000706066610787511 8.58160881741462e-05
"286" -0.000339428905916392 -0.000197074880389778 -0.000233847433763022 -0.000221646329295737 -0.000260281691186237 -0.000334009463758991 -0.000197343340463849 -0.000144364974638008 -0.000247743541321817 -0.000276187151313915 -0.00034652490292822 0.000159392803507603 -0.000112582007948835 0.000308524104726148 -0.000670574458153683 -9.16338993884178e-05
"287" -0.00032221473543402 -0.000191768710068413 -0.000224347251422969 -0.000213487395308623 -0.000250583222441382 -0.000324522092132366 -0.000178668591864534 -0.000133620761642937 -0.000232885899919842 -0.00026495899912187 -0.000332894940053125 0.000153908916674908 -0.000117059265920833 0.000310310623402466 -0.000633208463660996 -0.000258989107444649
"288" -0.000304157598653819 -0.000185733727894389 -0.000213984119908646 -0.000204581933603649 -0.000239805844757974 -0.000313853448397 -0.000159264072345553 -0.000122118429167635 -0.000216911861956247 -0.000252665360938999 -0.000318390808242864 0.000147027642053323 -0.000120578251456204 0.000309323385124661 -0.000594217363095194 -0.000415248117574271
"289" -0.00028549221857549 -0.000179057389504638 -0.000202921011532004 -0.000195056183355241 -0.000228130572127095 -0.000302171125574899 -0.000139321574690615 -0.000109998760474719 -0.000200053057880242 -0.000239486768272124 -0.000303204304932104 0.000138710537719505 -0.000123211532583289 0.000305439895348975 -0.000553851795891744 -0.000559519673631948
"290" -0.000266445335263938 -0.000171832973200215 -0.000191321882499267 -0.000185039373976371 -0.00021574178328452 -0.000289650097164708 -0.000119042417175183 -9.74215386942023e-05 -0.000182546564769547 -0.000225617950386826 -0.000287531081331055 0.000128943926388305 -0.000125029707848874 0.000298543841443446 -0.000512359187031941 -0.00069102988811826
"291" -0.000247259684765985 -0.000164159330832029 -0.000179369098741516 -0.000174671105617799 -0.000202835272731005 -0.000276474541095435 -9.86325308413754e-05 -8.45410254941218e-05 -0.000164645323800556 -0.000211258285355063 -0.000271579222675903 0.000117717663929786 -0.00012612489257658 0.000288546707946822 -0.000469972856023243 -0.000809118875148565
"292" -0.00022817623286259 -0.000156138457703661 -0.000167238417616564 -0.000164090804226743 -0.000189608762588294 -0.000262836889704377 -7.82978156553467e-05 -7.15220082172952e-05 -0.0001466027103602 -0.000196620942508445 -0.00025555568327898 0.000105040808549821 -0.00012658357048475 0.000275360611318522 -0.000426928757637401 -0.000913248479452758
"293" -0.000209432187141212 -0.000147878288893867 -0.000155112939533721 -0.000153439603398176 -0.000176266220399517 -0.000248934400683713 -5.82474240551959e-05 -5.85291501183632e-05 -0.00012867904718891 -0.000181913069717428 -0.000239671664907378 9.09315796441828e-05 -0.000126502865416474 0.000258930332325001 -0.000383441492714483 -0.00100299941320355
"294" -0.000191267268912996 -0.000139488291115593 -0.000143172290970495 -0.000142863278553772 -0.000163009649824054 -0.000234965001661037 -3.86866142102879e-05 -4.57249261782256e-05 -0.000111135768418911 -0.000167355769289433 -0.000224135342965588 7.54278399978576e-05 -0.000125982952998193 0.000239224305319519 -0.000339721244502979 -0.00107807159370705
"295" -0.000173907521037146 -0.000131072534265995 -0.000131597946252574 -0.000132502018560799 -0.000150038368520237 -0.000221128755487666 -1.98136553034611e-05 -3.32699707261461e-05 -9.42243631452865e-05 -0.00015315444423061 -0.000209151873112299 5.85747926507481e-05 -0.000125122185984738 0.000216232962424735 -0.000295962909579039 -0.00113828650785159
"296" -0.00015757194343398 -0.0001227385550803 -0.000120558620804782 -0.000122491601073367 -0.000137548718785183 -0.000207616119563362 -1.81842807572e-06 -2.13240986028853e-05 -7.81977181810615e-05 -0.000139517187425498 -0.000194922981364519 4.0439945510202e-05 -0.000124020683297599 0.000189974113014735 -0.000252351743682587 -0.001183578040617
"297" -0.000142475605039255 -0.000114595817747964 -0.000110221795399822 -0.000112968569293346 -0.000125728513914822 -0.000194623170168923 1.51129671791244e-05 -1.00405470890676e-05 -6.3300009637346e-05 -0.000126648206894567 -0.000181637313236823 2.11034567060969e-05 -0.000122783373554182 0.000160501006596702 -0.000209048918928588 -0.00121399445313734
"298" -0.000128808323344813 -0.00010674346469863 -0.000100749798706462 -0.000104060066914306 -0.000114763025961163 -0.000182332660541051 3.08094203510993e-05 4.38315226136453e-07 -4.97599523031435e-05 -0.000114738624375557 -0.000169477746296509 6.55674269109146e-07 -0.000121504448846973 0.000127893585989423 -0.000166212012543979 -0.00122969056606316
"299" -0.000116748673829548 -9.92790313451568e-05 -9.22820593661155e-05 -9.58850070658643e-05 -0.000104811941508323 -0.000170917831617761 4.51157989068222e-05 9.97919569790475e-06 -3.7791070206063e-05 -0.000103972238310422 -0.000158609748985854 -2.07915483768696e-05 -0.000120280220650553 9.22700244817779e-05 -0.000123979747741087 -0.00123092464689704
"300" -0.000106451052494317 -9.22985957095569e-05 -8.49624110847444e-05 -8.85573714719373e-05 -9.60427299422431e-05 -0.000160543924263263 5.78873472648984e-05 1.84529639491655e-05 -2.75895049297176e-05 -9.45069376198061e-05 -0.000149184457734705 -4.31203187406004e-05 -0.000119200618990713 5.37713261919954e-05 -8.24851338939524e-05 -0.00121806513584821
"301" -9.80586016797369e-05 -8.58842147827939e-05 -7.89081690799023e-05 -8.21730433720834e-05 -8.85833598902081e-05 -0.000151359880896524 6.89993205275061e-05 2.5751586327425e-05 -1.93351711520975e-05 -8.64977910030549e-05 -0.000141337447999097 -6.61918175087451e-05 -0.000118349262016408 1.25830824745419e-05 -4.18454721354726e-05 -0.00119157035331219
"302" -9.16798762548289e-05 -8.01161480295709e-05 -7.42226483146134e-05 -7.68245422693335e-05 -8.25614562304954e-05 -0.000143502250548101 7.83503768111726e-05 3.17764392893259e-05 -1.31806150944168e-05 -8.00733275608552e-05 -0.00013518778761429 -8.98591034392711e-05 -0.000117803568374599 -3.10805354753333e-05 -2.1748669200932e-06 -0.00115198690216097
"303" -8.74035530705149e-05 -7.50614859795227e-05 -7.09904553162574e-05 -7.25845034920433e-05 -7.80807430907217e-05 -0.000137083528693615 8.58495955239242e-05 3.64481274058404e-05 -9.25553708346766e-06 -7.53467555022699e-05 -0.000130828297760086 -0.000113966249714173 -0.000117630527727521 -7.69675094339295e-05 3.64182430949277e-05 -0.00109995127346038
"304" -8.52968291747173e-05 -7.07823503687535e-05 -6.92891568028242e-05 -6.95157089877807e-05 -7.52231729173739e-05 -0.000132207217031026 9.14375620919529e-05 3.96981702531345e-05 -7.66284396285509e-06 -7.24049051599728e-05 -0.000128331299260267 -0.000138342260167451 -0.000117894936955594 -0.000124803504633152 7.38372269500438e-05 -0.00103618428353853
"305" -8.53944247503538e-05 -6.73263455497167e-05 -6.91601094928789e-05 -6.766236841563e-05 -7.4052602443988e-05 -0.000128949459817032 9.50698127572984e-05 4.1477879822336e-05 -8.47759425175676e-06 -7.13137995647093e-05 -0.000127751323822539 -0.000162813118181977 -0.000118644772666084 -0.000174275904376954 0.000109982218475534 -0.0009614746672519
"306" -8.77024298845984e-05 -6.47316717474892e-05 -7.06391171778079e-05 -6.70591190428148e-05 -7.46072897659072e-05 -0.000127368808775196 9.67302881322027e-05 4.17578287008783e-05 -1.17475321461481e-05 -7.21126382926018e-05 -0.000129114133763778 -0.000187194714963874 -0.000119920744349017 -0.000225046283583011 0.000144756216849456 -0.000876689481469466
"307" -9.22025032927695e-05 -6.30284836991453e-05 -7.37307025934051e-05 -6.77188152887192e-05 -7.69022732463655e-05 -0.000127499612069658 9.64223176040945e-05 4.05249188454769e-05 -1.7489056602257e-05 -7.48235350446042e-05 -0.000132420948491692 -0.000211299725977904 -0.000121750916451671 -0.000276749367028998 0.000178061119361751 -0.000782761185483875
"308" -9.88476364130002e-05 -6.22295429603437e-05 -7.84233603098245e-05 -6.96389028768366e-05 -8.09315468670988e-05 -0.000129356021732887 9.41720827162996e-05 3.77881931707921e-05 -2.56876939778684e-05 -7.9430519078796e-05 -0.000137656053054166 -0.000234936170615758 -0.000124158059218095 -0.000329005078511938 0.000209799722293818 -0.000680681889814877
"309" -0.0001075670981988 -6.2339776774364e-05 -8.46891635540963e-05 -7.28038536610507e-05 -8.66678915250573e-05 -0.000132930453985232 9.00297749041213e-05 3.35680821196819e-05 -3.63040716087309e-05 -8.59023438310548e-05 -0.000144767417953344 -0.000257909663511818 -0.000127144666254797 -0.000381415829717504 0.000239868050828651 -0.000571503327731653
"310" -0.000118259940440916 -6.3351892571188e-05 -9.24736647682111e-05 -7.71827245269391e-05 -9.40596571221549e-05 -0.000138191939203938 8.40666881056478e-05 2.79068168966602e-05 -4.92620846693714e-05 -9.41812286539965e-05 -0.000153695773448744 -0.000280028931608023 -0.000130715629760062 -0.000433562250459744 0.000268167712444199 -0.000456324216359919
"311" -0.000130795556852714 -6.52417411245043e-05 -0.000101701881033981 -8.27198622822911e-05 -0.000103026438104785 -0.000145084489653552 7.63794956753897e-05 2.08683651688491e-05 -6.44620248932138e-05 -0.000104181142740037 -0.00016434399052244 -0.000301104602711435 -0.000134847453325912 -0.000485025090891306 0.000294590238253641 -0.000336285207632067
"312" -0.000145033289995891 -6.79773041417217e-05 -0.000112283144578468 -8.9356482439321e-05 -0.000113479117965588 -0.000153535036563819 6.70790586372298e-05 1.25287650995432e-05 -8.17753782878309e-05 -0.000115790511332673 -0.00017659910849055 -0.000320953578038122 -0.000139517780075462 -0.000535386833297477 0.000319030493729929 -0.000212575353672293
"313" -0.000160795474120714 -7.15175519068738e-05 -0.000124111898566179 -9.7011077187615e-05 -0.000125297017558826 -0.000163449360053246 5.62989374443326e-05 2.98062372830079e-06 -0.000101048253458749 -0.000128884557459505 -0.000190330689502055 -0.00033939499454075 -0.000144693592763651 -0.000584221771722035 0.000341380648698335 -8.63973855237787e-05
"314" -0.000177895886454782 -7.58082985351957e-05 -0.000137055423786662 -0.000105591851541323 -0.000138347058027699 -0.000174711351887893 4.41890054257901e-05 -7.66787528286582e-06 -0.000122102147341169 -0.000143306849729666 -0.000205383684557623 -0.000356262002317368 -0.000150324269831918 -0.000631121134731152 0.000361535207286462 4.10072307789213e-05
"315" -0.000196122836686544 -8.07819748161694e-05 -0.000150981057122901 -0.000114995545308433 -0.000152475853906545 -0.000187191007184605 3.09156675698365e-05 -1.92943522727413e-05 -0.000144732901600113 -0.000158884467534051 -0.000221587747085894 -0.000371393585359509 -0.000156355377248687 -0.0006756833203351 0.000379389952943257 0.00016839341666396
"316" -0.000215258388157295 -8.63663178951888e-05 -0.00016573040798754 -0.000125106219030532 -0.000167519292781726 -0.000200738193427361 1.66574672748923e-05 -3.17641267300633e-05 -0.000168726606194434 -0.000175430490122821 -0.000238757656184786 -0.000384643433558248 -0.000162724357641162 -0.000717524079013873 0.000394851953849501 0.000294511070182031
"317" -0.000235058746109234 -9.24796113263622e-05 -0.000181135373256791 -0.000135797046810956 -0.000183293909610307 -0.000215191634868495 1.60373373193804e-06 -4.49381944272505e-05 -0.000193838041760511 -0.000192738798262953 -0.000256693498955093 -0.000395877261172216 -0.000169359817995714 -0.000756285309612634 0.000407826096018973 0.000418109031830928
"318" -0.000255283709850024 -9.9033652982841e-05 -0.000197024137856193 -0.000146938544882984 -0.000199611330618291 -0.000230376908288721 -1.40420269122538e-05 -5.86561278974237e-05 -0.000219817263281512 -0.000210587761853713 -0.000275189304135078 -0.000404979774004118 -0.000176183373627549 -0.000791625363614541 0.000418244227877661 0.000537961722958609
"319" -0.000275678153792847 -0.000105928546465561 -0.000213212691096589 -0.000158385351422537 -0.000216265279749125 -0.000246108135878585 -3.00768735823785e-05 -7.27612863279839e-05 -0.000246400667081643 -0.000228747075705668 -0.000294018373669522 -0.000411843056227747 -0.000183109749752216 -0.000823239821505277 0.000426036400601865 0.000652862555211433
"320" -0.000295983396693777 -0.000113061912509348 -0.000229510177533782 -0.000169996198585067 -0.00023305094859052 -0.000262192449584273 -4.62840536303018e-05 -8.7085554344872e-05 -0.000273315634520974 -0.000246979399484914 -0.000312962539783443 -0.000416388139835154 -0.000190051366383602 -0.00085085788616739 0.00043115617722651 0.000761646715298959
"321" -0.000315942064333324 -0.00012033157231739 -0.000245725613825396 -0.000181621136822003 -0.000249757101268662 -0.000278428280192697 -6.24498890603213e-05 -0.000101463135302776 -0.000300282337798717 -0.000265037537814282 -0.000331786470034439 -0.000418544110414652 -0.000196918956278774 -0.00087423685066717 0.000433576200715413 0.000863200621959301
"322" -0.000335290322427761 -0.00012762617365072 -0.000261667876949706 -0.000193108000447218 -0.000266169845661839 -0.000294612304993958 -7.83593548846799e-05 -0.000115720068808514 -0.000327015465057883 -0.000282671228272102 -0.000350260153940328 -0.000418268667635041 -0.000203612118872067 -0.000893180941870119 0.000433287467733776 0.000956470971505349
"323" -0.000353777484218166 -0.000134837791273287 -0.000277136559874203 -0.000204308464570102 -0.000282073687241399 -0.000310539731473802 -9.37983335120877e-05 -0.000129687199467161 -0.000353234434060316 -0.000299628284583671 -0.000368153463967395 -0.000415532375412272 -0.000210041083674863 -0.00090752929940202 0.000430304520104857 0.00104048102064893
"324" -0.000371150456807039 -0.000141851127376285 -0.000291946910939215 -0.000215072491326769 -0.000297256092457158 -0.000326004472552461 -0.000108559896473756 -0.000143196862791624 -0.00037865943589254 -0.000315660361420504 -0.000385235755809102 -0.000410329695548846 -0.000216110693465166 -0.000917163437604018 0.000424660563095823 0.00111433982136386
"325" -0.000387170237092013 -0.000148556588392043 -0.000305911033750733 -0.000225249882028128 -0.000311512339771652 -0.000340807167297691 -0.000122437757052689 -0.000156081510545471 -0.000403015689709845 -0.000330518343662365 -0.000401286118186256 -0.000402669041833149 -0.000221723229866039 -0.000922008456560168 0.000416420766201696 0.00117725972902532
"326" -0.000401608883648225 -0.000154848609612039 -0.000318850846144392 -0.000234705150765057 -0.000324642682224948 -0.000354747106155857 -0.000135240498661871 -0.000168184613910884 -0.000426039594904272 -0.000343969836748343 -0.000416092943931781 -0.000392582110954105 -0.000226787797594662 -0.000922024747524629 0.000405671306693869 0.00122856238905187
"327" -0.000414245599057229 -0.000160615895360456 -0.000330592768629027 -0.000243295174268544 -0.000336454104691083 -0.000367635162817158 -0.000146778881210677 -0.000179352636783865 -0.000447473085088877 -0.000355774389041311 -0.000429445301747392 -0.00038012391305341 -0.000231220918510197 -0.000917232324962085 0.000392516556005783 0.00126768472650619
"328" -0.000424884278213507 -0.000165762486139042 -0.000340976340516272 -0.000250895057065726 -0.000346767324092325 -0.000379289363919896 -0.000156888113532271 -0.000189443746037569 -0.000467076571555251 -0.000365720814461469 -0.00044115394161006 -0.000365362819160436 -0.000234941291453304 -0.000907678567127529 0.000377086981073596 0.00129419406298691
"329" -0.000433337019689328 -0.000170186560352779 -0.000349854259459004 -0.00025738039592088 -0.000355416325178631 -0.000389538355495013 -0.000165405800461039 -0.000198325247502487 -0.000484620651284339 -0.000373594376537932 -0.000451038668366709 -0.000348389671854694 -0.000237865034316057 -0.000893462365412919 0.000359536424054044 0.0013077998606429
"330" -0.000439437696885293 -0.000173800445183215 -0.000357088096200504 -0.000262642396450335 -0.000362247571329474 -0.000398220494606003 -0.000172187677753507 -0.000205874369471783 -0.000499901613689598 -0.000379211718302955 -0.000458936177652208 -0.000329308854368456 -0.000239928890364145 -0.000874716390092443 0.000340040874110075 0.00130835070240509
"331" -0.000443042417350023 -0.000176520405016034 -0.00036255291614948 -0.000266579236642228 -0.00036711978662916 -0.000405191491751765 -0.000177110880528269 -0.00021198143885189 -0.00051272736799699 -0.000382392473300562 -0.000464700342506645 -0.000308241930905827 -0.000241070038402541 -0.000851616458467432 0.000318801163283643 0.00129584275665207
"332" -0.000444024470962343 -0.000178271424986977 -0.00036614767197479 -0.000269101662207598 -0.000369920859887473 -0.000410319463014146 -0.000180066945413073 -0.000216555603988474 -0.000522932740177395 -0.000382986697547485 -0.000468201732626844 -0.000285329311435494 -0.000241230804522708 -0.000824379122068331 0.000296030492573558 0.00127042081618053
"333" -0.000442289564605116 -0.000178986979292486 -0.000367780087819033 -0.00027013548595369 -0.000370542020081388 -0.000413492355782848 -0.000180964755067998 -0.000219511998835184 -0.000530373475211943 -0.000380862679950479 -0.000469336174610333 -0.000260715774078377 -0.000240370988667226 -0.000793249865904256 0.000271972826472724 0.00123237573402412
"334" -0.000437753045013287 -0.00017860680257807 -0.000367377209165601 -0.000269610521081758 -0.000368904266001219 -0.000414608965761155 -0.000179737135432656 -0.000220785817213019 -0.000534929439381562 -0.000375904715852621 -0.000468011643021871 -0.000234574801840752 -0.000238457079919689 -0.000758510988277538 0.000246874420258924 0.00118215177436576
"335" -0.000430368793058201 -0.000177088761949165 -0.000364886330684828 -0.000267483333634877 -0.000364948651070022 -0.000413594175257283 -0.000176335423596064 -0.000220332682157481 -0.000536508210706552 -0.000368030428617929 -0.000464169620236253 -0.000207075257088236 -0.000235461188804939 -0.000720474567328568 0.000221010679655068 0.0011203244714477
"336" -0.000420102282157437 -0.000174391645341129 -0.00036026932459003 -0.000263714517618278 -0.000358627939918225 -0.000410383172648812 -0.000170732416823443 -0.000218116640580285 -0.000535039838019223 -0.000357173776962885 -0.000457763907829827 -0.000178407789703756 -0.000231373184949953 -0.000679486278850494 0.000194668307617268 0.00104762023559506
"337" -0.000406956165064586 -0.000170492464391016 -0.000353512996938319 -0.000258285161524695 -0.000349931605005632 -0.000404942869880742 -0.000162922904271178 -0.000214126033791148 -0.000530487078987974 -0.000343305059869906 -0.00044878055127796 -0.000148763965655178 -0.000226193080114551 -0.000635908715789624 0.000168146231394269 0.000964881364195899
"338" -0.000390953063900302 -0.000165374465811716 -0.000344617150779056 -0.000251186223100046 -0.000338856478742644 -0.000397248537381484 -0.000152921308394949 -0.000208360718258473 -0.000522837201242175 -0.000326411252850607 -0.000437223225959769 -0.000118342702773487 -0.000219924181268661 -0.000590134320354191 0.000141756918982455 0.000873077233358712
"339" -0.000372141543908752 -0.000159038084914163 -0.000333610279754782 -0.000242428348003815 -0.000325431802807298 -0.000387303335296956 -0.000140767640090212 -0.00020083837510188 -0.000512103154609406 -0.000306511751362446 -0.00042312280749209 -8.73576574006172e-05 -0.000212594754245953 -0.00054257093059584 0.000115825130226609 0.000773277112348862
"340" -0.000350601848553777 -0.000151492137427246 -0.000320535211624725 -0.000232036834516831 -0.000309705377998974 -0.000375128401471219 -0.000126519990917689 -0.000191600208662168 -0.000498334830490324 -0.000283657054109745 -0.000406534648244266 -5.60088112794535e-05 -0.000204233431719721 -0.000493640903578881 9.06858114028231e-05 0.000666652182999075
"341" -0.000326429432668883 -0.000142752535758813 -0.000305449479654832 -0.000220046681102555 -0.000291743668187364 -0.000360767410721237 -0.000110257935474319 -0.000180696172498587 -0.000481597691447915 -0.000257919287990526 -0.000387534992971892 -2.45136063410208e-05 -0.00019488719136987 -0.000443780228812449 6.66724442571269e-05 0.000554443009314526
"342" -0.000299752525908852 -0.000132854372052549 -0.000288436986722296 -0.000206514457195226 -0.000271643167177652 -0.000344282532135762 -9.20841842761731e-05 -0.000168199362696694 -0.000461996066843365 -0.000229401614647188 -0.000366225409165637 6.91549103336616e-06 -0.000184605801583778 -0.000393431716167648 4.41359619349633e-05 0.000437954970662011
"343" -0.000270717434412892 -0.000121843309999227 -0.000269595296419812 -0.000191508319354198 -0.000249514163820781 -0.000325757924818917 -7.2115253045243e-05 -0.00015419610323624 -0.000439654443898568 -0.000198237873148298 -0.000342728456175705 3.80684098264216e-05 -0.000173459375320398 -0.000343042741515042 2.3428988857779e-05 0.000318544269972976
"344" -0.000239502405327712 -0.000109771293446898 -0.000249047587741885 -0.000175108633182371 -0.000225490984826736 -0.000305296959929579 -5.04928854942129e-05 -0.000138783900514327 -0.0004147275629308 -0.000164583783498723 -0.000317194879410132 6.8737827848273e-05 -0.0001615207252051 -0.000293062205053924 4.90655425967824e-06 0.000197587182737034
"345" -0.000206296175393389 -9.67040392106612e-05 -0.000226923836807294 -0.000157412221926719 -0.000199724821619463 -0.000283022496668612 -2.73728128498231e-05 -0.000122083254216002 -0.000387388825892107 -0.000128622870385522 -0.00028978741464629 9.87174249063436e-05 -0.000148875905745104 -0.000243935308735164 -1.10739005270253e-05 7.64812337584941e-05
"346" -0.000171315001870415 -8.27193409135995e-05 -0.000203376248003721 -0.000138526429794927 -0.000172388879395873 -0.000259074509258652 -2.9267151905372e-06 -0.000104220300470104 -0.000357842696349468 -9.0564841933891e-05 -0.000260694470280459 0.000127810402951035 -0.000135620937039227 -0.000196093634578814 -2.41552945985218e-05 -4.33891094645978e-05
"347" -0.00013479206659443 -6.78994979211088e-05 -0.000178571152034991 -0.000118573198732898 -0.000143667970423033 -0.000233611435537536 2.26614927073102e-05 -8.534069547681e-05 -0.000326311895443104 -5.06435324484604e-05 -0.000230120163885803 0.000155825145243612 -0.00012184905791249 -0.000149957537648419 -3.39846521955934e-05 -0.000160656136487859
