"V1" "V2" "V4" "V5" "V7" "V8" "V10" "V11" "V13" "V14" "V15" "V17" "V18" "V20" "V21" "V23"
"1" -0.000609124958315952 -0.000386847764183063 -0.000191976806928455 -0.000281251134747093 0.000171469514669389 -0.000140166042959691 0.0001856570601037 -0.000299816139698075 -0.000138378743469959 -5.58684937330377e-06 -0.000126827302828797 -0.000350499446252037 8.48894237280407e-05 -0.000168282463787306 -0.000523707883306121 -0.000287379167592264
"2" -0.000599555714212994 -0.000378156369387453 -0.000183006842617071 -0.000277773430764989 0.000176430013373689 -0.000149531329680572 0.000185960966767637 -0.000300821881303183 -0.000139023532428211 -7.26537366821861e-06 -0.000129330259656061 -0.000354645970468124 7.99824682718202e-05 -0.000171533670088358 -0.000528859472604 -0.000291976825758504
"3" -0.000588581050442769 -0.000368602680274723 -0.000173455117986601 -0.000273683380772211 0.000181434783456132 -0.000159548739214169 0.000185519877369161 -0.000301251767939898 -0.00013957309662388 -9.0956158841107e-06 -0.0001322049750098 -0.000358633074354265 7.46044159290312e-05 -0.0001739148989348 -0.000533907916229644 -0.000297286569609506
"4" -0.000576377938425607 -0.000358393335900669 -0.000163496712438386 -0.00026908482938271 0.000186412542921505 -0.000170204840324866 0.000184280969833482 -0.000301125157993018 -0.000140016738833458 -1.11043975991798e-05 -0.000135439085044478 -0.000362440796713647 6.88051776853684e-05 -0.000175336985779766 -0.000538792846339925 -0.000303227888334204
"5" -0.000563143827243826 -0.000347745235789366 -0.000153305232808588 -0.00026408480208369 0.000191296845360996 -0.000181480660398144 0.000182207525372306 -0.000300469223918773 -0.000140334576946889 -1.33099815947344e-05 -0.000139015483565506 -0.000366053171963946 6.26376218237497e-05 -0.0001757179254578 -0.00054345718289346 -0.000309715261131403
"6" -0.000549077404681793 -0.000336878643287933 -0.000143062266117039 -0.000258791815784665 0.000196015261624724 -0.00019334536539395 0.000179271999801991 -0.000299316468740749 -0.000140515385506473 -1.57289495200367e-05 -0.000142911492377611 -0.000369446365183803 5.6170406328198e-05 -0.000174978954772801 -0.00054783884672798 -0.000316650721258561
"7" -0.000534396446040431 -0.000326022931782453 -0.00013294480990631 -0.000253326594990985 0.000200511453605242 -0.000205759196426273 0.000175464041118802 -0.000297700745986127 -0.000140540356112932 -1.83733337663608e-05 -0.000147097800993831 -0.000372604628328965 4.94648972545486e-05 -0.000173062117989195 -0.000551884070582872 -0.000323934011124947
"8" -0.000519310548706727 -0.000315403298349133 -0.000123135498304623 -0.000247806071690397 0.000204730697518762 -0.000218673070100121 0.000170784999795098 -0.000295663012017161 -0.000140393956777011 -2.12507876723778e-05 -0.000151539471140361 -0.000375501932228164 4.26052468389802e-05 -0.00016990230598363 -0.000555528438661997 -0.000331454519794213
"9" -0.000504044377404001 -0.000305244767969543 -0.000113804800311572 -0.000242353365428949 0.000208623332548504 -0.000232027944821031 0.000165248409573684 -0.000293244944695475 -0.000140061289817549 -2.4357311387867e-05 -0.000156196873041732 -0.000378119595329821 3.56727840246078e-05 -0.000165454242774291 -0.000558722009284306 -0.00033909903422967
"10" -0.000488813467687644 -0.000295772793589735 -0.00010512612225598 -0.000237089463277414 0.000212145727691052 -0.000245757466187578 0.000158884165918834 -0.000290489021353959 -0.00013952746256209 -2.76895219040295e-05 -0.000161026477506034 -0.00038043012388262 2.87548989500861e-05 -0.000159678170557826 -0.000561405360649802 -0.000346746268031911
"11" -0.000473840304436727 -0.000287197589168917 -9.72567426403603e-05 -0.000232136761944423 0.00021526691036451 -0.00025978218938881 0.000151731326103025 -0.00028744458051878 -0.000138772117488637 -3.12410525173587e-05 -0.000165977724299242 -0.00038241225679175 2.19419128390457e-05 -0.000152547670071324 -0.000563527506176044 -0.000354276522971038
"12" -0.000459335913651389 -0.000279723887149557 -9.03530282599379e-05 -0.000227610041680963 0.000217956040793164 -0.000274021215868053 0.000143843758177775 -0.000284156514102899 -0.000137780473210951 -3.49951282643898e-05 -0.000170996450996448 -0.000384045688069028 1.53292204796676e-05 -0.000144040650289898 -0.000565034331646831 -0.000361567348149405
"13" -0.000445507691293668 -0.000273542559999356 -8.45527530743459e-05 -0.000223623641824519 0.0002201944384349 -0.000288378840240872 0.000135287677302887 -0.000280673967054635 -0.000136537474989523 -3.89316537443299e-05 -0.000176029447666939 -0.000385309249814793 9.00767817004912e-06 -0.000134156645633438 -0.00056588044717454 -0.000368492868329644
"14" -0.000432551397578304 -0.000268829214525556 -7.99865860073914e-05 -0.000220285223488955 0.000221971956339677 -0.000302756062058262 0.000126142047249065 -0.00027704668151187 -0.000135024173288105 -4.30299230369004e-05 -0.000181013283176575 -0.000386178979541457 3.07480632600323e-06 -0.000122896450344532 -0.000566012742489122 -0.000374928629272981
"15" -0.000420655615866105 -0.000265741773981583 -7.67652636668084e-05 -0.000217695877463619 0.000223281792324796 -0.000317047610598532 0.000116492339434043 -0.000273321273215547 -0.000133227523458558 -4.72562064864886e-05 -0.000185889344987138 -0.000386636909467848 -2.37256149795253e-06 -0.000110274821526612 -0.000565390895628897 -0.000380751444243588
"16" -0.000409989693968994 -0.000264412563224258 -7.49876590909093e-05 -0.000215947873024406 0.000224132768215372 -0.000331140707182314 0.000106432259238651 -0.000269544054494795 -0.000131129019468559 -5.15850248203189e-05 -0.000190591999479225 -0.000386667996105331 -7.25170824616047e-06 -9.63267877953606e-05 -0.0005639734634103 -0.000385844562458346
"17" -0.000400703985306727 -0.000264959287225254 -7.47301240370358e-05 -0.000215124646652721 0.00022453468665606 -0.00034492093685213 9.60687332840233e-05 -0.000265761566249347 -0.000128714443574907 -5.59783547458072e-05 -0.00019506012960449 -0.000386254704171482 -1.14681098740117e-05 -8.10862649468591e-05 -0.000561721605542302 -0.000390090570302253
"18" -0.000392937394351861 -0.000267466706677062 -7.60553276311824e-05 -0.000215294168852746 0.000224510216314175 -0.000358269726591209 8.55137184966413e-05 -0.000262015438824895 -0.000125970612264785 -6.03962214318261e-05 -0.000199225782140742 -0.000385388234153243 -1.49432120714703e-05 -6.46099961708072e-05 -0.000558601585255653 -0.000393378152198249
"19" -0.000386803760447578 -0.000272003012138889 -7.90020862497131e-05 -0.000216521170107735 0.000224080895784568 -0.000371064482311664 7.48770580449786e-05 -0.000258348716763533 -0.000122882219058019 -6.47992500300284e-05 -0.000203027605940631 -0.000384057027798079 -1.7598914717791e-05 -4.69594073997056e-05 -0.000554585643856178 -0.000395604556336725
"20" -0.000382393249830532 -0.000278598872498344 -8.35911979053163e-05 -0.000218848683937567 0.000223284167292406 -0.00038318527543983 6.42833818161505e-05 -0.000254793133358278 -0.000119438156593189 -6.91489660081511e-05 -0.000206402696970568 -0.000382255370333211 -1.93707692095488e-05 -2.8211239775313e-05 -0.000549646333644468 -0.000396674762844616
"21" -0.000379778942180729 -0.000287266406871149 -8.98234653912386e-05 -0.000222313025198404 0.000222160049920733 -0.000394508891859031 5.38526176488438e-05 -0.000251389614588014 -0.000115630324860157 -7.34003192022422e-05 -0.000209289477866708 -0.000379982404938096 -2.01968053387922e-05 -8.45363026291695e-06 -0.000543762158334021 -0.000396498373961925
"22" -0.000379001701121826 -0.000297984001538755 -9.76730492411267e-05 -0.000226932718969721 0.000220750659211918 -0.000404916758002062 4.37076014760765e-05 -0.000248164708423969 -0.000111448263121558 -7.75045542871774e-05 -0.000211632028400621 -0.000377241952255529 -2.00282414119228e-05 1.22164718679041e-05 -0.000536921311956193 -0.000394999542045993
"23" -0.000380079994739277 -0.000310703301958757 -0.000107102219179648 -0.000232712645218283 0.00021910622123754 -0.000414290954530911 3.39688175625976e-05 -0.000245141624981441 -0.00010688549240272 -8.14252990389099e-05 -0.000213373141017508 -0.000374038835932393 -1.8825032385007e-05 3.36930758344345e-05 -0.000529114093455759 -0.000392109866303924
"24" -0.000383014447985642 -0.000325352263197739 -0.000118045159333675 -0.000239644858306272 0.000217282377566077 -0.000422518824127544 2.47565686035191e-05 -0.000242345506717964 -0.000101935795089722 -8.51152195672441e-05 -0.000214466299656086 -0.000370385929098811 -1.65606772908963e-05 5.58539944912827e-05 -0.000520333199684967 -0.000387771811398808
"25" -0.000387767369441517 -0.00034182774205894 -0.000130418068563974 -0.000247703573667533 0.000215338115621349 -0.00042949190689384 1.61865705424579e-05 -0.000239792468672199 -9.65986932461935e-05 -8.85330658660529e-05 -0.000214862478601602 -0.000366299610297813 -1.32179036431164e-05 7.85767336326251e-05 -0.000510580318542967 -0.000381940448952939
"26" -0.00039428774844371 -0.000359999034678164 -0.000144119930367765 -0.000256850091981809 0.00021332344353575 -0.000435108530871984 8.37241961916906e-06 -0.000237491912904662 -9.08723402200673e-05 -9.16406821513986e-05 -0.000214523188995753 -0.000361799628216007 -8.78982520988751e-06 0.000101723681831843 -0.000499863456892685 -0.000374583315153829
"27" -0.000402490063783327 -0.000379716734841504 -0.000159029652121672 -0.000267033789607687 0.000211307908584935 -0.000439270862235682 1.41405990958801e-06 -0.000235450491628753 -8.47602721620666e-05 -9.43987544314576e-05 -0.000213409831559352 -0.000356911248901806 -3.28796047773878e-06 0.000125149603398604 -0.000488196434018004 -0.000365679192156014
"28" -0.000412273079872339 -0.000400804676594695 -0.000175008829241932 -0.00027818497806493 0.000209352442815232 -0.000441893786698794 -4.59167610067893e-06 -0.00023367299685558 -7.82679745922626e-05 -9.67740828725307e-05 -0.000211495937286765 -0.000351665546924388 3.26732135710462e-06 0.000148711582423122 -0.000475600208097884 -0.00035522437139288
"29" -0.000423506822220034 -0.000423069401141712 -0.000191908016409784 -0.000290228273890188 0.000207515031520565 -0.000442898947156327 -9.55077427454878e-06 -0.000232154882234754 -7.14032680021573e-05 -9.87347865241631e-05 -0.000208758325039413 -0.000346094070401942 1.08460396144658e-05 0.000172249846288974 -0.000462095332325504 -0.000343219451240531
"30" -0.00043604541330973 -0.000446300416322186 -0.000209557101958003 -0.000303069609998613 0.000205857891212003 -0.00044221867317228 -1.33888652647615e-05 -0.000230886513060022 -6.41772883717086e-05 -0.00010025610676187 -0.000205177875225135 -0.000340238689151577 1.93935030508235e-05 0.000195607322301419 -0.00044772109139599 -0.000329687958347127
"31" -0.000449722752887594 -0.000470267390274758 -0.000227778648761874 -0.00031660805953085 0.00020444170352988 -0.000439792172996249 -1.60328742661607e-05 -0.000229854350546453 -5.66065631759927e-05 -0.000101310220396366 -0.000200747153834398 -0.000334140753003319 2.88599803571005e-05 0.000218624418759276 -0.000432509996014149 -0.000314660722362719
"32" -0.000464354277174386 -0.000494734136403797 -0.000246388194104639 -0.000330729737147503 0.000203316223169741 -0.000435574897149151 -1.74273176839942e-05 -0.000229042443575809 -4.87046156155985e-05 -0.000101882338940397 -0.000195463008045427 -0.000327847064985957 3.91684180977578e-05 0.00024113682754953 -0.000416504594725112 -0.000298184074580991
"33" -0.000479743722313267 -0.000519447766416748 -0.000265184462656716 -0.000345317758794767 0.000202539913747484 -0.000429529928790762 -1.75255998321355e-05 -0.000228429647757149 -4.04937980094956e-05 -0.000101960617050259 -0.000189330405510933 -0.000321407978945638 5.02404019343091e-05 0.000262981467618408 -0.000399760845250014 -0.000280315080184043
"34" -0.000495674784343948 -0.000544153956475702 -0.000283970613767651 -0.000360238638513806 0.000202160695287632 -0.000421634561922488 -1.62964859797212e-05 -0.000227987639576386 -3.19959878820936e-05 -0.000101532470518767 -0.000182359296165032 -0.000314873964386566 6.19826169594152e-05 0.000283999080846083 -0.000382326867492965 -0.000261124890936558
"35" -0.000511925111567127 -0.000568594020164374 -0.00030253894228278 -0.000375361057183895 0.000202217852102232 -0.000411878275010731 -1.37105230998454e-05 -0.000227690267531961 -2.32386859142954e-05 -0.000100599870535459 -0.000174568740140176 -0.000308301754072003 7.42936989745107e-05 0.000304024556517478 -0.000364265358775834 -0.000240695893575373
"36" -0.000528270790004547 -0.000592504596016099 -0.000320682683214722 -0.000390543578364578 0.000202753842304283 -0.0004002630079341 -9.76681430016713e-06 -0.000227503966427743 -1.42527797062878e-05 -9.91615972670419e-05 -0.000165983240593118 -0.000301744205124609 8.70604759172176e-05 0.00032290604800776 -0.000345641960969329 -0.000219119077216285
"37" -0.000544473489606571 -0.000615626358624792 -0.000338197467858552 -0.000405647024859746 0.000203802119994499 -0.000386803095104564 -4.46588315237242e-06 -0.000227389324216038 -5.06626940893269e-06 -9.72285615428787e-05 -0.000156634544039817 -0.000295266744968237 0.000100161676882172 0.000340491969078159 -0.00032652476243528 -0.00019650273218171
"38" -0.000560296472673301 -0.000637709018218333 -0.000354882002114115 -0.000420526799631655 0.00020538484583683 -0.000371524411911113 2.17957384979645e-06 -0.000227312839365989 4.28225104145442e-06 -9.48138505185837e-05 -0.000146562489960639 -0.000288920114788778 0.000113476735867683 0.000356639586354547 -0.000306987110282873 -0.00017295884886855
"39" -0.000575498733301226 -0.000658501348044373 -0.000370535583369309 -0.000435040212321889 0.000207528502819047 -0.000354468442875134 1.01352484502117e-05 -0.00022723105715214 1.37580550844862e-05 -9.1932047720495e-05 -0.000135811451023146 -0.000282772243722027 0.000126869306828975 0.000371209982535489 -0.000287107020644505 -0.000148612058135217
"40" -0.00058984455685405 -0.000677767433146802 -0.000384970135371529 -0.000449041402811757 0.000210243196576794 -0.000335687961419325 1.93603960199582e-05 -0.000227104089922957 2.33219349851609e-05 -8.86123038749675e-05 -0.00012442920416068 -0.000276873322137124 0.000140203889451414 0.000384078482540035 -0.000266967530798953 -0.000123591501636837
"41" -0.000603102922047405 -0.000695282123603706 -0.000398002203371166 -0.000462394340343216 0.000213534096728255 -0.000315249356225169 2.98037577756393e-05 -0.000226889299859924 3.29340479787269e-05 -8.48819559011742e-05 -0.000112471993527522 -0.000271290109449952 0.000153342251906085 0.000395128699330151 -0.00024664852691348 -9.80383526995832e-05
"42" -0.000615049897104264 -0.000710835667323084 -0.000409461423528407 -0.000474961625273381 0.000217405991373891 -0.000293227927042739 4.13979917983021e-05 -0.000226542316191019 4.25511792068236e-05 -8.07718151024274e-05 -0.000100001357613584 -0.000266075187543306 0.000166138750206846 0.000404254089384953 -0.000226236567462578 -7.20963060997444e-05
"43" -0.000625466497613151 -0.000724231418872736 -0.000419189514005928 -0.000486613604417007 0.000221849986737496 -0.000269714547878207 5.40750474699974e-05 -0.000226023156850388 5.21275136221302e-05 -7.63246824798893e-05 -8.70822853328051e-05 -0.000261282697751662 0.000178456615472255 0.000411361957859785 -0.000205820347216711 -4.59166026603845e-05
"44" -0.0006341505316439 -0.00073529424370375 -0.000427040076993219 -0.000497226079303603 0.000226857663456858 -0.000244808562184907 6.7740726302283e-05 -0.000225286223354045 6.16224101586272e-05 -7.15777322039362e-05 -7.37817320683496e-05 -0.000256970637605908 0.000190147334442118 0.00041637297664344 -0.000185485276811599 -1.96536533930511e-05
"45" -0.000640905580312537 -0.000743866268898873 -0.000432882536416485 -0.000506685863195416 0.000232405134115657 -0.000218623041930754 8.23051337122662e-05 -0.000224291081313904 7.09892626470112e-05 -6.6576498635047e-05 -6.01711293964606e-05 -0.000253185288125482 0.000201075644782631 0.000419222498860061 -0.000165321921179686 6.53733096868688e-06
"46" -0.000645549758592053 -0.000749808593384505 -0.000436604438855116 -0.000514881501019304 0.000238466916920393 -0.000191277451238328 9.76651894206483e-05 -0.000222998469881463 8.01803540681341e-05 -6.13684993190463e-05 -4.63284052913094e-05 -0.000249975424006212 0.000211104014591359 0.000419861468356791 -0.000145418281068045 3.24946465392969e-05
"47" -0.000647923800002939 -0.000753008835825724 -0.000438107604860622 -0.0005217216536323 0.00024501584381868 -0.000162901958542279 0.000113708904050752 -0.000221370190856488 8.91540609539231e-05 -5.6009744469974e-05 -3.23269873515315e-05 -0.000247387042328234 0.000220097817035884 0.000418251420051671 -0.000125865647435049 5.80591091913815e-05
"48" -0.000647875972591705 -0.000753369602791523 -0.000437317240734958 -0.000527117796808842 0.000252014773560808 -0.000133638399505813 0.000130320742977369 -0.000219371735176469 9.78618061071545e-05 -5.05469253053028e-05 -1.82453264921433e-05 -0.000245455143361818 0.000227934534296975 0.000414376774909209 -0.000106746682664595 8.30704159292216e-05
"49" -0.000645281203596726 -0.000750825530551592 -0.000434168959331614 -0.000530992589639162 0.000259426608747625 -0.000103628517553724 0.000147377797507588 -0.000216969553133032 0.00010626581422123 -4.50373299507061e-05 -4.16350948044908e-06 -0.00024421940373256 0.000234493301612198 0.00040823675486342 -8.81486190608022e-05 0.000107373597621163
"50" -0.000640029484795312 -0.000745327712995289 -0.000428621371431189 -0.000533284237224671 0.000267203267146123 -7.30293515256958e-05 0.000164753562770713 -0.000214136588062379 0.000114318576322754 -3.95358724927602e-05 9.84330666099137e-06 -0.000243709389629896 0.000239660737329988 0.00039983669624261 -7.01543497603716e-05 0.000130812060371256
"51" -0.000632023242918996 -0.000736855700726927 -0.000420655139921425 -0.000533941718097013 0.000275301350949984 -4.19971461971024e-05 0.000182320095882287 -0.000210845075273536 0.000121981395998764 -3.40969191878232e-05 2.36944745399347e-05 -0.000243950981550612 0.000243341930895942 0.000389212643320361 -5.28424241904827e-05 0.000153238131469192
"52" -0.000621201063204415 -0.000725409263564941 -0.000410265291563933 -0.000532929760424825 0.000283666830024549 -1.06968689030663e-05 0.000199946133012909 -0.00020707637634568 0.000129219311216702 -2.87739906529008e-05 3.73132784096933e-05 -0.000244964190951555 0.000245439363273698 0.000376409600496148 -3.62914823766595e-05 0.000174505036942768
"53" -0.000607506775282031 -0.000711014641346317 -0.000397471792347732 -0.000530221434973082 0.000292250532248963 2.07050780823629e-05 0.000217494564031927 -0.000202813152291599 0.000135992250053266 -2.36233138580847e-05 5.062565358088e-05 -0.000246766955036161 0.000245877814850119 0.000361490203828611 -2.05708628589905e-05 0.000194477269572771
"54" -0.000590917527572002 -0.000693718933781805 -0.000382306766240701 -0.000525805716022271 0.000300996200523088 5.20423712125169e-05 0.000234840616529248 -0.000198043242163513 0.000142271661914619 -1.86975817437181e-05 6.3560288974254e-05 -0.000249369065563121 0.000244587612219249 0.000344531124311472 -5.74950746909726e-06 0.000213026008361244
"55" -0.000571418375330671 -0.000673597813542696 -0.000364827719044943 -0.000519686042955839 0.000309851272623472 8.3142615240335e-05 0.00025185155682266 -0.000192757441252052 0.000148026924633812 -1.40441490580668e-05 7.60507047381298e-05 -0.000252771408385581 0.000241517892721973 0.000325622740915349 8.11455482973295e-06 0.000230030080367645
"56" -0.000549030516990467 -0.000650739776875581 -0.00034510850893526 -0.000511877689221031 0.000318760858601673 0.000113839571538283 0.000268401236769288 -0.000186956952585816 0.000153232831205619 -9.71210949189099e-06 8.80299616873561e-05 -0.000256978626189846 0.000236626874406197 0.000304877073657093 2.09620602904229e-05 0.000245380947195355
"57" -0.000523784022509758 -0.000625265141508197 -0.000323234940381039 -0.000502409658480698 0.000327671521062962 0.000143964702068094 0.000284366752494757 -0.000180641420294505 0.000157865473155326 -5.74844284648227e-06 9.94378379790325e-05 -0.000261980915211031 0.0002298888657259 0.000282407438610811 3.27473910991927e-05 0.000258982285747668
"58" -0.000495736053745225 -0.000597306814816198 -0.000299320009844864 -0.000491325577770355 0.00033652312585183 0.000173353161946518 0.000299633474353806 -0.000173821254994243 0.000161911713427439 -2.19310082694952e-06 0.000110220933543271 -0.00026776658731293 0.00022129443806195 0.000258355319466961 4.34260510419659e-05 0.000270746124322554
"59" -0.000464963952210361 -0.000567023948448986 -0.000273484515000347 -0.000478678434687416 0.000345268552200134 0.000201845804396614 0.000314086571785748 -0.000166511995103227 0.000165356028027029 9.18585217646475e-07 0.000120330841995063 -0.000274316679862667 0.000210850247118401 0.000232857978333546 5.29619882010022e-05 0.000280601373867426
"60" -0.000431566954264314 -0.000534586732233182 -0.000245869625058572 -0.000464537078792852 0.000353857082825518 0.000229285356722844 0.000327626611058194 -0.000158727589559442 0.000168192997715623 3.54900690022322e-06 0.000129720551118261 -0.000281607477930271 0.000198577200731421 0.000206076944484597 6.13330917558247e-05 0.000288492089403197
"61" -0.000395654251684353 -0.000500188997225139 -0.000216625699615346 -0.000448978416857665 0.000362236019386591 0.000255527272570222 0.000340158180405799 -0.000150497326702697 0.00017041657434822 5.67501093321269e-06 0.000138355587254999 -0.000289610466773491 0.000184507388665012 0.000178175926798348 6.851551779912e-05 0.000294373835603884
"62" -0.000357365679040869 -0.000464033645400098 -0.00018591803916504 -0.000432094921845326 0.000370363497969478 0.000280430199966751 0.000351593684545038 -0.000141849569630102 0.000172029066982991 7.27278784822131e-06 0.000146205526655319 -0.000298288449734804 0.000168695184397496 0.00014932724392476 7.44982785048343e-05 0.000298220460278485
"63" -0.000316850313954366 -0.000426344182541872 -0.000153927911747941 -0.000413985425026486 0.000378186121227336 0.000303862860639613 0.000361859067874611 -0.000132817705860044 0.000173039305841507 8.32221033851242e-06 0.000153244791636212 -0.00030760594033831 0.00015120816380001 0.00011970988928959 7.92832969905152e-05 0.000300017970462347
"64" -0.000274278974576044 -0.000387349118617367 -0.000120836939448557 -0.000394761654431948 0.000385674520369512 0.000325704143309868 0.000370885094244401 -0.000123442471244404 0.000173456580918073 8.81031341835136e-06 0.000159458466414467 -0.0003175115753685 0.0001321246506692 8.95139055840831e-05 8.28756871809424e-05 0.000299772897914554
"65" -0.000229832254248766 -0.00034728936538663 -8.68438789735015e-05 -0.00037453901629541 0.000392778298731928 0.000345845875923019 0.000378620120459609 -0.000113765922995628 0.000173298358238959 8.7294256435581e-06 0.000164835442869295 -0.000327958670966292 0.000111542434702983 5.8929893806493e-05 8.5292427129948e-05 0.000297507175212439
"66" -0.000183711418702161 -0.000306417610828647 -5.21514551938427e-05 -0.000353443271532746 0.000399471293451128 0.000364190689307761 0.000385017230753868 -0.000103839165826159 0.000172585822166124 8.0809526487086e-06 0.000169371605250569 -0.000338891198095288 8.9568398116835e-05 2.81480289033658e-05 8.65556345022127e-05 0.000293253296196842
"67" -0.000136124811944524 -0.000264985577809234 -1.69698112515836e-05 -0.000331608997181592 0.000405716300342352 0.000380651183677807 0.000390049379316518 -9.37114232313161e-05 0.000171344012614118 6.86380423303818e-06 0.000173072385333417 -0.000350250575645649 6.63250636169641e-05 -2.63202708959415e-06 8.67011301434005e-05 0.000287065187607485
"68" -8.72980312560282e-05 -0.000223250749174204 1.8492014887122e-05 -0.000309171137476616 0.000411481968429946 0.000395158157578632 0.000393691001604831 -8.34392152180496e-05 0.000169604539278041 5.08801263412407e-06 0.000175949465948796 -0.000361975235314907 4.194312572814e-05 -3.32217461165665e-05 8.57696565387899e-05 0.000279008308876302
"69" -3.7458423700494e-05 -0.000181476875746311 5.40199456493582e-05 -0.000286272389559902 0.000416743643056709 0.000407649483957526 0.00039593181281056 -7.30820723097606e-05 0.000167401549513885 2.76820358808454e-06 0.000178017877266359 -0.000373999378847065 1.65630694901233e-05 -6.34222244542704e-05 8.38108957765029e-05 0.000269165568367062
"70" 1.31495505699624e-05 -0.000139919591133349 8.93959794836986e-05 -0.00026305685253214 0.00042148035261183 0.000418086091872318 0.000396776650330171 -6.27006374758391e-05 0.000164776053778988 -7.88344086749942e-08 0.000179302058539026 -0.000386252668041032 -9.66163248153295e-06 -9.30426815260839e-05 8.08837389520366e-05 0.000257631476375955
"71" 6.42848991338092e-05 -9.88357934496061e-05 0.000124412140391079 -0.000239671123286941 0.000425664524316021 0.000426433253938201 0.000396234879188577 -5.23581191114068e-05 0.000161766299026944 -3.43010718709891e-06 0.000179828453550022 -0.000398665309937921 -3.65764109946398e-05 -0.00012190187215204 7.70497116208494e-05 0.000244511254620628
"72" 0.000115692684806749 -5.84763990124575e-05 0.00015885340084509 -0.00021625988529115 0.000429284222583873 0.00043267800256978 0.000394334895381218 -4.2119002105281e-05 0.000158419136327947 -7.2608481721598e-06 0.000179635955775797 -0.000411166003923894 -6.40125376906839e-05 -0.000149817626859761 7.23859715930945e-05 0.00022992647982405
"73" 0.000167125232320884 -1.90837013248314e-05 0.00019251801365908 -0.000192967836868602 0.000432315160534875 0.000436816025071002 0.000391104130411147 -3.20509981869235e-05 0.00015478407943949 -1.15380656495392e-05 0.000178757806906074 -0.000423677595578191 -9.18067354082082e-05 -0.000176613850010911 6.6966125182991e-05 0.000214005983998824
"74" 0.000218329351705373 1.91110461387872e-05 0.000225206243295686 -0.000169937614670403 0.000434752410530235 0.000438861772841533 0.000386584592101208 -2.22188121524505e-05 0.000150907897076864 -1.62274500988833e-05 0.000177241701304506 -0.000436132614939502 -0.000119786465803669 -0.000202125729568637 6.08768536287113e-05 0.0001968846044722
"75" 0.000269050673084535 5.5886925635858e-05 0.000256727670162078 -0.000147310339117083 0.000436576341805618 0.000438838514351865 0.000380826763944689 -1.26901997421951e-05 0.000146843073510938 -2.12948609794033e-05 0.000175134678729077 -0.000448451319303389 -0.000147778656910775 -0.000226202653863305 5.42050810463307e-05 0.00017871062004461
"76" 0.000319045367356746 9.10369957343664e-05 0.000286900943368886 -0.000125216818184437 0.000437781002541301 0.000436787815231931 0.000373894067357639 -3.52752236157947e-06 0.00014264285302855 -2.67000429455964e-05 0.000172482982168706 -0.000460566118545562 -0.000175615344640971 -0.000248698829313874 4.7040384385985e-05 0.000159634683810317
"77" 0.00036807517645249 0.000124371517279406 0.000315555939652546 -0.000103787763071277 0.000438357758285473 0.00043275867505688 0.000365847898326294 5.2018744208215e-06 0.000138360962746968 -3.24010544770064e-05 0.000169341803012429 -0.000472400258112534 -0.000203126533436698 -0.000269480832505726 3.94799018692161e-05 0.000139810101587848
"78" 0.000415903752640281 0.000155719168405552 0.000342539675642675 -8.31395528537622e-05 0.000438299405733116 0.000426812251498437 0.000356758035871557 1.34370053620457e-05 0.000134052738966438 -3.8358135690623e-05 0.00016576352197614 -0.000483889805542559 -0.000230150467609329 -0.000288427370124356 3.16170861851118e-05 0.000119395824635945
"79" 0.000462306998047023 0.000184926736737469 0.00036770829360375 -6.33886153517847e-05 0.000437600305218561 0.00041902384509697 0.000346699665672594 2.11201693707167e-05 0.000129765703321363 -4.45271551759911e-05 0.000161803368722918 -0.00049496852276508 -0.000256524282409951 -0.000305439082213162 2.35490442966821e-05 9.85522759472651e-05
"80" 0.00050707753044091 0.000211861725010398 0.000390934877855214 -4.46328923103957e-05 0.000436252094351527 0.000409476246960069 0.000335758394381782 2.81934813359284e-05 0.000125555148879171 -5.08639286293549e-05 0.000157517592796773 -0.000505570784395126 -0.000282098646035148 -0.000320423270731567 1.53774333547321e-05 7.74342862171014e-05
"81" 0.000550020804074365 0.000236414477277696 0.000412107229460198 -2.69657833341083e-05 0.000434256994691038 0.00039826146398179 0.00032400978906711 3.46048910344145e-05 0.000121471727828845 -5.73267303917342e-05 0.000152960948367515 -0.00051563986376829 -0.000306730923911568 -0.00033330200930979 7.19456616683356e-06 5.61991204178546e-05
"82" 0.000590946382312861 0.000258495541421111 0.000431132951123616 -1.04689528103823e-05 0.000431609421939336 0.000385476865244441 0.000311543426446729 4.03056439361937e-05 0.000117561535409093 -6.38735918955749e-05 0.000148187748356017 -0.000525123574282919 -0.00033028664965382 -0.000344020969869145 -9.06820405560301e-07 3.49991958825636e-05
"83" 0.000629701617550737 0.000278043905966495 0.000447936348036812 4.79079727012677e-06 0.000428311953529586 0.000371231068590587 0.000298439321301962 4.52559891931837e-05 0.000113869725853861 -7.04623381291468e-05 0.00014325038029646 -0.000533973513097724 -0.000352644766133082 -0.00035253685094879 -8.83343388572542e-06 1.39828942263348e-05
"84" 0.00066613358428622 0.000295017615336686 0.000462459465410576 1.87542012040578e-05 0.000424359012232557 0.000355635353503658 0.000284790499042022 4.94161694925045e-05 0.000110438066386658 -7.70533636612033e-05 0.000138201721988769 -0.000542146695789365 -0.000373692354628926 -0.000358822439062465 -1.65010050241276e-05 -6.71242903403584e-06
"85" 0.000700118142714769 0.0003094020678457 0.000474663962718934 3.13839800676798e-05 0.000419754866923744 0.00033880778758097 0.000270677728277759 5.27535716021524e-05 0.00010730422636703 -8.36132134614181e-05 0.000133086939665865 -0.0005496071600433 -0.000393336147742602 -0.000362873118699765 -2.38244651698064e-05 -2.69499579116762e-05
"86" 0.000731553076406918 0.000321204993218833 0.000484529548800542 4.26449508225258e-05 0.000414499395018738 0.000320868399231171 0.000256185396647714 5.52436820949438e-05 0.000104504065942621 -9.01008874621805e-05 0.000127953432422983 -0.000556323568737943 -0.000411493682004874 -0.000364697177587635 -3.07272610785964e-05 -4.66110274429659e-05
"87" 0.000760354449022824 0.000330457817517355 0.000492058885633704 5.25236971110703e-05 0.000408595882596873 0.000301939672029551 0.000241391784198553 5.68690546709653e-05 0.00010206637487926 -9.64880082139782e-05 0.000122839451153965 -0.000562277436243054 -0.000428092237724978 -0.000364326546817784 -3.71400946595272e-05 -6.5578711530381e-05
"88" 0.000786461792204979 0.000337214897513408 0.000497267985353708 6.10159766081702e-05 0.000402046157371684 0.000282146482990905 0.000226380187045978 5.76165621676013e-05 0.000100014794252748 -0.000102747182616153 0.000117789791346905 -0.000567446668479821 -0.000443080204748468 -0.000361797735720302 -4.29997357699849e-05 -8.37498082742522e-05
"89" 0.000809841693116897 0.000341552115285461 0.000500191336368589 6.81329513331473e-05 0.00039485756783898 0.000261614418829706 0.000211224526829156 5.74784044167492e-05 9.83710069395861e-05 -0.000108848590795405 0.000112831746685066 -0.000571827897711271 -0.000456419346567296 -0.000357177556047316 -4.82511308030961e-05 -0.000101032436224562
"90" 0.000830477296658324 0.000343566521612871 0.000500884991496171 7.38943155490466e-05 0.000387036446003399 0.000240468963962311 0.000195992330655257 5.64602802922252e-05 9.71477461558809e-05 -0.000114771499375689 0.000107998562051146 -0.000575415701041186 -0.00046808649327545 -0.000350540589784912 -5.28460581143013e-05 -0.000117349866124762
"91" 0.000848380796326585 0.000343375366025352 0.000499420666834722 7.8339649348689e-05 0.000378590655282295 0.000218832948504088 0.000180752353426281 5.45712610381428e-05 9.6356268674011e-05 -0.000120496325511735 0.000103316345855759 -0.000578213475154689 -0.000478070617854553 -0.000341979781939891 -5.67413992986615e-05 -0.00013263011703972
"92" 0.000863580398331034 0.000341113453784316 0.000495884997673716 8.15157477160959e-05 0.00036952709502641 0.000196830022755467 0.00016556379344576 5.18274355631581e-05 9.59979808639454e-05 -0.00012601363308596 9.88035596488324e-05 -0.000580239162107282 -0.000486383135806783 -0.000331607690185262 -5.99108814055259e-05 -0.000146821133266444
"93" 0.000876137806380001 0.000336932223305217 0.000490379706851431 8.3477934968328e-05 0.000359857124378125 0.000174580461284889 0.000150488878348427 4.82519741715151e-05 9.60722308873073e-05 -0.000131304377950387 9.44811471633627e-05 -0.000581505308877812 -0.000493040576191428 -0.000319536994923345 -6.23288689832648e-05 -0.000159877695809374
"94" 0.000886121534932423 0.000330996304978172 0.000483019873470298 8.43019817626047e-05 0.000349592368769532 0.00015219898029336 0.000135573501086463 4.38784310646923e-05 9.65720527654259e-05 -0.000136366283124986 9.03554417402696e-05 -0.000582037105909492 -0.000498078383749972 -0.000305910048721013 -6.39805823553246e-05 -0.000171769528417157
"95" 0.000893634091276039 0.000323484736072715 0.000473937302146045 8.40606300780099e-05 0.000338749920503786 0.000129799856670754 0.000120869302594987 3.87430424333532e-05 9.74865308458693e-05 -0.000141193542331707 8.6441141690526e-05 -0.000581866811340453 -0.000501547657925278 -0.00029086935931457 -6.48628146867656e-05 -0.00018248001291222
"96" 0.000898786282602701 0.000314586220032299 0.000463263955626586 8.28450156488531e-05 0.000327342949046752 0.000107494484055685 0.000106411512087908 3.28904334725169e-05 9.879597056638e-05 -0.000145786115896837 8.27375316686035e-05 -0.000581028723120288 -0.000503506610091919 -0.000274572048465396 -6.49726798431106e-05 -0.0001920012920159
"97" 0.000901720730182778 0.000304501362178617 0.000451154049848983 8.07497441208566e-05 0.000315393869681154 8.53853375447694e-05 9.2241180420027e-05 2.6373542463681e-05 0.000100479982482614 -0.000150145442642109 7.92447085592585e-05 -0.000579561951441 -0.000504027192047025 -0.000257183367118277 -6.43221086915611e-05 -0.00020033842718412
"98" 0.000902583760204021 0.000293432272877759 0.000437761516464014 7.78783871707362e-05 0.000302918786477587 6.35728417937537e-05 7.8390349488409e-05 1.92505717507228e-05 0.000102510113263512 -0.000154281364892749 7.59624460333404e-05 -0.000577511333698206 -0.000503193504296355 -0.000238874792068199 -6.29300700484232e-05 -0.000207506302762551
"99" 0.000901540146387754 0.000281588346541434 0.000423249135115854 7.43384761774272e-05 0.000289939210687264 4.21528686943316e-05 6.48857998220025e-05 1.15807796784133e-05 0.000104857697281054 -0.000158199058947721 7.28812138109379e-05 -0.00057492356328372 -0.00050109516535513 -0.000219827563927526 -6.08221445928184e-05 -0.00021353081025288
"100" 0.000898775203204166 0.000269184383121712 0.00040778256904931 7.02439312965994e-05 0.000276483178641561 2.12172585221929e-05 5.17499394649824e-05 3.43503399525061e-06 0.000107488634896178 -0.000161910374801498 6.9993881775586e-05 -0.000571850832664845 -0.000497831849942044 -0.000200223947413763 -5.80260028077399e-05 -0.000218444891615473
"101" 0.000894477937942532 0.000256430551493557 0.000391534873003697 6.57096552823243e-05 0.000262576133083866 8.48613126150539e-07 3.89989718707816e-05 -5.11556129327836e-06 0.000110363118302789 -0.000165430665275967 6.72864418782752e-05 -0.000568341345885892 -0.000493512398646467 -0.000180248729820676 -5.45773315511405e-05 -0.000222291647493263
"102" 0.00088885040825156 0.000243541555531496 0.00037467294782342 6.08551008788884e-05 0.000248245822485511 -1.8872945119364e-05 2.66526113869753e-05 -1.39945219399406e-05 0.000113442709940627 -0.000168775295765526 6.47471283915725e-05 -0.000564453430508581 -0.000488247659091703 -0.000160085489736987 -5.05175109489034e-05 -0.000225121843676554
"103" 0.000882104869289814 0.000230728300664541 0.000357368899242878 5.58026507406293e-05 0.000233519425296802 -3.78728993180831e-05 1.47166030953223e-05 -2.3122483741114e-05 0.000116684147610583 -0.000171963146447716 6.2356845633896e-05 -0.000560238307924192 -0.000482153300357245 -0.000139923620578555 -4.58953645784477e-05 -0.000226990640534461
"104" 0.000874455844143204 0.000218196246243839 0.000339791882755569 5.06700084189972e-05 0.000218431490432665 -5.60832267137992e-05 3.20587226007219e-06 -3.24204660719635e-05 0.000120045249897253 -0.000175007423638458 6.01021827740229e-05 -0.000555750809077324 -0.000475349544934264 -0.00011994244643504 -4.07582663532805e-05 -0.000227961092189997
"105" 0.000866127039425295 0.000206142991478207 0.000322108439424968 4.55794765411562e-05 0.000203013542457801 -7.34386011614521e-05 -7.87842375917002e-06 -4.18012282800441e-05 0.00012347774529205 -0.00017793555740904 5.79656226844234e-05 -0.000551047195732404 -0.000467954074030529 -0.000100323084278223 -3.51577755467146e-05 -0.000228099948894593
"106" 0.00085733830349437 0.000194766073227221 0.000304480922333286 4.06477601844559e-05 0.000187306406719561 -8.98836786643975e-05 -1.85306350797314e-05 -5.11807376346081e-05 0.000126936463355722 -0.000180760443619893 5.59278326512088e-05 -0.000546174073598821 -0.000460092815652378 -8.12385070109069e-05 -2.91463717832623e-05 -0.000227475416132055
"107" 0.000848320761561876 0.000184250581181667 0.000287062446394462 3.5993264841271e-05 0.000171342222896018 -0.000105363807456325 -2.87517109161144e-05 -6.04771350819233e-05 0.000130378941091536 -0.000183504539748887 5.3970116645899e-05 -0.000541187022563725 -0.000451883762758613 -6.28536685496379e-05 -2.27821009280563e-05 -0.000226163608691819
"108" 0.00083929906505073 0.000174769179809199 0.000270001802743565 3.17309770191885e-05 0.000155160656664255 -0.000119833730415252 -3.85354736362876e-05 -6.96045321119822e-05 0.00013375622754506 -0.000186189855969461 5.20779394013529e-05 -0.000536128241244106 -0.000443443209879932 -4.53217712990282e-05 -1.61159959485166e-05 -0.00022423419248682
"109" 0.000830492944361557 0.000166492984765856 0.000253441308306979 2.796668520158e-05 0.000138799764741549 -0.000133248161566831 -4.78880176724522e-05 -7.8477753511502e-05 0.000137029318660341 -0.000188833682732753 5.02336211356584e-05 -0.000531049089366578 -0.000434889815022216 -2.87911460636164e-05 -9.20563159749763e-06 -0.000221767668934277
"110" 0.000822124982543337 0.000159574186724184 0.000237514404676591 2.48061146000668e-05 0.000122300179220276 -0.000145572483748727 -5.68076883863194e-05 -8.70161752434829e-05 0.000140154256750477 -0.000191451918259077 4.84246902942049e-05 -0.000525985624781283 -0.00042633193846957 -1.33955677930386e-05 -2.10464920833041e-06 -0.000218832238493182
"111" 0.000814409812484011 0.000154158830130838 0.000222341108625205 2.23497812101219e-05 0.000105707105728101 -0.000156775148725607 -6.52976078103174e-05 -9.51414571180001e-05 0.000143091142418252 -0.000194068201446583 4.66328472521734e-05 -0.000520979641083965 -0.000417878268792245 7.41916730547141e-07 5.13405484336676e-06 -0.0002155102539871
"112" 0.000807558106885411 0.000150376779619736 0.000208041482285005 2.06907337236342e-05 8.90624387502119e-05 -0.000166828611525298 -7.33619500405019e-05 -0.000102776943101363 0.000145808234699799 -0.000196691234941188 4.48499075311395e-05 -0.000516062255838017 -0.000409628202842235 1.35180352672576e-05 1.2466012195232e-05 -0.000211867451070838
"113" 0.000801770600041557 0.000148345906340525 0.000194711482269752 1.99166660636204e-05 7.24052177486221e-05 -0.000175713531806453 -8.0999949263886e-05 -0.000109851810821918 0.000148269901485968 -0.000199338078494297 4.30663951481443e-05 -0.00051126317838891 -0.000401675338736058 2.48399414006486e-05 1.9837003868482e-05 -0.000207975865285206
"114" 0.000797238232895274 0.000148174961708683 0.000182447736610233 2.01046187587693e-05 5.57828830655755e-05 -0.000183410534058918 -8.82165332672841e-05 -0.000116299809631114 0.00015044785676113 -0.000202020586913226 4.12719635582671e-05 -0.000506609451349628 -0.000394107735197988 3.46292649345793e-05 2.72108676493033e-05 -0.000203905606032207
"115" 0.000794148431953619 0.000149956244390447 0.000171330021355153 2.13325502432528e-05 3.92393699574943e-05 -0.00018991102527527 -9.50140748628815e-05 -0.000122055011687839 0.000152317577317298 -0.000204745692241666 3.94677335798541e-05 -0.000502119224176903 -0.000386998475079351 4.28293561335188e-05 3.45441547100592e-05 -0.000199717546550661
"116" 0.00079267104940818 0.000153768776585516 0.000161426704721028 2.3664337430672e-05 2.28137582983982e-05 -0.000195206767488986 -0.000101393484939603 -0.000127064575237992 0.000153862812800632 -0.000207521987815756 3.76460999728567e-05 -0.00049780965252981 -0.000380422277500866 4.93952231432571e-05 4.18039054402837e-05 -0.000195473210252834
"117" 0.000792968650452097 0.000159677745669713 0.000152801195304759 2.71542696157323e-05 6.55628138602452e-06 -0.000199297230937005 -0.000107351656159694 -0.000131276144615632 0.000155068786252669 -0.000210355270454214 3.5810679849106e-05 -0.000493690902334228 -0.00037443552223398 5.43031469855595e-05 4.89652691679446e-05 -0.000191225404149355
"118" 0.000795192092415496 0.000167737692799016 0.000145501150968556 3.18574512416387e-05 -9.49089344178358e-06 -0.000202188066975599 -0.000112896539200531 -0.000134645727101194 0.000155925105191701 -0.000213245799786966 3.39627510530825e-05 -0.000489771161981431 -0.000369093860444443 5.7545828815679e-05 5.59938450931753e-05 -0.000187026293721913
"119" 0.000799477608019727 0.000177987777743891 0.000139558231360391 3.7811618669872e-05 -2.52903968047788e-05 -0.000203885156805801 -0.000118024537780742 -0.000137135193832877 0.000156429116487874 -0.000216193208863462 3.21092186208707e-05 -0.000486053591490035 -0.000364437837505834 5.9132796018374e-05 6.28781620108734e-05 -0.000182922557055681
"120" 0.000805946600540218 0.000190452225240726 0.000135003581942261 4.50493050487062e-05 -4.07923394795088e-05 -0.000204404906207599 -0.000122736331536053 -0.000138715995312109 0.000156587735909658 -0.000219194669679 3.0257713393831e-05 -0.000482531663989309 -0.000360498231466642 5.90965598013972e-05 6.96039575209919e-05 -0.000178949842221298
"121" 0.000814705823500442 0.000205145493384011 0.000131849869225428 5.35958178092218e-05 -5.59647225553057e-05 -0.000203767335571473 -0.000127030609745286 -0.000139363644178635 0.000156405768965782 -0.000222241391916763 2.84203594932796e-05 -0.000479207015344988 -0.000357300505762594 5.74754539552538e-05 7.61586174684703e-05 -0.000175148070670097
"122" 0.00082585289577219 0.000222065629711992 0.000130100083065156 6.34668986159951e-05 -7.07623234945882e-05 -0.000201993814123044 -0.000130909142488414 -0.000139065814711819 0.000155898473534341 -0.000225328092960552 2.66103101790127e-05 -0.000476063282200384 -0.000354857855654021 5.43355350232678e-05 8.25442979767462e-05 -0.000171542119293077
"123" 0.00083946311863729 0.000241200340493741 0.000129754485387045 7.46674071303697e-05 -8.51455796640825e-05 -0.000199115036611477 -0.000134368148477305 -0.000137812066550408 0.000155086675199538 -0.000228439821732473 2.48439210641205e-05 -0.00047309175559076 -0.000353173144188062 4.97522993163822e-05 8.87632354383794e-05 -0.000168156033463084
"124" 0.000855599235975386 0.000262520395856107 0.00013079433861398 8.71943517967334e-05 -9.90859806486384e-05 -0.000195163905615357 -0.000137406422577227 -0.000135604829660023 0.000153999921785761 -0.000231564736977609 2.31353152096086e-05 -0.000470274597253194 -0.000352237848332155 4.38228732682483e-05 9.48193874752805e-05 -0.000165008083592904
"125" 0.000874301479886681 0.000285986436698613 0.000133195225617083 0.000101036495369542 -0.000112543827564093 -0.000190181079605082 -0.000140025158360806 -0.000132452670455408 0.00015266279502995 -0.000234691661524421 2.15101814423151e-05 -0.000467592819962748 -0.000352040811361577 3.66527860125222e-05 0.000100729572774169 -0.000162107431338555
"126" 0.000895600727680725 0.000311546171791794 0.000136924361976553 0.000116175677710069 -0.000125488931537846 -0.000184209766388804 -0.000142224083776119 -0.00012836924493912 0.000151118760741218 -0.000237793744943283 1.99837657305956e-05 -0.000465024834726118 -0.000352558155178607 2.83619235013588e-05 0.000106511923155863 -0.000159464989477834
"127" 0.000919506025262159 0.000339132912467454 0.000141939089034604 0.000132581996084782 -0.000137895435979003 -0.000177298024397598 -0.000144001105663037 -0.000123378852133177 0.000149407239738555 -0.000240859166736875 1.85794900360813e-05 -0.000462549015513222 -0.000353756818925096 1.90864580340484e-05 0.000112187953596064 -0.000157078239691513
"128" 0.000946007384504515 0.000368668758469505 0.000148189470640674 0.000150215043085539 -0.000149731437604075 -0.000169499532472866 -0.000145356783985707 -0.000117515442535043 0.000147573569402941 -0.000243864669337806 1.73242196342605e-05 -0.000460138939320644 -0.000355595175845282 8.97194284415053e-06 0.000117783753231797 -0.000154945801629105
"129" 0.000975078159539998 0.000400063339329808 0.000155620530659733 0.000169028302267074 -0.000160976248709845 -0.000160871357240271 -0.000146293101233199 -0.000110812433965355 0.000145670409481672 -0.000246789886045552 1.62363407832459e-05 -0.00045776866444397 -0.000358029037742642 -1.83465476437608e-06 0.000123329140129755 -0.000153059840181694
"130" 0.00100666857885396 0.000433209881132246 0.000164164585986224 0.000188968601094053 -0.000171607504268853 -0.000151475680017921 -0.000146810632534392 -0.000103317818687899 0.000143748412017989 -0.000249608921692905 1.53423994278086e-05 -0.000455412881391938 -0.000361000677298633 -1.31596579762924e-05 0.000128856581284775 -0.000151405186102554
"131" 0.00104071625479896 0.000467996206202805 0.00017374831620735 0.0002099700069341 -0.000181609050942719 -0.000141378673972436 -0.00014691286667069 -9.50828078482285e-05 0.000141867808108805 -0.00025229914271748 1.46669984322918e-05 -0.00045303911293786 -0.000364450967611448 -2.48418907374649e-05 0.000134404750070199 -0.000149967113773852
"132" 0.00107713169327291 0.000504289038765653 0.000184295654791561 0.000231957652856058 -0.000190966645962093 -0.000130648147900982 -0.000146604734847708 -8.61626680222636e-05 0.000140084626694074 -0.000254837617496831 1.42300673680524e-05 -0.000450626345276215 -0.00036831509644132 -3.6708718933512e-05 0.000140005721102735 -0.000148726714725186
"133" 0.00111580950726436 0.000541951387129217 0.000195720487721909 0.000254853797079571 -0.000199669868873262 -0.000119358736538569 -0.000145892303078839 -7.66242481591909e-05 0.000138461054456668 -0.000257202897008081 1.40546482090341e-05 -0.000448145757343752 -0.000372521885180175 -4.85791887489961e-05 0.000145702597970947 -0.000147659128408538
"134" 0.00115662286846939 0.00058082921597816 0.000207933947875479 0.000278566598397816 -0.000207712183779473 -0.000107585549390994 -0.000144784355932349 -6.6529940475655e-05 0.000137059163187137 -0.000259368586704319 1.41620559682997e-05 -0.000445567397453528 -0.000376992009998218 -6.02736971102383e-05 0.000151535712062071 -0.000146740186063651
"135" 0.00119942010963808 0.000620754189229532 0.000220838343553043 0.000303002526327793 -0.000215087273089298 -9.5407509026873e-05 -0.000143286989730949 -5.59578892246939e-05 0.000135940113737506 -0.000261317145776031 1.45737947902623e-05 -0.000442870741905598 -0.00038165309673916 -7.16157381871477e-05 0.000157540164500796 -0.000145939880696757
"136" 0.00124403880172721 0.000661555080791557 0.000234334722935449 0.000328054088426856 -0.00022180227888749 -8.29039128699911e-05 -0.000141414203236905 -4.49787314772765e-05 0.000135163047823026 -0.000263025026549822 1.53024696652044e-05 -0.000440030631399521 -0.000386421138544579 -8.24317165432979e-05 0.000163756980220499 -0.000145229668147039
"137" 0.00129028509709933 0.000703041603035009 0.000248316048967137 0.000353611375006762 -0.000227855826407045 -7.01587287635578e-05 -0.000139176580668441 -3.36750573664618e-05 0.000134792879056558 -0.0002644746190195 1.63680131063677e-05 -0.000437021537449791 -0.000391209864797595 -9.2536450839293e-05 0.000170226752528885 -0.000144577346128805
"138" 0.00133795219974918 0.000745016055739025 0.000262672177896822 0.000379553925755234 -0.000233259748259904 -5.72553899246683e-05 -0.000136590515479724 -2.21283194086192e-05 0.000134885452762459 -0.000265649358195881 1.77773595331734e-05 -0.00043382760367925 -0.000395943401990135 -0.000101772674596349 0.000176981145599255 -0.000143953286047337
"139" 0.00138681197544918 0.000787269590554095 0.000277292821698225 0.000405761986648371 -0.000238024816901389 -4.42761694317741e-05 -0.000133676119136188 -1.0419363768289e-05 0.000135494651333157 -0.000266536115974868 1.95460317873974e-05 -0.00043042847270745 -0.000400531786790628 -0.00010997126965631 0.000184057425398602 -0.000143322363278595
"140" 0.00143661216086414 0.000829582607190977 0.000292058796452156 0.000432100989690389 -0.000242168319854316 -3.13043216710058e-05 -0.000130445437748307 1.36575623767532e-06 0.000136673740052161 -0.000267118457148242 2.16791227082245e-05 -0.000426809840970717 -0.000404895407197763 -0.000116978951067629 0.000191487104012602 -0.000142654912603487
"141" 0.00148708918851979 0.000871732252398925 0.000306852267419159 0.000458436531845593 -0.00024570842098391 -1.8426246145448e-05 -0.000126927467581638 1.31434844497119e-05 0.000138472254202586 -0.000267389698957665 2.41780420508001e-05 -0.000422956956365942 -0.000408950454773695 -0.000122651713078819 0.000199294228062157 -0.000141917949951864
"142" 0.00153795605235205 0.000913479599713084 0.000321553012984927 0.000484630500452919 -0.00024867493769716 -5.72020085057299e-06 -0.000123138110573621 2.48320455296308e-05 0.000140931117503647 -0.000267344669151151 2.70469008702763e-05 -0.000418861325976809 -0.000412617501435566 -0.000126849467984143 0.000207508719012022 -0.000141076469242945
"143" 0.00158891438658192 0.000954584166695567 0.000336036749062119 0.000510539080949208 -0.000251086985742195 6.73281887419006e-06 -0.000119104584936308 3.63467259194512e-05 0.000144089122618572 -0.000266978190418466 3.02793892810879e-05 -0.000414511814650488 -0.000415820912067279 -0.000129456913461682 0.000216141515495729 -0.000140105122837947
"144" 0.00163964880129613 0.000994798946803595 0.000350181638598824 0.000536015526999363 -0.000252983198617088 1.88574091010928e-05 -0.000114856857880016 4.76089044594744e-05 0.000147976417639943 -0.000266292189060341 3.38702482778525e-05 -0.000409907629365886 -0.00041848696236513 -0.000130358892080708 0.000225214836754613 -0.000138974135820766
"145" 0.00168982953043811 0.00103387355523203 0.000363861932886511 0.000560912964740428 -0.000254392127656193 3.058138162198e-05 -0.000110420022675184 5.85401614260636e-05 0.000152620206754304 -0.00026528636975125 3.78121679734444e-05 -0.000405041647590996 -0.000420546678457845 -0.000129458160427966 0.00023473556900049 -0.000137655112508164
"146" 0.00173911880213028 0.00107155517303254 0.000376955794306853 0.000585082325367691 -0.000255353897256058 4.18341245786059e-05 -0.000105824201088306 6.9072048445346e-05 0.00015804058764656 -0.000263972928412941 4.20879832315444e-05 -0.000399919464887625 -0.000421936991958108 -0.000126679080284981 0.000244706674774326 -0.000136122973047093
"147" 0.00178716564372085 0.00110758515928787 0.000389341742968885 0.0006083704055999 -0.000255904749958949 5.25524329509466e-05 -0.000101100557203473 7.91281957786155e-05 0.00016424364103373 -0.000262359319999394 4.66840362107816e-05 -0.000394543212770614 -0.000422597377555077 -0.000121954554322685 0.000255126452975608 -0.000134356098156008
"148" 0.00183361950139232 0.00114171103617237 0.000400897231864344 0.000630635122638977 -0.000256084629178669 6.26786638681143e-05 -9.62804101383161e-05 8.86488838578828e-05 0.000171235675453563 -0.000260460680831864 5.15782112105735e-05 -0.000388918476902569 -0.000422477264608835 -0.000115231091920328 0.000265991667703432 -0.000132333423603769
"149" 0.00187811913455465 0.00117368390800751 0.000411505241265361 0.000651728060948054 -0.000255946040588422 7.21583046925241e-05 -9.13999295863245e-05 9.7576502281905e-05 0.000179012867167599 -0.000258298647039616 5.67501584673636e-05 -0.000383056289486266 -0.000421526585094751 -0.000106482006676038 0.00027728523003655 -0.000130037024946979
"150" 0.00192030992526198 0.00120325402136794 0.000421052704494858 0.000671504277654137 -0.000255524987320139 8.0948566448294e-05 -8.64928367177053e-05 0.00010585653067445 0.000187557604738476 -0.000255887978357656 6.21708885574036e-05 -0.000376967134784601 -0.00041971219753572 -9.5693324236761e-05 0.000288990886453432 -0.000127452345617071
"151" 0.00195983553152552 0.00123018671375455 0.000429429869961809 0.000689828710786612 -0.000254868073322159 8.9010099616786e-05 -8.15900237620846e-05 0.00011344152263126 0.0001968547228209 -0.00025325567541018 6.78132837550094e-05 -0.000370667799185054 -0.000416997903431906 -8.28633715425342e-05 0.000301081183949226 -0.000124566616797088
"152" 0.00199634739641654 0.00125425133796334 0.000436529990535317 0.000706568259312217 -0.000254027566314965 9.63108152333502e-05 -7.67286175501483e-05 0.000120295500041524 0.000206870644123918 -0.000250429661839049 7.36477694587758e-05 -0.000364172177294261 -0.000413358398802101 -6.80149535477575e-05 0.000313531008132209 -0.00012136904434446
"153" 0.00202950734389316 0.00127523250550756 0.000442260107949085 0.000721597833263296 -0.000253048250113447 0.000102828656632624 -7.19407010107618e-05 0.000126386964165896 0.000217566917814524 -0.000247439422265838 7.96374471314879e-05 -0.000357501837275833 -0.000408780401217359 -5.11902642633519e-05 0.000326301325972582 -0.000117853347068447
"154" 0.00205899101540035 0.00129292359663696 0.000446526257195544 0.000734798766461085 -0.000251976410580702 0.000108545861754684 -6.72689931501518e-05 0.000131686127677807 0.000228900334990999 -0.000244322020311906 8.57521802028065e-05 -0.000350680779266397 -0.000403254337381148 -3.24425261559675e-05 0.000339351285469632 -0.000114015766740231
"155" 0.00208449439183047 0.00130714338771919 0.000449246792797761 0.00074606396877704 -0.000250855965769031 0.000113459030935685 -6.27377513836999e-05 0.000136180859630677 0.000240815868054229 -0.000241109762582094 9.19514146905413e-05 -0.000343725634511283 -0.000396779311203483 -1.18424142517246e-05 0.000352637853909778 -0.000109852209635522
"156" 0.00210572880824132 0.00131772144391618 0.000450346882813098 0.000755295300620425 -0.000249739095113048 0.000117567203594018 -5.83883765595589e-05 0.000139860384784721 0.000253252931524499 -0.000237839418778665 9.81984444205693e-05 -0.000336669431287554 -0.000389364310157991 1.05132292221377e-05 0.000366107633494984 -0.000105366607493908
"157" 0.0021224348541473 0.00132451740219898 0.000449764364146712 0.000762408491147808 -0.000248662287910793 0.000120879337780029 -5.42503026511146e-05 0.000142723935215895 0.000266144718374061 -0.000234552362643669 0.000104455713487121 -0.000329531462358547 -0.000381023831049037 3.45187581486537e-05 0.000379704458966908 -0.000100563671060172
"158" 0.0021343788300808 0.00132740620896613 0.000447447260199355 0.000767329560675096 -0.000247673992001596 0.000123413152693906 -5.03581992942934e-05 0.000144774667391243 0.000279409322663711 -0.000231288289735718 0.000110684447829333 -0.000322346065385861 -0.000371785788841044 6.00515789643571e-05 0.000393374582617434 -9.54464839381338e-05
"159" 0.00214136583506484 0.00132629181548427 0.00044335423288987 0.00077000083575634 -0.000246809086714335 0.000125194542413421 -4.67394156451575e-05 0.000146026896206131 0.000292972766666506 -0.000228090589188726 0.000116844812865129 -0.000315140874958759 -0.000361678092157156 8.69737519472739e-05 0.000407051103080702 -9.00238195336227e-05
"160" 0.00214322626298626 0.00132111005769641 0.000437455715158121 0.000770374983906696 -0.000246111589180542 0.000126253958346869 -4.34263600824409e-05 0.000146502337072665 0.000306744857689434 -0.000224996936808004 0.000122897948236574 -0.000307944447335723 -0.000350747222804534 0.000115132662145902 0.000420674189152767 -8.4307706371154e-05
"161" 0.00213983670894897 0.00131181524659657 0.000429737299726167 0.000768422538514037 -0.000245607591753117 0.000126633411171275 -4.04452918072339e-05 0.000146225863645226 0.000320636275064964 -0.000222057984705769 0.00012880817738139 -0.000300788981037513 -0.000339037420158497 0.000144361100828804 0.000434172951536852 -7.8309767930003e-05
"162" 0.00213110756873034 0.00129840299785623 0.000420197706041498 0.000764129369265272 -0.000245330787253053 0.000126377759969167 -3.78178319538925e-05 0.000145230506334462 0.000334548511828213 -0.000219307007134839 0.00013453848072813 -0.000293706645197404 -0.00032660960780219 0.000174481650981799 0.00044748122950763 -7.20459559534943e-05
"163" 0.00211699785571139 0.00128089072567248 0.000408846989126678 0.000757500961786689 -0.000245308187097694 0.000125542113218784 -3.55716197960586e-05 0.000143556347308227 0.000348385362086618 -0.000216791433092476 0.000140055353926052 -0.000286727606644493 -0.000313523884580959 0.000205310518788044 0.000460531410522667 -6.55304786716311e-05
"164" 0.00209750351150043 0.00125933321793045 0.000395714725700869 0.000748555632327305 -0.000245562406309444 0.00012417981534643 -3.37260973585424e-05 0.000141245243003412 0.000362045445095628 -0.000214547613237745 0.000145322764214747 -0.000279883896204598 -0.000299849287775861 0.000236642189444825 0.000473251127536972 -5.87830261421173e-05
"165" 0.00207266802208385 0.00123381675848555 0.000380837799488156 0.000737327035849546 -0.000246112639433223 0.000122353898366581 -3.22995509210806e-05 0.000138347964592327 0.000375428388511387 -0.000212618194658649 0.000150311185868234 -0.000273209237445197 -0.000285663309877709 0.000268278138325096 0.00048557100709054 -5.18207648862405e-05
"166" 0.00204258054508089 0.00120445300681195 0.000364276549511032 0.000723871551821621 -0.000246966341222809 0.000120133343630262 -3.13067577995267e-05 0.000134912934406049 0.000388427788038841 -0.000211036192807967 0.000154993856751185 -0.000266732828840005 -0.000271053492919503 0.000300002687493703 0.000497423117814337 -4.46665211978534e-05
"167" 0.00200737367880052 0.00117139255541492 0.000346098372676767 0.000708257800168109 -0.000248134764515167 0.000117585797339342 -3.07628443661715e-05 0.000131001085064575 0.000400944703513882 -0.000209837336483431 0.00015934284299745 -0.000260485614017136 -0.00025610160965465 0.000331598791926908 0.000508744081928189 -3.73394199939101e-05
"168" 0.00196722252912014 0.0011348111559986 0.00032639030783431 0.000690571485824671 -0.000249626034116877 0.000114781265044408 -3.06766910372946e-05 0.000126667186527014 0.000412882337337193 -0.000209053057878512 0.000163338587504232 -0.000254498350087436 -0.000240903891778088 0.00036285261815543 0.000519467978689231 -2.9860613094788e-05
"169" 0.00192234420946339 0.00109491432858489 0.000305248407690545 0.000670916481270358 -0.000251432359082902 0.000111795579359746 -3.10516056682676e-05 0.00012197406253027 0.000424139832084401 -0.000208712340388276 0.000166961410699396 -0.000248800273923769 -0.000225553070499994 0.000393539786135535 0.000529532200293173 -2.22537264912669e-05
"170" 0.00187300014479868 0.0010519358388588 0.000282785750634338 0.000649406890541541 -0.000253550882628908 0.000108698890567962 -3.18972633888822e-05 0.000116982199607894 0.00043462295090546 -0.000208838028859241 0.000170194897485256 -0.000243417399475713 -0.000210152809143353 0.000423446190577446 0.000538880628988315 -1.45417520138089e-05
"171" 0.00181948067826144 0.0010061317896316 0.000259127161139651 0.000626175658907545 -0.000255967555053181 0.000105568297288886 -3.32095741661148e-05 0.000111752297136815 0.000444245004015549 -0.000209451521628477 0.000173026637935036 -0.000238375777283128 -0.000194804393773512 0.000452353661655141 0.000547461999689708 -6.74592979835413e-06
"172" 0.00176212238708254 0.000957782794554777 0.000234406675700588 0.000601370545027536 -0.00025866765183198 0.000102473799340628 -3.49883666172786e-05 0.0001063461554593 0.000452924349799846 -0.000210569262081133 0.000175450954270991 -0.00023369986589905 -0.000179610442943965 0.000480051906864575 0.000555225457168478 1.1086061917025e-06
"173" 0.00170128277596199 0.000907192779980759 0.000208774310761594 0.000575144595347799 -0.000261625765487953 9.94837597731527e-05 -3.72261148665991e-05 0.000100825574079151 0.000460583200517777 -0.000212201976029622 0.000177461588004034 -0.000229413316863261 -0.00016467796364063 0.000506339167760317 0.000562127401913103 8.99928266715098e-06
"174" 0.00163735309802051 0.000854674695878504 0.000182384971110328 0.000547667536488089 -0.000264822736935525 9.66672555585863e-05 -3.99165009318112e-05 9.52478050451303e-05 0.000467153261962478 -0.000214364844412726 0.00017905823769889 -0.00022553739778203 -0.00015011105953774 0.000531018005252456 0.000568128554590286 1.69020185616978e-05
"175" 0.00157074654962742 0.000800562060932433 0.000155402475368784 0.000519115944762724 -0.000268222707591219 9.40862200100179e-05 -4.30492747839322e-05 8.96701447211848e-05 0.000472574151426839 -0.000217052492519202 0.000180242815936951 -0.000222089028220163 -0.000136014527858974 0.000553911671409447 0.000573201933641935 2.47951626642469e-05
"176" 0.00150189823909751 0.000745202556815717 0.000128000100308037 0.000489676131524965 -0.000271795980027324 9.17988021625146e-05 -4.66078614818142e-05 8.41429836425592e-05 0.000476795476678336 -0.000220270019645386 0.000181021458341165 -0.000219086018824996 -0.000122492474317433 0.000574845207331041 0.000577319578810934 3.26574486825001e-05
"177" 0.00143125643414173 0.000688945847791752 0.000100351832779248 0.000459542758912137 -0.000275506973457402 8.98584489871327e-05 -5.05751445144419e-05 7.87197665502434e-05 0.000479774504303949 -0.000224008327569079 0.000181405021820565 -0.000216541918443868 -0.000109642305179189 0.000593665080275993 0.000580461175998897 4.04644235576215e-05
"178" 0.00135928436459671 0.000632149234777705 7.26417716360328e-05 0.000428907060688667 -0.00027931097377471 8.83129290786116e-05 -5.49365969688937e-05 7.34406917896102e-05 0.000481482367342264 -0.000228256113709949 0.0001814035157783 -0.000214469592681452 -9.75647608899672e-05 0.000610232524354083 0.000582615340748617 4.81933993319032e-05
"179" 0.0012864429229584 0.000575171432949226 4.50532282651967e-05 0.000397972076021761 -0.000283172410183302 8.72020279756028e-05 -5.96659187558064e-05 6.8348116598141e-05 0.00048189409330504 -0.000233001529046448 0.000181036552442484 -0.000212879854155093 -8.63526053434744e-05 0.000624425214132271 0.000583774103682344 5.58237305381905e-05
"180" 0.00121320820424864 0.00051837151901966 1.7765285292628e-05 0.000366938298452438 -0.000287050429618626 8.65567314555774e-05 -6.47472508293801e-05 6.34770727048715e-05 0.000481002378068188 -0.000238224901764406 0.000180319367898641 -0.000211777834709979 -7.60925979165708e-05 0.000636142670945686 0.000583941430118876 6.33346783352088e-05
"181" 0.00114004650578219 0.000462102316222518 -9.03643990032519e-06 0.000336004115996836 -0.000290894393990374 8.64032465466667e-05 -7.01524633896842e-05 5.8858055689459e-05 0.000478807549761756 -0.000243902392508595 0.000179274490833736 -0.00021117182804215 -6.6866624167483e-05 0.000645298575453904 0.000583123858295883 7.07025920218882e-05
"182" 0.00106742181270789 0.000406709199001365 -3.51701941634982e-05 0.000305372711548457 -0.00029466570535759 8.67594410805661e-05 -7.58596898793018e-05 5.45110311741868e-05 0.00047532392077209 -0.000250005119081041 0.000177922906643044 -0.000211060423295716 -5.87525085000957e-05 0.000651840094416868 0.000581331614026138 7.79085633073073e-05
"183" 0.000995784557369467 0.000352528669512407 -6.04672537267856e-05 0.00027523444308303 -0.000298324753539487 8.76306464163943e-05 -8.18446912216162e-05 5.0453229861227e-05 0.000470572397205025 -0.000256502713957638 0.000176290893763899 -0.000211449352428333 -5.18159306376122e-05 0.000655720566101183 0.000578590688406345 8.49288556978241e-05
"184" 0.000925576645836075 0.000299881363455197 -8.47521886867914e-05 0.000245779304070117 -0.000301821373935539 8.90165498130426e-05 -8.8082163119123e-05 4.66994524681696e-05 0.000464587206612483 -0.000263359937220546 0.000174403072276994 -0.000212333650125444 -4.61207396255292e-05 0.000656929924635624 0.000574920073560003 9.17449651318054e-05
"185" 0.000857221873062359 0.000249076752542122 -0.00010786622907681 0.00021719132023796 -0.000305123945215777 9.09065219599476e-05 -9.45446046504226e-05 4.32505532113061e-05 0.000457418101080374 -0.000270543964679586 0.000172284336061282 -0.00021371306990445 -4.17211483467027e-05 0.000655474988408972 0.000570355895278052 9.83317335305958e-05
"186" 0.000791122626926555 0.000200400142430529 -0.000129660563125118 0.000189640655292515 -0.000308189978486609 9.32810147924597e-05 -0.000101213584587156 4.01043835197627e-05 0.000449115810621678 -0.000278007432694419 0.000169965785717426 -0.000215578092431853 -3.86551005405827e-05 0.000651383836828795 0.000564934353061733 0.000104671436887926
"187" 0.000727653329262173 0.000154122160971543 -0.000149990923238219 0.000163288414876851 -0.000310990743921332 9.61088516761695e-05 -0.000108062074022117 3.7253946133413e-05 0.000439745587707668 -0.00028571424771345 0.000167472061666634 -0.000217923455363805 -3.69621282634136e-05 0.000644708461806841 0.000558696028911845 0.000110738645169826
"188" 0.000667174384474286 0.000110485074941726 -0.000168730003062181 0.000138291603717193 -0.000313492401503314 9.93512828705114e-05 -0.000115072567208676 3.46838260429396e-05 0.000429385266633262 -0.000293620954660761 0.000164832213813871 -0.000220740561771964 -3.66624394327777e-05 0.00063552633931962 0.000551685182502739 0.000116515937684559
"189" 0.000610008075689443 6.97131245864367e-05 -0.000185762579324244 0.000114780953060001 -0.000315673966018142 0.000102962203915571 -0.000122222977934638 3.23726985936655e-05 0.000418113070851388 -0.000301679441033351 0.00016206888909977 -0.000224017068775954 -3.77754408584582e-05 0.00062393224925796 0.000543956503644009 0.000121976292253905
"190" 0.000556447777385123 3.19996537053966e-05 -0.000200991484853855 9.28827155892021e-05 -0.000317512751271783 0.000106883976187228 -0.000129496618452591 3.02969791182807e-05 0.00040602231567261 -0.000309847475580464 0.000159212672066596 -0.00022773882604154 -4.03035354108582e-05 0.000610041557739501 0.000535556254514255 0.000127100724325425
"191" 0.000506756463645109 -2.48707969574675e-06 -0.000214327278745984 7.27066320817386e-05 -0.000318991454967651 0.000111050389224478 -0.000136879541795601 2.84229663239856e-05 0.000393206658020675 -0.000318074769109696 0.000156285397517356 -0.000231894422260371 -4.42428152278525e-05 0.000593992730876575 0.000526545097064183 0.000131863438180974
"192" 0.000461160298058216 -3.36056196891968e-05 -0.000225704723882147 5.4339944410849e-05 -0.000320108094941816 0.000115391433856467 -0.000144359841689176 2.67143646090521e-05 0.000379769814240404 -0.000326321210745895 0.000153309572706489 -0.000236467734594667 -4.95759328733676e-05 0.000575933201072639 0.00051698145993941 0.000136241696166273
"193" 0.000419852552828385 -6.12465650722064e-05 -0.000235075666607267 3.78613129090041e-05 -0.000320851119823803 0.000119826195057429 -0.000151926359422181 2.51306687628497e-05 0.000365816442225696 -0.00033453931743484 0.000150304615818413 -0.000241437824207983 -5.62792098531941e-05 0.00055604056889813 0.000506922270627056 0.000140214592659911
"194" 0.000382985055799926 -8.53312316773838e-05 -0.000242406749688199 2.33248138087289e-05 -0.000321234461855996 0.000124267736045824 -0.000159571692548614 2.36296415290549e-05 0.000351459383381447 -0.000342685524942235 0.000147291921566265 -0.000246791788221822 -6.43180480947592e-05 0.00053449132366198 0.00049642613193214 0.000143753565444079
"195" 0.000350678192327773 -0.000105807692716388 -0.000247684225548476 1.07711012631299e-05 -0.000321265383418722 0.000128625060636634 -0.000167294113924771 2.21621900219096e-05 0.000336810124126641 -0.000350721983627784 0.000144286795756705 -0.000252504622116718 -7.36442335831048e-05 0.000511483590606543 0.000485560041467928 0.000146839887920891
"196" 0.000323004636933432 -0.000122658901406763 -0.000250914592861226 2.16851078611752e-07 -0.000320957086259471 0.000132804239104286 -0.000175088552908776 2.06781115785402e-05 0.000321979462529166 -0.000358602740422675 0.000141302168871249 -0.000258557433087928 -8.42044110102486e-05 0.000487223257900521 0.000474382388954431 0.000149447930832297
"197" 0.000300008399757911 -0.000135899591368896 -0.000252121638973913 -8.33636818393211e-06 -0.000320335179938869 0.000136703084469305 -0.00018296249417198 1.91298908281667e-05 0.00030708502463014 -0.000366295199239091 0.000138348480417615 -0.000264927154877072 -9.5936673321214e-05 0.000461925282902163 0.000462950877365563 0.000151550802083073
"198" 0.000281683731072142 -0.000145567790393645 -0.000251350037405256 -1.49082024166256e-05 -0.000319430215379109 0.000140221260176967 -0.00019091360598161 1.74601099238251e-05 0.000292239997334719 -0.000373761918131861 0.000135434863623601 -0.00027159055659489 -0.000108767897905324 0.000435811800496762 0.000451328994858179 0.000153131876481031
"199" 0.000267995906499419 -0.000151739897778537 -0.000248661221901056 -1.95332415089508e-05 -0.000318275211265354 0.000143256391006671 -0.000198954984725655 1.56216539657262e-05 0.000277550781816978 -0.000380971187450838 0.000132567721958826 -0.000278523113907803 -0.000122621687479716 0.000409106264524503 0.000439574425022605 0.000154166297825453
"200" 0.000258864871852673 -0.000154521985753951 -0.000244134931281258 -2.22707104000711e-05 -0.000316916430689515 0.000145706038658064 -0.000207090737914439 1.35611083330932e-05 0.000263128903894465 -0.000387896493083228 0.00012974644591612 -0.000285693335006314 -0.000137405394090141 0.000382032788090011 0.000427744049134776 0.000154634772812242
"201" 0.000254172160180941 -0.000154041272232907 -0.000237870547641132 -2.31920714930428e-05 -0.000315396234968764 0.00014747085655432 -0.000215335944384996 1.12277348025076e-05 0.000249076650351046 -0.000394514860919874 0.000126975448027462 -0.000293081161155777 -0.000153031474194029 0.000354821615186564 0.000415894090988767 0.000154516617552772
"202" 0.000253768097611235 -0.000150465437593814 -0.00022998157915881 -2.23875307495146e-05 -0.000313764893522763 0.000148452837298948 -0.000223693988254605 8.5765722307932e-06 0.000235492775915817 -0.00040080114077175 0.000124247149456277 -0.000300649771414212 -0.000169394376159227 0.000327694079053758 0.000404072024987311 0.000153795352019399
"203" 0.000257457682930967 -0.000143975021848068 -0.000220601307558339 -1.99691253109557e-05 -0.00031207953985794 0.000148557824784521 -0.000232186512581482 5.56266901512976e-06 0.00022246917339474 -0.000406739675775418 0.000121559270997001 -0.00030837057354502 -0.000186395453891471 0.000300873327838328 0.000392332205997005 0.000152458773064134
"204" 0.000265021009495696 -0.000134787926860749 -0.000209870179718882 -1.60575541424953e-05 -0.000310396080344394 0.000147700578005236 -0.000240820596641682 2.14329139323369e-06 0.000210092546669501 -0.00041231690469644 0.000118902173040001 -0.00031621345753723 -0.000203924001344711 0.00027456460980558 0.000380721709179272 0.000150489907585353
"205" 0.00027619817569178 -0.000123136290697552 -0.000197950758144269 -1.07912753037581e-05 -0.000308775400746232 0.000145800471685167 -0.000249614887262373 -1.71305081377383e-06 0.000198439642711744 -0.000417521191889262 0.000116268729648929 -0.000324141670109902 -0.000221864984285032 0.000248981012046498 0.000369284228382919 0.00014788626008981
"206" 0.000290701953711694 -0.000109280005431726 -0.000185011155184126 -4.31902916534145e-06 -0.000307280164868588 0.000142784911083814 -0.000258578355398392 -6.03876550599055e-06 0.000187581012986977 -0.000422353538210981 0.000113644218217588 -0.000332121094489929 -0.00024010504396242 0.000224314737965128 0.000358059929818196 0.00014463649489214
"207" 0.000308212497284112 -9.34943955051196e-05 -0.000171230613315059 3.19369817159877e-06 -0.00030596981476874 0.00013859411264146 -0.000267726077436305 -1.08606202001683e-05 0.000177579147597964 -0.000426805090525714 0.000111018148634521 -0.000340112191694499 -0.000258529579428721 0.000200747229347278 0.00034709167412832 0.000140742782164088
"208" 0.000328394803859903 -7.60713315726159e-05 -0.000156797536978538 1.1577658475219e-05 -0.000304906915273803 0.000133174735640355 -0.000277063887365949 -1.61919752235342e-05 0.000168481390900588 -0.000430880237149386 0.000108373970038827 -0.000348078965734444 -0.000277019976865792 0.000178449885279443 0.000336413142768532 0.000136207203678225
"209" 0.000350874157482027 -5.73158194303662e-05 -0.000141906084204732 2.06538905338241e-05 -0.000304153000998476 0.000126487725928727 -0.00028660391672853 -2.20490838082417e-05 0.000160335575547249 -0.000434586252084918 0.000105698487936206 -0.000355979312933336 -0.00029545803851587 0.000157581344311342 0.000326055920720118 0.000131035177708541
"210" 0.000375274820252298 -3.7544924420571e-05 -0.000126755679171254 3.02366964583722e-05 -0.000303767746642336 0.000118506562772706 -0.000296355610438372 -2.84319092803224e-05 0.000153171338677876 -0.000437933521584092 0.000102973883315082 -0.000363771295359571 -0.000313726988314252 0.000138286699259759 0.000316052203521031 0.000125240298530721
"211" 0.000401196200958414 -1.7083079816852e-05 -0.000111544175952522 4.01370842018095e-05 -0.000303806194195883 0.000109217818471381 -0.000306314378634696 -3.53411669143457e-05 0.000147008363181327 -0.000440929355866687 0.000100183082873376 -0.000371412016405981 -0.000331714073476242 0.000120683610937416 0.000306428428536529 0.000118839231657157
"212" 0.000428225405061665 3.74260173915536e-06 -9.64732160328765e-05 5.01633343919729e-05 -0.00030431664705434 9.86193158262507e-05 -0.000316488279142252 -4.27626585669991e-05 0.00014186032794286 -0.000443592791656544 9.7309516241066e-05 -0.000378859763658283 -0.000349307091983285 0.000104888312030033 0.000297209236283337 0.000111853598723251
"213" 0.000455944035492729 2.46033695974386e-05 -8.1735590037702e-05 6.01268646366711e-05 -0.000305351527398965 8.67255406054353e-05 -0.000326871778270409 -5.06800454264897e-05 0.000137731484584577 -0.000445939301397118 9.43387781403109e-05 -0.000386067721336913 -0.000366396401428831 9.09871513367859e-05 0.000288418595915303 0.000104311026687577
"214" 0.000483932555108385 4.51739418388361e-05 -6.75244077675552e-05 6.98410834290609e-05 -0.000306951181016572 7.35622329574831e-05 -0.000337462536719801 -5.90678381703499e-05 0.000134606658196845 -0.000447994449195895 9.12563036031033e-05 -0.000392989265375109 -0.000382879273314709 7.9056747196843e-05 0.000280069827734592 9.62415632182748e-05
"215" 0.000511770510906634 6.51393295331128e-05 -5.40246722170645e-05 7.91243964318883e-05 -0.000309149046646959 5.91741286419128e-05 -0.000348245966009549 -6.78923239455269e-05 0.000132472622268784 -0.000449776267577861 8.80415488443458e-05 -0.000399579699368712 -0.000398659425515346 6.9148330370804e-05 0.000272186269023805 8.76828173881733e-05
"216" 0.000539040648777009 8.41875597685838e-05 -4.14107008742905e-05 8.77996992188257e-05 -0.000311982978483114 4.36140505801004e-05 -0.000359214055465542 -7.71109701578506e-05 0.00013129752810443 -0.000451312907294458 8.46881921761924e-05 -0.000405792694258214 -0.00041364114315413 6.13047192133239e-05 0.000264778338707206 7.86797915946577e-05
"217" 0.000565346259922837 0.00010202802185986 -2.984213260783e-05 9.57011044062789e-05 -0.000315467697508512 2.69505034987294e-05 -0.000370345655329865 -8.66808863323182e-05 0.000131043391634978 -0.000452628259819621 8.11793660056858e-05 -0.000411583462651726 -0.000427740727073311 5.55397097397841e-05 0.000257857862707993 6.92772405276083e-05
"218" 0.000590298059357628 0.000118383300488718 -1.94703532230803e-05 0.000102679319371279 -0.000319622952155419 9.26669182516727e-06 -0.000381625999577616 -9.65458438318545e-05 0.000131665328147471 -0.000453753687951201 7.75085578369978e-05 -0.000416907219043514 -0.000440879121293602 5.18522694155927e-05 0.000251437216637479 5.95265845157616e-05
"219" 0.000613532618533192 0.000132997491902172 -1.04266334313915e-05 0.000108590333264568 -0.00032445716548045 -9.34783826939304e-06 -0.00039302731898249 -0.000106647539700381 0.000133107762108113 -0.000454714670724624 7.36645868011349e-05 -0.000421721263487318 -0.00045298777334935 5.02265738188774e-05 0.000245521381636033 4.9482708799828e-05
"220" 0.000634702640075824 0.000145645322918473 -2.82569409190333e-06 0.000113311041178017 -0.000329973090976689 -2.87871132291465e-05 -0.000404527239124644 -0.000116920994379843 0.000135305924028407 -0.000455541022406686 6.96433559869105e-05 -0.000425983289729084 -0.000464003859197248 5.0624982275329e-05 0.000240117470975654 3.92075255458499e-05
"221" 0.000653499609702856 0.000156118593824293 3.23702682231143e-06 0.00011673260967334 -0.00033616216967978 -4.89374877803554e-05 -0.000416089666082152 -0.00012729830763864 0.000138192203354546 -0.000456262386692616 6.54411759692375e-05 -0.000429652206849929 -0.00047387379330227 5.29973211717624e-05 0.000235227068169741 2.87610863895073e-05
"222" 0.000669645602863743 0.000164243852745808 7.68294839521922e-06 0.000118765466323235 -0.000343010566276118 -6.96776574441751e-05 -0.000427690670600283 -0.000137706016093424 0.0001416887699488 -0.000456910661145001 6.1055545249755e-05 -0.00043269420632443 -0.000482557139931689 5.72705218243221e-05 0.000230855363855741 1.82091319336935e-05
"223" 0.000682896764082302 0.000169881430260662 1.04608206675213e-05 0.000119342879663846 -0.000350498817636131 -9.08781482280982e-05 -0.000439291022456874 -0.000148071602767545 0.000145714005626428 -0.000457513333682021 5.64864025525096e-05 -0.000435072599284464 -0.000490019444225741 6.33615883198996e-05 0.000227001561476568 7.62266608820244e-06
"224" 0.00069305144408433 0.000172923774501629 1.15381695764848e-05 0.000118412231811081 -0.000358596240227705 -0.000112403432567809 -0.000450854630582718 -0.000158315269357925 0.000150183387905264 -0.000458099673989109 5.17401848845665e-05 -0.000436762940686657 -0.000496240546933289 7.1168833695003e-05 0.000223656495674968 -2.93564907577099e-06
"225" 0.000699946128874911 0.000173296969271591 1.09038070076927e-05 0.000115946744355732 -0.000367275719750707 -0.000134115297634404 -0.000462345306217262 -0.000168358502479944 0.00015500239274904 -0.000458696451056552 4.68241320083704e-05 -0.00043773167996965 -0.000501204242220823 8.05796604457721e-05 0.000220827645626407 -1.33873441223508e-05
"226" 0.000703469519441297 0.000170962259317862 8.5711543140063e-06 0.000111938956008947 -0.000376485825857119 -0.000155870252297308 -0.000473720836828485 -0.000178125488840133 0.000160084471737574 -0.000459329030314856 4.17446500542816e-05 -0.000437965067494953 -0.000504908777868374 9.14653979813875e-05 0.000218504597275782 -2.36673222825927e-05
"227" 0.000703543608968719 0.000165918711451963 4.57680451645767e-06 0.000106405361627888 -0.000386186496245266 -0.000177526477911466 -0.000484944664980111 -0.000187539353845558 0.000165329011577565 -0.000460026281730687 3.65121564307195e-05 -0.000437442738051479 -0.000507364339035555 0.000103684794789456 0.00021667652846415 -3.37039240439629e-05
"228" 0.000700153429716697 0.000158202767466812 -1.02577305944511e-06 9.93816998684687e-05 -0.000396328349177349 -0.000198939842186459 -0.000495977589589553 -0.000196521675692706 0.000170647016783586 -0.00046080988144356 3.11448687256337e-05 -0.000436153653562563 -0.000508588115322056 0.000117098037259761 0.000215342225383561 -4.34238081344513e-05
"229" 0.000693313155428538 0.000147884822226609 -8.15533933159665e-06 9.09261616883404e-05 -0.0004068499544248 -0.000219969003197407 -0.000506780338943534 -0.000205000184910068 0.000175937323680217 -0.000461701752468577 2.56539944249082e-05 -0.000434096900804031 -0.000508612591563844 0.000131538216465069 0.000214485607097151 -5.2763388401422e-05
"230" 0.000683095194669981 0.000135066272086368 -1.67134842338312e-05 8.11170140755003e-05 -0.000417694836231686 -0.000240478856233822 -0.000517314888367642 -0.000212908083737332 0.000181108116517024 -0.000462721659205858 2.00621461225492e-05 -0.000431270753422229 -0.000507471104687956 0.000146843710010696 0.000214099819915887 -6.16522385347165e-05
"231" 0.000669610562100646 0.000119884104211802 -2.6586633948388e-05 7.00517401283384e-05 -0.000428801162578172 -0.000260333883457644 -0.000527541248307844 -0.000220179450359939 0.000186067734447529 -0.000463883398848973 1.43869303775568e-05 -0.00042768426801357 -0.000505214440680122 0.000162846930520581 0.000214170960108158 -7.00292650444856e-05
"232" 0.000653016855648303 0.000102505298066386 -3.76407853153925e-05 5.78457354311313e-05 -0.000440102588413151 -0.000279408549839573 -0.000537425662383926 -0.000226754141164487 0.000190729954405404 -0.000465206751682453 8.65027312946318e-06 -0.000423348895402436 -0.000501899507167047 0.00017937107775931 0.000214684975502037 -7.78317355424493e-05
"233" 0.000633500838099887 8.31238462282591e-05 -4.97275615872428e-05 4.46304567049473e-05 -0.000451536641524329 -0.000297586066396279 -0.000546937742149031 -0.000232579440241234 0.000195005768571101 -0.000466704379657828 2.8790497708029e-06 -0.000418290109658206 -0.000497594947257775 0.000196235528601957 0.000215622344826459 -8.50084836221519e-05
"234" 0.000611300803194909 6.1956918167151e-05 -6.26856017041651e-05 3.05499512414183e-05 -0.000463037097226556 -0.000314752241802357 -0.000556044540325774 -0.000237611435681696 0.000198819776576213 -0.00046838045510633 -2.90585893108803e-06 -0.000412532767054076 -0.000492371524068169 0.000213263133551021 0.00021697121744289 -9.1503716551363e-05
"235" 0.000586675208472069 3.9242602415385e-05 -7.63439008869334e-05 1.57679260542554e-05 -0.000474534830092099 -0.000330808945632639 -0.000564717190252374 -0.00024180750256361 0.000202094553982173 -0.000470247288226023 -8.67547132619729e-06 -0.000406111073917634 -0.00048631367389339 0.000230273979581702 0.000218714769312428 -9.72711915616619e-05
"236" 0.000559923501856159 1.52421243383001e-05 -9.05243939617052e-05 4.52826165808131e-07 -0.000485970912979939 -0.000345666623753133 -0.000572931303989231 -0.000245139741452549 0.000204765441467141 -0.000472307451484164 -1.44051226138356e-05 -0.000399065858917478 -0.000479510202276213 0.00024709705950509 0.000220829800939256 -0.000102269809110964
"237" 0.000531362326023906 -9.7745055595774e-06 -0.000105041161996456 -1.52190249116609e-05 -0.000497280414741071 -0.000359247198773036 -0.000580666753446878 -0.000247585775849138 0.000206771743086593 -0.000474565926008152 -2.00665516964101e-05 -0.000391445894792862 -0.00047205468271925 0.000263557317218334 0.000223299653500611 -0.000106466099441286
"238" 0.000501329351640058 -3.55228338761827e-05 -0.000119706131416478 -3.10594184010946e-05 -0.000508401909605075 -0.000371483868601659 -0.000587906355311679 -0.000249132120357941 0.000208061329160175 -0.000477014679554852 -2.56305879275835e-05 -0.000383304788411532 -0.000464046876064055 0.000279486941850829 0.000226099838027715 -0.000109831950149118
"239" 0.000470184015804508 -6.17143386790654e-05 -0.000134333220180784 -4.68801936554835e-05 -0.000519284918097997 -0.000382326745845658 -0.00059463863522635 -0.000249775398803736 0.000208586517290623 -0.000479656098156475 -3.1071721472879e-05 -0.000374701573700679 -0.000455593239890807 0.000294728790200587 0.000229210722854244 -0.000112342079481347
"240" 0.000438286503803375 -8.80539186330811e-05 -0.000148734770393645 -6.24908072228465e-05 -0.00052987295776021 -0.000391738443820682 -0.000600853571424268 -0.000249518192089043 0.000208316614220397 -0.00048248315265159 -3.63634280885966e-05 -0.000365704953933548 -0.000446799998688669 0.000309129553874887 0.000232610270072885 -0.000113985210099392
"241" 0.000406014997281934 -0.000114248834137564 -0.000162728335487536 -7.77004064579088e-05 -0.000540121498651248 -0.000399691405640893 -0.000606546693581493 -0.000248378827304336 0.000207223034469173 -0.000485485601037426 -4.14788127259717e-05 -0.0003563845917026 -0.000437781495251554 0.000322549427979526 0.000236274204515803 -0.00011475406528501
"242" 0.000373739307542274 -0.000140009104466149 -0.000176140523722958 -9.23191867419515e-05 -0.000549991366609966 -0.000406179229614689 -0.0006117174686833 -0.000246379046716329 0.000205288568101899 -0.000488654352728681 -4.63920286795851e-05 -0.000346820239689685 -0.00042864543758066 0.00033485957497164 0.00024017558379688 -0.000114649697648922
"243" 0.000341838212053068 -0.000165054487594668 -0.000188805256074307 -0.000106165171620234 -0.00055944602465121 -0.000411206055438237 -0.000616372881978581 -0.000243553990749587 0.000202507197582275 -0.00049197706413302 -5.10796708899856e-05 -0.000337090416248249 -0.000419512564457583 0.000345940474924473 0.000244288735459354 -0.000113679061005659
"244" 0.000310668297722472 -0.000189111628136214 -0.000200570973779573 -0.000119063252160482 -0.000568459940179119 -0.000414790452570561 -0.000620525545429978 -0.000239947537581441 0.000198877696234823 -0.000495437310858971 -5.55185906606219e-05 -0.000327277961682293 -0.000410490479996181 0.000355690624019497 0.000248587632070013 -0.000111860374359821
"245" 0.000280589625419178 -0.000211924595952448 -0.000211296823630244 -0.000130845864819722 -0.000577004874493182 -0.000416969254006998 -0.000624185381874135 -0.000235606034692941 0.00019441249845428 -0.000499023408506186 -5.96915050969088e-05 -0.000317477422932274 -0.000401692795703796 0.000364013625506875 0.00025304526485794 -0.000109215512949588
"246" 0.000251934688766007 -0.000233250449213243 -0.000220855303786662 -0.000141357630211006 -0.000585073882756208 -0.000417788039357364 -0.000627376174661601 -0.00023059445024776 0.000189128781871765 -0.000502712977230175 -6.35793483283307e-05 -0.000307777443624083 -0.000393235394619491 0.00037083748109159 0.000257630807278315 -0.000105783377527
"247" 0.000225025912218583 -0.000252865297349587 -0.000229142044733316 -0.000150456312340972 -0.000592655224384538 -0.000417311284213606 -0.000630121496831364 -0.000224977569529057 0.000183056221488795 -0.000506487412149109 -6.71670223530032e-05 -0.000298269266375407 -0.000385219992994162 0.000376102371564299 0.00026231692695648 -0.000101598464767712
"248" 0.000200159849968523 -0.000270570898100519 -0.000236064053928897 -0.000158011374495371 -0.000599753787291149 -0.000415614077620311 -0.000632452671234779 -0.000218827848828162 0.000176231744331975 -0.000510331928060599 -7.04388375571907e-05 -0.000289049417769324 -0.000377754836973319 0.000379762238404679 0.000267070585480654 -9.67136370155137e-05
"249" 0.000177604197448417 -0.000286184536227424 -0.000241553245314679 -0.000163912975490859 -0.000606373201924291 -0.000412785611421844 -0.000634405686142491 -0.000212229652868376 0.000168699839076977 -0.000514219517195132 -7.33888038277135e-05 -0.000280210075684901 -0.000370937494244289 0.000381790501486406 0.000271866206699836 -9.11827600351702e-05
"250" 0.00015760279925351 -0.000299554185066121 -0.000245557598280491 -0.000168066877622209 -0.000612531598900308 -0.000408924722569452 -0.000636016386804986 -0.000205265583856389 0.000160507830242917 -0.00051813517377826 -7.6010064087008e-05 -0.000271847676319099 -0.000364860816385852 0.000382169198635254 0.000276666202363885 -8.50702910895063e-05
"251" 0.000140369905030783 -0.000310551581213127 -0.000248045867820059 -0.000170391968064924 -0.000618247468427834 -0.000404143901644258 -0.000637330344496146 -0.000198026524308787 0.000151717975243517 -0.000522054833148806 -7.82963135803139e-05 -0.000264050043483562 -0.000359616852452862 0.000380903596176402 0.000281439849180786 -7.84461286190359e-05
"252" 0.00012608160968398 -0.000319071275422936 -0.000249012979200458 -0.000170833814487196 -0.000623555101176909 -0.000398565423523656 -0.000638393898080921 -0.000190605114316224 0.000142389697606685 -0.000525961662508595 -8.0249997877025e-05 -0.000256909290982435 -0.000355281811741833 0.000378012373067127 0.000286157321738056 -7.13868611220986e-05
"253" 0.000114889983119635 -0.000325043822726855 -0.000248470126454135 -0.000169354314440402 -0.000628485309978561 -0.000392315720324761 -0.000639258456397026 -0.00018309604760903 0.000132593644737882 -0.000529829165639936 -8.18706237256516e-05 -0.000250507596918983 -0.000351927975584477 0.000373525796657044 0.00029078401712641 -6.39728851814705e-05
"254" 0.000106905416875227 -0.000328422628037726 -0.000246448368446573 -0.000165937297541981 -0.000633085033609929 -0.000385533537621367 -0.000639976491742594 -0.000175597835928391 0.000122401948581947 -0.000533639573728219 -8.31680474362909e-05 -0.000244927909800992 -0.00034962087785178 0.000367492778565259 0.000295288604934115 -5.62907731381719e-05
"255" 0.000102194909011224 -0.000329188586956439 -0.000243005761118202 -0.000160583607139756 -0.000637401014366446 -0.000378361963121292 -0.000640605059268421 -0.000168204580565176 0.000111891285440783 -0.000537377658049865 -8.41505962621442e-05 -0.000240243053333532 -0.000348413711580693 0.000359973803159125 0.000299636430209061 -4.84309205457179e-05
"256" 0.00010080699878178 -0.000327352262315837 -0.000238212586100762 -0.000153320852188613 -0.000641479217402242 -0.000370945905992769 -0.00064119799206109 -0.000161013578657339 0.00010113830696028 -0.000541021782263332 -8.48287427851181e-05 -0.000236521157879342 -0.000348350762471699 0.00035103937679537 0.00030379799016901 -4.04871163951533e-05
"257" 0.000102735857584937 -0.000322952928734893 -0.000232166250391232 -0.000144189464466751 -0.000645381013091003 -0.00036343648528314 -0.000641818243013401 -0.000154114865452301 9.02226284265542e-05 -0.000544553190876746 -8.5221376181836e-05 -0.000233819307235594 -0.000349466251612043 0.000340773358941235 0.00030774059149733 -3.25524154842789e-05
"258" 0.000107951638113557 -0.000316055267583924 -0.000224973156544972 -0.000133259182931149 -0.000649163825273551 -0.000355979336828415 -0.000642523723484504 -0.000147598879239159 7.92272256577675e-05 -0.000547960709052025 -8.53425005554321e-05 -0.000232189776063482 -0.00035178316452255 0.000329273018222507 0.000311434502708418 -2.47226239994673e-05
"259" 0.000116379263419455 -0.000306750817541011 -0.000216764830107058 -0.000120609941135438 -0.000652888361914353 -0.000348725312766292 -0.000643370729390127 -0.000141547094499752 6.82292419021714e-05 -0.00055122723735883 -8.52149757646075e-05 -0.000231671151367841 -0.000355311911258928 0.000316639990400812 0.000314853057785502 -1.70939499450418e-05
"260" 0.000127910271724298 -0.000295157215758463 -0.000207682715454402 -0.000106347956849708 -0.000656620265347024 -0.000341817533787426 -0.000644416545466746 -0.000136039668053583 5.73129636531351e-05 -0.000554338536557107 -8.48606070723449e-05 -0.000232293569073201 -0.00036005200058172 0.000302989592398457 0.0003179714128142 -9.75927039630969e-06
"261" 0.000142410157782994 -0.00028141430489999 -0.000197880674422579 -9.05927931632659e-05 -0.000660421202617342 -0.000335395403390895 -0.000645713859723711 -0.000131144689575778 4.65561015283428e-05 -0.000557285767257198 -8.43048502820422e-05 -0.000234074582097454 -0.000365990118748998 0.000288436509347412 0.000320762235439238 -2.80969118938731e-06
"262" 0.000159702942815609 -0.00026568392419684 -0.000187529374478878 -7.34785193941254e-05 -0.000664355293890184 -0.000329593267776382 -0.000647317758597413 -0.000126927016118094 3.6030410728892e-05 -0.000560054707374072 -8.35726104143296e-05 -0.000237016264911961 -0.00037309959636967 0.000273113623336109 0.000323211286694515 3.6702469099686e-06
"263" 0.00017958233353874 -0.000248148974951738 -0.00017680061549463 -5.51607212336564e-05 -0.000668484832186179 -0.000324532704466746 -0.00064927478840249 -0.000123438249661992 2.58131973234658e-05 -0.000562640281189993 -8.26886060090387e-05 -0.000241114335401464 -0.000381348547464296 0.000257141263000399 0.000325293852565935 9.59987466593683e-06
"264" 0.000201823062224454 -0.00022900910244148 -0.000165881131383186 -3.58009766389812e-05 -0.000672869071442157 -0.00032032900095383 -0.000651623959423133 -0.000120721741986799 1.59729045742397e-05 -0.000565031218496657 -8.1680283776208e-05 -0.00024634436350643 -0.000390678923909491 0.000240661953289892 0.00032700080961129 1.49062698243885e-05
"265" 0.000226163787604983 -0.000208480108676007 -0.000154954995349196 -1.55771321600679e-05 -0.000677566853927402 -0.000317082501195707 -0.000654405725491358 -0.000118810407602303 6.57416628471104e-06 -0.000567225163038581 -8.0577945602298e-05 -0.000252673346988796 -0.000401037477406851 0.0002238033625189 0.000328323928784036 1.95196645946284e-05
"266" 0.000252324558371896 -0.000186791014481926 -0.00014421267114023 5.32829345684726e-06 -0.000682628847378782 -0.00031487997617014 -0.000657652931697476 -0.000117726566870211 -2.32302204764607e-06 -0.000569215698341433 -7.94061420311992e-05 -0.000260048134015917 -0.000412346633417804 0.000206709510350167 0.000329256402663112 2.3387245649329e-05
"267" 0.000280005836550824 -0.00016417922703791 -0.000133842469829647 2.67207464443623e-05 -0.000688102814677439 -0.000313794197151605 -0.000661386150205018 -0.000117480531980106 -1.06630597417951e-05 -0.000571000293071075 -7.81915597910288e-05 -0.000268408283009222 -0.000424523672090538 0.000189512707887073 0.000329798385320814 2.64588416084238e-05
"268" 0.000308891042036067 -0.000140894299805912 -0.000124031406909874 4.84047442841378e-05 -0.000694031813654979 -0.000313880847340816 -0.000665622597593758 -0.000118071224179847 -1.83966647052897e-05 -0.000572573298473666 -7.69595571275091e-05 -0.000277677650530391 -0.000437474839664294 0.000172348587541386 0.000329958760553059 2.87001690056706e-05
"269" 0.00033865460556203 -0.000117186775406813 -0.000114957229173502 7.01823651625683e-05 -0.000700454209025277 -0.00031518075487495 -0.000670370743047427 -0.000119481658818929 -2.54790925277773e-05 -0.000573938544386196 -7.57335198921512e-05 -0.000287764115118092 -0.000451094190949253 0.000155349700965577 0.000329742646180012 3.00858469992134e-05
"270" 0.000368957404918025 -9.33067608494855e-05 -0.000106795231898724 9.18538647803898e-05 -0.00070739791510403 -0.000317712301196229 -0.000675633472909625 -0.00012169267317455 -3.18743059425478e-05 -0.000575094497130516 -7.45362992767539e-05 -0.000298567926064229 -0.000465269148954174 0.000138648655729382 0.000329169816505033 3.06025934983741e-05
"271" 0.000399455719153843 -6.95075600563437e-05 -9.97029374320648e-05 0.000113221341016461 -0.000714881209689856 -0.000321482908948224 -0.000681402541162561 -0.00012465929952157 -3.75507502500025e-05 -0.000576039680015395 -7.33886343386224e-05 -0.000309973611109329 -0.000479876890835855 0.000122369903953729 0.000328261820955686 3.024801785496e-05
"272" 0.000429805284105846 -4.60344025021973e-05 -9.38320372892949e-05 0.000134095729887389 -0.000722922254655832 -0.00032647383903151 -0.000687662580286225 -0.000128340450373213 -4.24844073962873e-05 -0.000576780596016824 -7.23059773159631e-05 -0.000321855212956744 -0.000494794411885755 0.000106636268285699 0.000327041831114145 2.90369864914948e-05
"273" 0.000459672359030276 -2.31276035750814e-05 -8.93152316114678e-05 0.00015429156866002 -0.00073152861536224 -0.000332652108497734 -0.000694385618556043 -0.000132669023285454 -4.66542214749199e-05 -0.000577317893422604 -7.13072166157629e-05 -0.000334079329833304 -0.00050988156548914 9.15641628550936e-05 0.000325545523304088 2.69903352497931e-05
"274" 0.00048872350105997 -1.01400570215103e-06 -8.62707730782355e-05 0.000173636778449784 -0.000740692681753923 -0.000339968000526666 -0.000701542438764754 -0.000137579603159877 -5.00528937944242e-05 -0.000577656286102894 -7.04019420022627e-05 -0.000346502858993383 -0.000525004764035827 7.72608369645233e-05 0.000323810212972815 2.4145795561779e-05
"275" 0.000516633059503959 2.00921595816199e-05 -8.47974674445647e-05 0.000191966846464638 -0.000750407349861881 -0.00034834989273245 -0.000709090142868035 -0.000142992930545054 -5.26715899379291e-05 -0.000577799098883218 -6.95991713632266e-05 -0.000358977458288499 -0.000540018145229085 6.38317157777638e-05 0.000321876959702929 2.05515603992523e-05
"276" 0.000543103905670445 3.99930265828048e-05 -8.49761310437288e-05 0.000209135450079194 -0.000760657457302363 -0.00035771539605846 -0.000716985001052746 -0.000148819405683854 -5.45109455079776e-05 -0.000577756271445648 -6.89092676762241e-05 -0.0003713464214199 -0.000554782567007058 5.13667206741606e-05 0.000319791462813052 1.62673714517699e-05
"277" 0.000567842051335825 5.8507656263625e-05 -8.68621015761427e-05 0.000225011554446131 -0.000771414192486028 -0.000367962740638585 -0.000725164911054003 -0.000154962338376654 -5.55808571883653e-05 -0.000577530348968325 -6.83324561978291e-05 -0.000383449608708463 -0.000569152137140543 3.99623052617936e-05 0.000317610043793595 1.13652764283494e-05
"278" 0.000590586855935824 7.54785562601689e-05 -9.04937803815164e-05 0.000239479383919957 -0.000782640402811245 -0.000378975212131495 -0.000733577211048092 -0.000161321550000462 -5.58929703551341e-05 -0.000577132921958716 -6.78706531375406e-05 -0.000395128987521052 -0.000582987034338758 2.96891480306104e-05 0.000315381650767599 5.9208258784545e-06
"279" 0.000611106503195862 9.07713220325823e-05 -9.58858267139284e-05 0.00025244335381083 -0.000794300993878211 -0.000390625094975091 -0.000742146476885597 -0.000167787379674716 -5.54644072130107e-05 -0.000576570654707446 -6.75233049534422e-05 -0.000406216974037336 -0.000596140900268195 2.06208930714377e-05 0.000313169713245882 2.99647544264365e-08
"280" 0.000629182702485605 0.000104271830301558 -0.000103028561428649 0.000263827855750048 -0.000806345210704394 -0.000402777028789539 -0.000750809506852659 -0.000174247395309085 -5.43229060112738e-05 -0.000575851498837086 -6.72831677846038e-05 -0.000416559962834076 -0.000608482996446509 1.28185411183592e-05 0.000311027059481388 -6.21643735444854e-06
"281" 0.000644645611933601 0.000115896276863675 -0.000111896855059859 0.000273580847467022 -0.000818721084907775 -0.000415279292401753 -0.000759485801638866 -0.000180588438271999 -5.24954787142858e-05 -0.000574987125314631 -6.71447778806079e-05 -0.000425995862343797 -0.000619880784178732 6.33280313867379e-06 0.000309025188763149 -1.27120746789771e-05
"282" 0.000657342339233699 0.000125581920314711 -0.000122435506913149 0.00028166911789095 -0.00083136865256327 -0.000427976633995517 -0.000768099811554906 -0.00018669420776589 -5.0014453780207e-05 -0.000573992119083942 -6.7095907064266e-05 -0.000434376639173846 -0.000630209627842311 1.20469967515016e-06 0.000307222802534296 -1.93494805956933e-05
"283" 0.000667167449860044 0.000133297572359455 -0.0001345762503 0.000288081146998916 -0.000844230249881758 -0.000440707501279495 -0.000776569468557925 -0.00019245017269359 -4.69177771760399e-05 -0.000572875774166563 -6.71235731936046e-05 -0.00044155377850479 -0.000639349798215319 -2.53148531072904e-06 0.000305688408775176 -2.60135004675025e-05
"284" 0.000674037396965307 0.000139035327039249 -0.000148224934435773 0.000292829433674897 -0.000857239572712722 -0.000453307950474375 -0.000784817386901735 -0.000197739647492562 -4.32490378313492e-05 -0.000571650704303323 -6.72171278345518e-05 -0.000447390145378806 -0.000647198175350366 -4.85555583454651e-06 0.000304479372169874 -3.25915312844645e-05
"285" 0.000677916493312247 0.000142812826548927 -0.000163275534902248 0.000295944999320295 -0.000870326190386427 -0.000465610984945335 -0.000792758973804143 -0.000202451247969577 -3.90518039469096e-05 -0.000570329277949292 -6.73570470112078e-05 -0.000451760868786518 -0.000653654509043947 -5.75340108516139e-06 0.000303665690586815 -3.89657043407352e-05
"286" 0.000678798023535954 0.000144678932422938 -0.000179606432126113 0.00029748390150456 -0.000883425910599765 -0.000477448493159869 -0.000800320685858426 -0.00020647998686899 -3.43714557320053e-05 -0.000568930915355169 -6.75261541552533e-05 -0.000454546905354913 -0.000658631571042802 -5.22385435715458e-06 0.000303306720070298 -4.50212642873753e-05
"287" 0.000676703276674932 0.000144695356801445 -0.000197074868266531 0.000297516580056972 -0.000896469321524593 -0.00048865861183277 -0.000807422268695781 -0.000209723546443901 -2.92616301995013e-05 -0.000567467124570248 -6.77035740740222e-05 -0.000455652074702312 -0.000662057642963364 -3.274840960519e-06 0.000303460387865218 -5.06418210294454e-05
"288" 0.000671695259298221 0.000142954272315606 -0.000215536592985027 0.000296133189018282 -0.00090939225345638 -0.000499082296435854 -0.000813990311823295 -0.000212089341319148 -2.37720248400841e-05 -0.000565958084001786 -6.78702579627851e-05 -0.000454983515858722 -0.000663868840369253 7.53678043100037e-08 0.000304185201470714 -5.57180180199545e-05
"289" 0.000663869024013317 0.000139564436415161 -0.000234827538221827 0.000293442749366357 -0.000922125472762102 -0.000508566546887698 -0.000819954621280146 -0.00021349108981186 -1.79558651030059e-05 -0.000564413991247513 -6.80045196423151e-05 -0.000452471383138354 -0.000664015770596749 4.80454972421952e-06 0.000305529710217275 -6.01437899046468e-05
"290" 0.000653337940762917 0.00013465517108989 -0.000254788634451463 0.000289567113228601 -0.000934613287443995 -0.000516965456418792 -0.000825254544019003 -0.000213853270965253 -1.18701681632852e-05 -0.000562859927989089 -6.80837221777234e-05 -0.000448062242853805 -0.00066246613467651 1.08746481106537e-05 0.00030754631215763 -6.38169958816782e-05
"291" 0.000640250168283808 0.000128366341063934 -0.000275249364809148 0.000284640987485497 -0.000946797209210261 -0.000524145304747126 -0.000829829191230652 -0.000213110742026582 -5.56722446418313e-06 -0.000561306697937513 -6.8087529146045e-05 -0.000441717868987295 -0.00065920235421295 1.8239199564e-05 0.000310272992061184 -6.66456118508199e-05
"292" 0.000624777524189584 0.000120856481321763 -0.000296035679837661 0.000278814244642816 -0.000958623462283116 -0.000529982562440833 -0.000833628804685704 -0.000211212147718785 8.9662558817316e-07 -0.000559778338722904 -6.79938539599732e-05 -0.000433422594860185 -0.000654219098275014 2.68439679532362e-05 0.00031375043554474 -6.85458321836483e-05
"293" 0.00060711055927754 0.000112286466563978 -0.00031698444944052 0.00027223790618131 -0.000970048989878597 -0.000534365773681274 -0.000836606926489562 -0.000208114653536279 7.46766261076449e-06 -0.000558290016149933 -6.77799625378127e-05 -0.000423175841620172 -0.000647526849421298 3.66292646506771e-05 0.000318005400043019 -6.94408509279282e-05
"294" 0.000587454246432309 0.000102829399444675 -0.000337925360102461 0.000265074996206938 -0.000981032750001278 -0.000537200118424772 -0.000838729949841459 -0.000203794501071143 1.40911316411863e-05 -0.000556858794361268 -6.74251466459345e-05 -0.000411001826114318 -0.000639153289173494 4.75206115507169e-05 0.000323060463581687 -6.92686559006496e-05
"295" 0.000566032066666434 9.26618650688703e-05 -0.000358702107573293 0.000257492553899781 -0.000991545008346385 -0.000538405325929571 -0.000839967068700541 -0.000198235666590092 2.07139253764119e-05 -0.000555506383898774 -6.69113887596515e-05 -0.000396941108842254 -0.000629140230855838 5.94456302520895e-05 0.000328930475159398 -6.79727581811312e-05
"296" 0.000543070666006735 8.19603793239018e-05 -0.000379164188518468 0.000249654993153582 -0.00100155649452481 -0.000537916121541828 -0.000840299331240266 -0.000191442807228369 2.72841683995158e-05 -0.000554249671270312 -6.6218907767026e-05 -0.000381057233858223 -0.000617545679984651 7.23169668826291e-05 0.000335628186869297 -6.55166521887441e-05
"297" 0.000518814311749404 7.0899389538187e-05 -0.000399166197239366 0.00024173036479226 -0.00101105526078362 -0.000535686242469721 -0.000839717092450114 -0.000183429960034791 3.37537484007681e-05 -0.000553105774159277 -6.53352578339741e-05 -0.000363433336816673 -0.000604443200803794 8.60444560955951e-05 0.000343146884049282 -6.18687683888269e-05
"298" 0.000493504477392838 5.96480878083778e-05 -0.000418582082153416 0.000233880954196714 -0.00102002623761583 -0.000531689003803125 -0.000838220537749511 -0.000174234069181516 4.00737347625755e-05 -0.000552091271472607 -6.42409693325279e-05 -0.00034417318578724 -0.000589919727261335 0.000100528793339014 0.000351482513481481 -5.70180063411274e-05
"299" 0.000467376897440955 4.83741971609873e-05 -0.000437293849256839 0.000226267978836597 -0.00102846961808598 -0.000525913835575699 -0.000835818813731902 -0.000163895067804256 4.61970853618263e-05 -0.000551227244402101 -6.29284587558357e-05 -0.000323400968185302 -0.000574077740479183 0.000115669584084474 0.000360610526752157 -5.09661216340747e-05
"300" 0.00044068184667145 3.72321633593069e-05 -0.000455202854401955 0.000219038052363136 -0.00103639492220888 -0.000518370325502464 -0.000832526493871345 -0.000152477615840246 5.20825512693408e-05 -0.000550524008549227 -6.13883407185936e-05 -0.000301257354100158 -0.000557035583295984 0.000131359047372817 0.00037051187013187 -4.37260346173976e-05
"301" 0.000413642043293906 2.63649006201247e-05 -0.000472218867883816 0.00021233812204952 -0.00104380940710678 -0.000509089290333949 -0.000828375569112404 -0.000140057132239999 5.76895602122071e-05 -0.000550004600719465 -5.96130014861917e-05 -0.000277903672066497 -0.000538918883313879 0.000147485463608058 0.000381142219831945 -3.53299783400923e-05
"302" 0.000386488754368267 1.59050046596237e-05 -0.000488276848979957 0.0002062949896432 -0.00105073500403579 -0.000498119447440203 -0.000823402277945681 -0.000126720573017682 6.2979189483e-05 -0.000549678230904347 -5.76028042825167e-05 -0.000253520885424782 -0.000519873490129356 0.000163935363129306 0.000392462372233152 -2.58220538735486e-05
"303" 0.000359437301373483 5.97239083795288e-06 -0.000503321136717571 0.000201028136546632 -0.00105719504710705 -0.000485531146237156 -0.000817654133036062 -0.000112568256880574 6.79162138142336e-05 -0.000549563431410268 -5.5355573460614e-05 -0.00022829971662959 -0.00050005532510526 0.000180588490611677 0.000404415627674881 -1.52641235257737e-05
"304" 0.000332686667889003 -3.3291420487822e-06 -0.000517313563980138 0.000196642141206076 -0.00106322514512078 -0.00047141242062695 -0.000811188736261714 -9.77159278141339e-05 7.24716124440251e-05 -0.000549670851701081 -5.28815387729244e-05 -0.000202450234771696 -0.000479625541633804 0.000197324678400871 0.000416934994121592 -3.7297774893921e-06
"305" 0.000306421678077513 -1.19153381999603e-05 -0.000530237637711426 0.000193225799830004 -0.00106885540850802 -0.000455871786962797 -0.000804073695562107 -8.22864915847329e-05 7.66110550819837e-05 -0.000550017405614879 -5.01873301278238e-05 -0.000176194437491994 -0.000458764130697925 0.000214021414367477 0.000429953493888902 8.68855536746774e-06
"306" 0.000280815113001548 -1.97105427440482e-05 -0.000542087684379081 0.000190850533792862 -0.00107413029054542 -0.000439034181416076 -0.000796387321867548 -6.64105127575078e-05 8.03140224002161e-05 -0.000550610019134887 -4.72864113934077e-05 -0.000149764095857729 -0.000437652701777836 0.000230561891139279 0.000443385564800516 2.1887806513249e-05
"307" 0.000256013879942409 -2.66627389212297e-05 -0.000552874213488087 0.000189571609883655 -0.00107909338864992 -0.000421044116075397 -0.000788209280679974 -5.02308811397724e-05 8.35519383654211e-05 -0.000551464451295551 -4.42015660959705e-05 -0.000123402265846331 -0.000416486636809778 0.00024681353626741 0.000457144562897279 3.57472529601991e-05
"308" 0.000232158039240606 -3.27343318227705e-05 -0.00056262372772061 0.000189424134663737 -0.00108378662003954 -0.000402061632721831 -0.000779637575818084 -3.3891966573366e-05 8.63059482840509e-05 -0.000552588553600601 -4.09521535452842e-05 -9.73559446593606e-05 -0.000395462045756484 0.000262655511681365 0.000471127970530473 5.01384162350451e-05
"309" 0.000209352032742293 -3.79036203060252e-05 -0.000571375212921612 0.000190427219685497 -0.00108825822705414 -0.000382263401935255 -0.000770772512585027 -1.75458118894799e-05 8.85569556641703e-05 -0.000553991512203985 -3.75664407763197e-05 -7.18741875386419e-05 -0.000374783031550056 0.000277967193485044 0.00048523421735478 6.49176775680639e-05
"310" 0.000187690321627531 -4.21643851614344e-05 -0.000579183569648283 0.00019258038944965 -0.00109255706565207 -0.00036183939690419 -0.000761719603774208 -1.34847814711497e-06 9.02944244899414e-05 -0.000555681981691576 -3.40767078467227e-05 -4.7214185398142e-05 -0.000354655194678744 0.000292624548299605 0.00049935074461107 7.99326805046252e-05
"311" 0.000167249841644366 -4.55290314710168e-05 -0.000586105555980161 0.000195862217396005 -0.00109673000852885 -0.000340987648715739 -0.000752593612357436 1.45484922153082e-05 9.14989903269335e-05 -0.000557665170479032 -3.052097582773e-05 -2.36249748667411e-05 -0.000335281621492546 0.00030651379163393 0.000513363757414942 9.50214188405691e-05
"312" 0.000148075006079167 -4.80244806769428e-05 -0.000592215732857716 0.000200236885990856 -0.00110082267997524 -0.000319923334399392 -0.000743515428529985 2.9987882224657e-05 9.2164577094711e-05 -0.000559944619457629 -2.69374396985117e-05 -1.35263157783599e-06 -0.000316866800470798 0.000319516717783312 0.000527144964902753 0.000110016678191417
"313" 0.000130200981807831 -4.96858317205926e-05 -0.000597592367439962 0.000205647986789142 -0.00110487874631497 -0.000298861758277374 -0.00073460625681792 4.48191994586033e-05 9.22836495292304e-05 -0.000562524649266973 -2.33719688443355e-05 1.93654465784258e-05 -0.000299611175707785 0.000331521938295601 0.00054057302720904 0.000124743390962484
"314" 0.000113640894537038 -5.05693043808936e-05 -0.000602320630261051 0.000212024416495514 -0.00110893847401642 -0.000278027487695449 -0.000725989573046685 5.88949660893656e-05 9.18501779925779e-05 -0.00056540350716138 -1.98675475241827e-05 3.83057542810565e-05 -0.000283706076167079 0.000342427835443448 0.00055352286872806 0.000139028186997775
"315" 9.83857527720197e-05 -5.07336468779739e-05 -0.000606487207037086 0.000219279075960634 -0.00111303780507342 -0.000257646897882507 -0.000717791817412041 7.20743077041972e-05 9.0859450486457e-05 -0.000568581506412752 -1.64758055509876e-05 5.52529967516367e-05 -0.000269337776556364 0.000352132051024538 0.000565861507426919 0.000152691485704892
"316" 8.4417625807067e-05 -5.02583914863189e-05 -0.000610181826497854 0.000227311799537678 -0.00111721234688275 -0.000237945919209209 -0.000710133208703097 8.42259663332965e-05 8.93159604351681e-05 -0.000572050020779874 -1.32461686118715e-05 7.00174652579953e-05 -0.00025667472702288 0.000360547106609587 0.000577468385768411 0.000165563689188387
"317" 7.16893613514583e-05 -4.92210777791096e-05 -0.000613498019866366 0.000236005931063508 -0.00112148562214676 -0.000219147308467055 -0.000703139304739754 9.52258233157279e-05 8.72175815849336e-05 -0.000575804522868675 -1.02283642161375e-05 8.24275701563369e-05 -0.000245871562117998 0.000367587903467618 0.000588210161160408 0.000177473312785443
"318" 6.0157561847095e-05 -4.7712275724975e-05 -0.000616520174726876 0.000245237194379952 -0.00112587900964683 -0.000201464828947558 -0.000696925166653712 0.000104964695388386 8.45729517091474e-05 -0.000579830569193188 -7.47722127714349e-06 9.23371816093533e-05 -0.000237066263457738 0.000373190310485801 0.00059797520983433 0.000188261920100837
"319" 4.97559934070158e-05 -4.58264288106178e-05 -0.000619330894365455 0.000254875223208407 -0.00113040355537638 -0.000185107551824822 -0.000691597416157967 0.000113341448761054 8.13887685033455e-05 -0.000584113526241547 -5.04104939490039e-06 9.96245617496136e-05 -0.000230378312439162 0.000377287376046702 0.000606645443176535 0.000197780103542499
"320" 4.04115930248727e-05 -4.36618022684696e-05 -0.000622010835927606 0.000264779273077326 -0.0011350648387375 -0.00017026919690552 -0.000687255796468459 0.000120272366654564 7.76709332492704e-05 -0.0005886311662756 -2.96898669790542e-06 0.000104202840746388 -0.000225902757869273 0.000379832272600359 0.000614114498257146 0.000205888593988076
"321" 3.20436969612825e-05 -4.13170057629986e-05 -0.000624623255795348 0.000274803891681695 -0.00113986202195775 -0.000157126926234773 -0.000683990287892455 0.000125690086732113 7.34392583663631e-05 -0.000593362614563364 -1.30924523608318e-06 0.000106010351894069 -0.000223709146559436 0.000380789152018165 0.000620287278243771 0.000212469520994999
"322" 2.4567784390313e-05 -3.88921943997871e-05 -0.000627227946523524 0.00028480721752844 -0.00114477941282484 -0.000145843815914173 -0.000681876936997202 0.0001295441592968 6.87009639209572e-05 -0.000598278833728716 -1.05865122904698e-07 0.00010502654569955 -0.000223840098055127 0.000380141522113639 0.000625073738034615 0.000217415994550968
"323" 1.78960235111669e-05 -3.64825664400849e-05 -0.000629871471211989 0.000294643523520938 -0.00114979767486542 -0.000136561069488833 -0.000680975914946224 0.00013179415319148 6.34797586418658e-05 -0.000603340526125377 6.03705983587771e-07 0.000101259189520482 -0.000226314476498352 0.000377879773714295 0.000628398798669297 0.000220647261222846
"324" 1.19423169943522e-05 -3.4181239856951e-05 -0.000632580950965377 0.000304173667849703 -0.00115488259118525 -0.000129394131780548 -0.000681336905818422 0.000132428565638138 5.77931995814216e-05 -0.000608516601198133 7.82616472424617e-07 9.47508427855838e-05 -0.000231119712805194 0.000374009519243151 0.000630203284090883 0.000222100651712936
"325" 6.62291883501398e-06 -3.20749240462131e-05 -0.000635373663758884 0.00031326352742132 -0.00115998875886534 -0.000124438378545812 -0.000682986158153592 0.000131442635203772 5.16647820364216e-05 -0.000613758716140719 3.9791037675808e-07 8.55836881106413e-05 -0.000238210421559339 0.000368556953609842 0.000630438349373325 0.000221734834022683
"326" 1.86035885383977e-06 -3.02411485709366e-05 -0.000638243449420621 0.000321786390882958 -0.00116507141948838 -0.000121761256769728 -0.000685933247596582 0.000128858277004964 4.51160798679019e-05 -0.000619020799949565 -5.73390336836401e-07 7.38696431064849e-05 -0.000247521781878856 0.000361556183549536 0.000629068702118067 0.000219533709906018
"327" -2.42183087617484e-06 -2.87462344100459e-05 -0.000641166992268795 0.000329625735050202 -0.00117005762262501 -0.000121398388872606 -0.000690170005559453 0.000124714951018219 3.81771907501666e-05 -0.000624248857379401 -2.15039809947386e-06 5.97587497791336e-05 -0.000258950869131405 0.000353060169252787 0.000626077616294604 0.000215507266485293
"328" -6.27981353786457e-06 -2.76502060324846e-05 -0.000644102019462748 0.000336680430627378 -0.00117487534755347 -0.000123365551003322 -0.000695667535422199 0.000119064220941124 3.08724116000348e-05 -0.00062938927465842 -4.34937955321074e-06 4.34300850174461e-05 -0.000272368354323775 0.000343132500405279 0.000621460130443482 0.00020968689688354
"329" -9.76313148448656e-06 -2.69935556642034e-05 -0.000646982848563488 0.000342861274504056 -0.00117943836486355 -0.000127640590746037 -0.000702378931292941 0.000111980168860311 2.323534173548e-05 -0.0006343812977223 -7.17630092210529e-06 2.50921452946763e-05 -0.0002876255216931 0.000331854614256042 0.000615227389924858 0.000202126622731485
"330" -1.29011409173402e-05 -2.68029359567444e-05 -0.000649720909013484 0.000348100256605091 -0.00118364969123765 -0.000134181580747472 -0.000710234906709079 0.000103555114643605 1.52925269510091e-05 -0.000639161223646707 -1.06352434666594e-05 4.98658484948245e-06 -0.000304545900618267 0.000319309258652715 0.000607406897847194 0.000192907365811526
"331" -1.57201699262325e-05 -2.70924119906386e-05 -0.000652208444764424 0.000352341342754723 -0.00118740685912669 -0.000142909866534467 -0.000719153578199025 9.38928944422437e-05 7.07934569449352e-06 -0.000643663947969524 -1.47200440063409e-05 -1.66265360146874e-05 -0.000322922812870903 0.000305604910919967 0.000598041068954141 0.000182132897740538
"332" -1.82172073543152e-05 -2.78525463762315e-05 -0.000654315196654733 0.000355552441322032 -0.0011905914435513 -0.000153724575560267 -0.000729021262187429 8.31138189910567e-05 -1.37374424255315e-06 -0.000647822554303109 -1.94226932944531e-05 -3.94596799119367e-05 -0.000342541117123446 0.000290850587403458 0.000587180878389223 0.000169923460941699
"333" -2.03743309734245e-05 -2.90595834277842e-05 -0.000655885429549599 0.000357719987224362 -0.00119307881452055 -0.000166499085880911 -0.000739723999838961 7.13546228397145e-05 -1.00322257329571e-05 -0.00065157161464492 -2.47302214060692e-05 -6.32064206962345e-05 -0.000363161333692485 0.000275162458883414 0.000574898841562855 0.000156419186193282
"334" -2.21601408943824e-05 -3.06706186250273e-05 -0.000656748890976314 0.000358851763379595 -0.00119474227111885 -0.000181081303131918 -0.000751120958322519 5.87624912213882e-05 -1.88639770008662e-05 -0.000654838126930066 -3.06215797177094e-05 -8.7546011087469e-05 -0.000384531151298658 0.000258664100045076 0.000561270080173838 0.000141780912419279
"335" -2.35142200836605e-05 -3.26200047542258e-05 -0.000656712376414681 0.000358975332673045 -0.00119543995795234 -0.000197294140365502 -0.000763064195898256 4.54973646215824e-05 -2.7840314240227e-05 -0.000657554934334516 -3.70739514666238e-05 -0.000112142028161705 -0.000406386695283413 0.000241495047156601 0.000546391235869106 0.00012618386568089
"336" -2.43668468380558e-05 -3.48311613140046e-05 -0.000655569993984611 0.000358140593771647 -0.00119503433682218 -0.000214944449624851 -0.000775387160940542 3.17232752248035e-05 -3.69231825420326e-05 -0.000659655281986388 -4.40608340324478e-05 -0.000136648162724978 -0.000428452033942659 0.000223786352836115 0.000530357514850511 0.000109814226374781
"337" -2.46292668761156e-05 -3.71998194232345e-05 -0.000653097955116507 0.000356418723974021 -0.00119338224446727 -0.000233818982223089 -0.000787916843031227 1.76196635749606e-05 -4.60856195022839e-05 -0.000661074661957656 -5.15530148509075e-05 -0.000160717534041968 -0.000450450460363136 0.000205676967926622 0.000513282315915627 9.28735770097217e-05
"338" -2.41933246062092e-05 -3.96077593457246e-05 -0.000649062006476333 0.00035389564102271 -0.00119033965443565 -0.000253690903692105 -0.000800477697676301 3.36712542184304e-06 -5.52970929168416e-05 -0.000661747083255301 -5.95154859650363e-05 -0.000183989708579285 -0.000472097294512643 0.000187312578736806 0.000495285698114882 7.55689076954317e-05
"339" -2.29310782524542e-05 -4.1920313191849e-05 -0.000643222709196924 0.000350686615794854 -0.00118577081542286 -0.000274320244558458 -0.000812883496660103 -1.08457329249522e-05 -6.45262200920182e-05 -0.000661618791219402 -6.79155976344967e-05 -0.000206113187710991 -0.000493106254655858 0.000168832528699509 0.000476489882441591 5.81194898105315e-05
"340" -2.07089545393129e-05 -4.39862771569964e-05 -0.000635336380492407 0.000346910217972931 -0.00117953672184524 -0.000295459281693808 -0.000824950035529312 -2.48349441209238e-05 -7.37494689176636e-05 -0.000660628241249044 -7.67184022417991e-05 -0.000226729692382785 -0.00051319630305031 0.000150382104432169 0.000457024149411114 4.07411841622726e-05
"341" -1.73828817973515e-05 -4.56386432642286e-05 -0.000625156777374836 0.00034271335636933 -0.00117150903072589 -0.00031685230579904 -0.000836486661542644 -3.84053478963426e-05 -8.29361565978374e-05 -0.000658727971972369 -8.58840140185063e-05 -0.00024549013323234 -0.00053208747744685 0.000132102909144186 0.000437027681002644 2.36610092219149e-05
"342" -1.27939299872919e-05 -4.6704446865607e-05 -0.000612446852092193 0.000338248607704902 -0.001161572742919 -0.000338241533306793 -0.000847316946237786 -5.13732134222955e-05 -9.20647240872431e-05 -0.00065586632944773 -9.53745258576728e-05 -0.000262054656764901 -0.000549500917371668 0.000114138322031322 0.000416636916997641 7.10334185547536e-06
"343" -6.78111214630328e-06 -4.69963788325565e-05 -0.00059697652465132 0.00033368312236718 -0.00114962478620471 -0.000359369860073804 -0.000857261729834142 -6.35540630774818e-05 -0.000101107400579918 -0.000652006563906763 -0.000105151278643703 -0.000276087459732148 -0.000565172008016835 9.66263763755208e-05 0.000395994671629695 -8.7075544957909e-06
"344" 8.19968453641303e-07 -4.63215040522461e-05 -0.000578530547708964 0.000329192728316373 -0.00113557073910802 -0.000379982073868051 -0.000866150842795624 -7.47647920554614e-05 -0.000110045766674309 -0.000647104937281604 -0.00011517356135509 -0.000287267405413224 -0.000578838878922955 7.97083714880955e-05 0.000375246739423427 -2.35472982198102e-05
