"V1" "V2" "V4" "V5" "V7" "V8" "V10" "V11" "V13" "V14" "V15" "V17" "V18" "V20" "V21" "V23"
"1" -9.06328004556992e-06 -9.77746527616654e-06 4.55645305096351e-06 -1.12407004403553e-05 -6.29945734792346e-07 -1.11440488699755e-05 -6.33770530775326e-06 -9.18688739213172e-06 -4.60809614196613e-05 -1.86696749711372e-05 -2.4203518023802e-05 -1.36158087803305e-05 -1.25811636306018e-05 -5.12397450385803e-05 -2.51956492880327e-05 -1.43117119141934e-05
"2" -4.25072266555213e-05 -1.57809720631811e-05 -1.00508110230682e-05 1.90642623133558e-05 1.42998489022617e-05 2.58203620312935e-05 5.26466232301942e-06 1.48914368414082e-05 3.31081093182017e-05 8.2030747346004e-05 6.18383886448364e-05 4.10484595988105e-05 5.20853051745601e-05 -1.34626279336834e-05 3.11829764744734e-05 -1.4782574926645e-05
"3" -7.57402831355685e-05 -2.20121539793759e-05 -2.52323907011997e-05 4.89000732670198e-05 2.81086935870914e-05 6.18292560226372e-05 1.64716482106213e-05 3.80223525889843e-05 0.000115259614117468 0.00018429210051177 0.000149623619717979 9.64803437936737e-05 0.000117048158657955 2.64520943963499e-05 8.84004504126447e-05 -1.51696942512165e-05
"4" -0.000108803932682816 -2.8508982944196e-05 -4.12417266658534e-05 7.81506322235174e-05 4.04609297265023e-05 9.65731728251598e-05 2.70685438193643e-05 5.99005307783124e-05 0.000199806211923288 0.00028766412929242 0.000238611764636198 0.000152395578870168 0.000181856909153098 6.82255362874973e-05 0.000146058066665265 -1.57702847793507e-05
"5" -0.000141760593613715 -3.53132208034373e-05 -5.83223578638922e-05 0.000106709464104402 5.10376402592973e-05 0.000129764693937009 3.68362540396676e-05 8.02323228687094e-05 0.00028610866951253 0.000391666995566934 0.000328216458939748 0.000208495674907835 0.0002460461128744 0.000111521316472437 0.000203720110611839 -1.69053698873485e-05
"6" -0.000174665386536353 -4.24593910322689e-05 -7.66986956709509e-05 0.000134471813335902 5.95458421590934e-05 0.000161128699529834 4.55766356317626e-05 9.87505597612803e-05 0.000373467269233544 0.000495810430950795 0.000417822634287374 0.000264470915303451 0.000309151475416 0.000155974393956833 0.000260948585958526 -1.88845409107456e-05
"7" -0.000207569965776107 -4.99747651788031e-05 -9.65835753923519e-05 0.000161352195608997 6.57240432161348e-05 0.000190421869890971 5.30949133836221e-05 0.000115209093615211 0.000461139257003906 0.000599577914806988 0.000506785368614848 0.000320007927381897 0.000370710395451973 0.000201173582474865 0.000317285024741963 -2.20135911964477e-05
"8" -0.000240538120924786 -5.78851558655556e-05 -0.000118171753582805 0.000187258283887522 6.93326206104422e-05 0.0002174121036375 5.92144712392224e-05 0.000129381405575402 0.000548331338256528 0.000702449088395626 0.000594448007418944 0.000374789473922481 0.000430264685524622 0.000246687117286953 0.000372282662494024 -2.65846343907404e-05
"9" -0.000273610012361007 -6.62055429619855e-05 -0.000141625590829547 0.000212123987153277 7.01612066091532e-05 0.000241902670012352 6.37741711859251e-05 0.00014107209327188 0.000634219706583168 0.000803890938643049 0.000680138571558699 0.000428490702214857 0.000487368772461172 0.000292047128471465 0.000425483588142296 -3.28797073156711e-05
"10" -0.000306836638970896 -7.49508719528719e-05 -0.000167095925436056 0.000235880504133868 6.80256950624366e-05 0.000263711919519017 6.66225521223765e-05 0.000150104173784693 0.000717954501838541 0.00090337179424698 0.000763179667640581 0.000480794496597975 0.000541592679968376 0.000336781287577484 0.0004764383307455 -4.11626271199585e-05
"11" -0.000340252037466771 -8.41240214953184e-05 -0.000194708221658414 0.000258469799470786 6.27714957655376e-05 0.000282685564837486 6.76344233614648e-05 0.000156327211532743 0.000798680805166238 0.00100035723474384 0.000842900328060519 0.000531387056617769 0.000592519353037693 0.000380399315605511 0.000524715738366382 -5.16654262233199e-05
"12" -0.000373884695257512 -9.37284322911191e-05 -0.000224558354580696 0.000279831823545673 5.42739010906037e-05 0.000298694427189173 6.66956621476241e-05 0.000159615940154057 0.000875526529726025 0.00109432586081236 0.000918630571413454 0.00057995640030345 0.000639757394108061 0.00042239224721628 0.000569884236793574 -6.4608894637293e-05
"13" -0.000407754652335087 -0.000103757701157406 -0.000256722145121129 0.000299926257547666 4.24378492546119e-05 0.000311637167633282 6.37168228698563e-05 0.000159878183663528 0.000947637833065748 0.00118475992893022 0.000989725332454421 0.000626202445882947 0.000682944674485745 0.000462268634239212 0.00061153609106422 -8.01834189565834e-05
"14" -0.00044186677641591 -0.000114195091929145 -0.00029124250108258 0.000318709840596402 2.71938615099807e-05 0.000321431313067074 5.86260434494386e-05 0.000157038637739492 0.00101419198146226 0.0012711669885064 0.00105557279348419 0.000669838766339386 0.000721747113227068 0.000499533256824342 0.000649294750001443 -9.85409585413808e-05
"15" -0.00047621281511772 -0.000125023372225964 -0.000328137552708295 0.000336146551049939 8.49873561800835e-06 0.000328028184218579 5.13785772226656e-05 0.000151052963427894 0.00107439151496615 0.00135306873061405 0.00111558729249858 0.000710591846156527 0.000755857663587995 0.000533714008581124 0.000682802075517481 -0.000119806811355555
"16" -0.000510779349552796 -0.000136218406723767 -0.000367401027681188 0.000352201603467138 -1.36593028931515e-05 0.000331397158012125 4.19369231198179e-05 0.000141903378139733 0.00112749404564954 0.00143002087037918 0.00116923283885036 0.000748202924681372 0.000785016516295948 0.00056435492792617 0.000711735291944836 -0.000144074900144722
"17" -0.000545528652591127 -0.000147746616787797 -0.000408992093546677 0.000366853021598875 -3.92607675976423e-05 0.000331536662045904 3.03027256942412e-05 0.000129595667588931 0.00117282129541728 0.00150159964805418 0.00121602456105676 0.00078243396812324 0.000808999912477938 0.000591026908513953 0.00073580347606055 -0.000171398730974895
"18" -0.000580420518742652 -0.000159569852014415 -0.000452846577337814 0.000380075079033118 -6.826539009023e-05 0.000328472786436836 1.64871984908581e-05 0.0001141605257046 0.0012097724536168 0.00156743113945629 0.00125553711005433 0.000813075619715982 0.000827626272718479 0.000613340911928709 0.000754758498302519 -0.0002017967686548
"19" -0.000615392606673445 -0.000171651069710517 -0.000498877372293699 0.000391844368996499 -0.000100608151471769 0.000322245388205235 5.29592784158531e-07 9.5658534740249e-05 0.00123781966674062 0.0016271639677878 0.0012874077614954 0.000839927924231046 0.000840752030266185 0.000630945055504741 0.000768388548699155 -0.000235251059323094
"20" -0.000650365834835378 -0.000183932579408216 -0.000546958148285569 0.000402157317735177 -0.00013618684125255 0.000312930436310655 -1.75146752819616e-05 7.41635422487774e-05 0.00125655183039832 0.00168050709550645 0.0013113574312289 0.000862830889261464 0.000848290892531967 0.00064353669172634 0.000776534237862292 -0.000271701865941834
"21" -0.000685261907554848 -0.000196367799330501 -0.000596952711073829 0.000410990205635224 -0.000174887367539837 0.000300617906658753 -3.75691340350464e-05 4.97844582986175e-05 0.00126564233246227 0.0017272019876797 0.00132717104243015 0.000881645874382595 0.000850198705388249 0.000650860414865611 0.000779074191771969 -0.000311064538605032
"22" -0.000719975105920206 -0.000208896626959824 -0.000648682549984741 0.000418343816119354 -0.000216557932432117 0.000285430879956018 -5.95299200503738e-05 2.26462007536058e-05 0.00126488766962533 0.00176704542823419 0.00133471951995557 0.000896261087008864 0.000846472707499002 0.000652716068383177 0.000775933942534461 -0.000353206627722102
"23" -0.000754398176102 -0.000221456961783184 -0.000701960569025124 0.000424208531336306 -0.000261033757337668 0.000267499997857996 -8.32832646974236e-05 -7.1026737914717e-06 0.00125419946075007 0.0017998919262767 0.00133395890240517 0.000906595679301668 0.000837172700552342 0.000648966691983935 0.00076709686030078 -0.000397969719353441
"24" -0.000788404667539621 -0.000233980511061447 -0.00075656833814225 0.000428589944182438 -0.000308121537012109 0.000246989532150442 -0.00010868997728173 -3.92944443042447e-05 0.00123360650339882 0.00182564256123218 0.00132492868538822 0.000912609761349471 0.000822394151575329 0.000639534333877244 0.000752592045385125 -0.00044514993536303
"25" -0.000821868219826316 -0.000246401700097412 -0.000812267719459 0.000431490479041806 -0.000357602895272516 0.000224080821721668 -0.00013559571941229 -7.37382404569297e-05 0.00120324389845452 0.00184425679246526 0.00130775063043518 0.000914278204250927 0.00080228354156615 0.0006243971074921 0.000732490375185396 -0.000494529549412416
"26" -0.000854652382475098 -0.000258656217575926 -0.000868813848139509 0.00043291143937053 -0.000409251725994839 0.000198965080072373 -0.000163845245448437 -0.000110238575821925 0.00116337237865771 0.00185574267626013 0.00128262316143508 0.000911619769938782 0.00077702678011654 0.000603595751162596 0.000706915017959987 -0.000545857166247916
"27" -0.000886599346065042 -0.000270656317005695 -0.000925921189765707 0.000432885066779083 -0.000462802233901959 0.000171867696357331 -0.000193240076965794 -0.000148559012864004 0.00111436367927482 0.00186017735183234 0.00124983398971111 0.000904687183877985 0.000746866818721093 0.000577245567105555 0.000676046035657094 -0.00059884074654814
"28" -0.000917573909434715 -0.000282341855172286 -0.000983313532297148 0.000431415220272467 -0.000517990925438688 0.0001430171725514 -0.000223594679109313 -0.000188473268088952 0.00105667776340188 0.00185768218730056 0.0012097358511931 0.000893556619392614 0.000712070327114127 0.000545502122786561 0.000640095997059282 -0.000653189779827417
"29" -0.000947419381868846 -0.000293634929191676 -0.00104069430536506 0.000428533438140013 -0.000574520642313778 0.000112660306986923 -0.000254702642129075 -0.000229727591363288 0.000990879847863943 0.00184843203068837 0.00116275160271899 0.00087833592178896 0.000672949955180126 0.000508583146616217 0.000599320257516286 -0.000708580882562557
"30" -0.000975979800661042 -0.000304460874169641 -0.00109775223715596 0.000424277774667938 -0.000632088829352663 8.10589475489131e-05 -0.000286345978503609 -0.00027205629839217 0.000917610252660643 0.0018326567365403 0.00110937085153301 0.000859173593248407 0.000629853617864223 0.000466761227870052 0.00055402477041862 -0.000764675141122346
"31" -0.00100310350724315 -0.000314748088375643 -0.00115417359267706 0.000418687006682024 -0.000690376242233745 4.84881521969299e-05 -0.000318307170514393 -0.000315192339588919 0.000837587115785567 0.0018106322040194 0.00105012639146693 0.00083623333317932 0.000583155488117277 0.000420356837133949 0.000504538742949998 -0.000821129141495228
"32" -0.0010286526087808 -0.000324429811394953 -0.00120964412944896 0.000411807278084848 -0.000749051327191032 1.52281515527281e-05 -0.000350359126868841 -0.000358853391451984 0.000751569198127212 0.00178267116808996 0.000985601218170519 0.000809714538737304 0.000533253473506717 0.000369719927733093 0.000451228565369468 -0.000877587015332518
"33" -0.00105247647816718 -0.00033343553220285 -0.00126384205316823 0.000403700883829223 -0.000807768598819763 -1.84284911571165e-05 -0.00038227589381773 -0.000402749123408732 0.000660370562114158 0.00174913564786964 0.000916412770661709 0.000779833059881122 0.000480569720366967 0.000315243916786877 0.000394487941908895 -0.000933690246174954
"34" -0.00107444888349865 -0.000341702928490808 -0.00131645024139592 0.00039443559076516 -0.000866182007389656 -5.21843566943347e-05 -0.000413828528155229 -0.000446591394648536 0.00056483257655955 0.00171041507907427 0.000843210012494331 0.000746831836998806 0.000425543170428904 0.000257353329232297 0.000334735660964716 -0.000989082588173137
"35" -0.00109444049200265 -0.000349168654889652 -0.00136715236096307 0.000384089581346628 -0.000923931877549038 -8.57370186132046e-05 -0.000444788870471536 -0.000490087749784756 0.000465804344299452 0.00166692755384347 0.000766653138867219 0.000710969855923843 0.000368619994852864 0.000196483153394262 0.000272399941035284 -0.00104341493196633
"36" -0.00111234262651746 -0.000355780675610883 -0.00141564788138605 0.000372752725798163 -0.000980662089980379 -0.000118783169534477 -0.000474939902064899 -0.000532945524315084 0.000364149604912303 0.00161912155439568 0.000687412004819165 0.000672527028735096 0.0003102569532523 0.000133098063872937 0.000207933970377054 -0.00109633943593057
"37" -0.00112805764668734 -0.000361485917377392 -0.00146163806194913 0.000360520927171087 -0.00103600399971985 -0.000151023817115438 -0.000504059571427221 -0.000574873703429642 0.00026070738321847 0.00156745488537372 0.000606155146276749 0.000631790245723684 0.000250909694641941 6.76506863873891e-05 0.000141784602867771 -0.00114752898968835
"38" -0.00114150364896211 -0.000366241855221402 -0.00150484202236698 0.000347508128513413 -0.00108960284827255 -0.000182154498363969 -0.000531949344740018 -0.000615585298410753 0.000156303839818702 0.00151240851416895 0.000523544926453991 0.000589056946308343 0.000191030550188993 6.13100808468422e-07 7.44139072487017e-05 -0.00119667242833783
"39" -0.0011526123872371 -0.000370007792624129 -0.0015449882941454 0.000333835588747385 -0.0011411008852382 -0.000211881102383647 -0.000558406968073809 -0.000654803965079166 5.17308848651993e-05 0.00145445770858689 0.000440229241532708 0.000544635689307925 0.000131066027158214 -6.75571897192585e-05 6.2746628983336e-06 -0.0012434685238512
"40" -0.00116133571778417 -0.000372752732796201 -0.00158183658201627 0.000319630664056186 -0.00119015098462963 -0.000239917869315475 -0.000583252051105431 -0.000692261486895352 -5.22587152041468e-05 0.00139409177185543 0.000356826603248365 0.000498829628931804 7.14471131952127e-05 -0.000136409752714449 -6.21849087417036e-05 -0.00128765478650848
"41" -0.00116764158600088 -0.000374452696612792 -0.00161515707115287 0.000305037366896668 -0.00123641306458515 -0.000265990426300427 -0.000606317967306291 -0.000727703057868171 -0.00015495800087153 0.00133178424281057 0.00027393246345616 0.000451950427046047 1.25926049566185e-05 -0.000205509009542352 -0.000130529700146541 -0.00132898195149527
"42" -0.00117151989712669 -0.000375088773521587 -0.00164474751357033 0.000290204872169341 -0.00127956424082319 -0.00028983820144303 -0.0006274512996583 -0.00076088865486915 -0.000255724435394543 0.00126800876930368 0.000192100943040446 0.000404297846521628 -4.51082969179224e-05 -0.000274445722719836 -0.000198338809849421 -0.00136723675888688
"43" -0.00117297546124039 -0.000374647651610986 -0.00167042520552817 0.000275295076746325 -0.00131929445059631 -0.000311211830728131 -0.000646517644813916 -0.000791590101382869 -0.000353954061279809 0.00120321919834102 0.000111853749008748 0.000356176846675046 -0.000101278070526739 -0.000342824330659554 -0.000265206783781747 -0.00140223081999279
"44" -0.00117204050959548 -0.00037312978543349 -0.0016920441393793 0.000260463619712025 -0.00135531192137156 -0.000329882695232781 -0.000663399964300426 -0.000819600390051515 -0.000449115617470447 0.00113785928759591 3.36719458172881e-05 0.000307873222637509 -0.000155574086903108 -0.000410276705076358 -0.000330754048005471 -0.00143380826016983
"45" -0.00116876096034313 -0.000370542130801642 -0.00170948006459741 0.000245886853430385 -0.00138735514952381 -0.000345647009148997 -0.000678007057013816 -0.000844744815764282 -0.000540739211683215 0.00107234194070733 -4.20160015635126e-05 0.000259660506597703 -0.000207682255963263 -0.000476468558604532 -0.000394627755169057 -0.00146185410165755
"46" -0.00116319819503444 -0.000366890819464292 -0.00172264718724678 0.000231732666314183 -0.00141518414010264 -0.000358318945841272 -0.000690265093986668 -0.000866857197746464 -0.000628407482565396 0.00100706546963502 -0.000114818421433037 0.00021180899170349 -0.000257315274916759 -0.000541083033117834 -0.000456495094856176 -0.0014862756994767
"47" -0.00115543195548077 -0.000362200157554448 -0.00173148499822377 0.000218173638377543 -0.00143858815719258 -0.000367744777375322 -0.000700122389014442 -0.00088580407198122 -0.000711763235826954 0.000942403147839323 -0.000184390443861007 0.000164569987361188 -0.000304219236231875 -0.000603832948920474 -0.000516050754868402 -0.0015070166680136
"48" -0.00114556544909304 -0.000356493420313726 -0.00173596176843208 0.00020538671128295 -0.00145738673106564 -0.00037378797059017 -0.000707547820720781 -0.000901480262575497 -0.000790515339594273 0.000878691268297727 -0.000250437702540273 0.000118173602369186 -0.000348178811174702 -0.000664467268463434 -0.000573026737671954 -0.00152406010064839
"49" -0.00113371575055111 -0.000349811765067538 -0.00173609202416997 0.000193532954437848 -0.00147143649059115 -0.000376354809828042 -0.000712542191694338 -0.000913807945066378 -0.000864423456241657 0.000816239825965484 -0.000312714258332237 7.28335089224996e-05 -0.000389015138635204 -0.000722762413447039 -0.000627179520862577 -0.00153741802484177
"50" -0.0011200083469488 -0.000342191660966444 -0.00173191270789988 0.000182779466047707 -0.00148063006465684 -0.000375374044935746 -0.000715118183735061 -0.000922739502507213 -0.000933297262018966 0.000755337350524702 -0.000371008070657298 2.87477930075629e-05 -0.000426574049128601 -0.000778502355716438 -0.00067829575397478 -0.00154713350930842
"51" -0.00110457620557351 -0.000333678299164613 -0.00172349274446572 0.000173278479016214 -0.00148490045754924 -0.000370805330773329 -0.000715311178414935 -0.000928255146054267 -0.000996988559402618 0.00069623488800407 -0.000425154602416958 -1.39022140650289e-05 -0.000460738392712447 -0.000831515448697957 -0.000726192825999224 -0.00155327664851389
"52" -0.00108757434143506 -0.000324329622364042 -0.00171093846624479 0.000165177877180014 -0.00148421706704898 -0.000362649819879425 -0.000713184925741508 -0.000930372499444941 -0.00105540280350354 0.000639154635559844 -0.00047503213247902 -5.49634457758709e-05 -0.000491436349788349 -0.000881641442797875 -0.000770714102875574 -0.00155595114680985
"53" -0.00106916162972451 -0.000314200209320746 -0.0016943825049586 0.00015860506540107 -0.00147858843924224 -0.000350928940687893 -0.000708815788692815 -0.000929129822565551 -0.00110847903417757 0.0005842914940163 -0.000520555060289321 -9.42901454090722e-05 -0.000518615415369102 -0.000928740483483723 -0.000811740676182919 -0.00155528565119682
"54" -0.00104949586778182 -0.000303351102445588 -0.00167399156275335 0.000153688307775568 -0.00146806919331913 -0.000335710328663354 -0.000702305847786054 -0.000924609174069628 -0.00115618902017254 0.000531813246583294 -0.000561671802837733 -0.000131765983775226 -0.000542257625720709 -0.000972690907184588 -0.000849170652631853 -0.00155143213118001
"55" -0.00102874042512665 -0.000291847991700409 -0.00164995481427242 0.000150525251900872 -0.00145275348776746 -0.000317084181106901 -0.000693767254528609 -0.000916907092259923 -0.00119854135400789 0.000481859609219687 -0.000598366460229716 -0.000167284717090581 -0.00056238069336577 -0.001013393037788 -0.000882931991450018 -0.00154455873611399
"56" -0.00100707433449757 -0.000279763913690151 -0.00162249336236217 0.000149201373365086 -0.00143277831067751 -0.000295180151619222 -0.000683342007407827 -0.000906163081066338 -0.00123556805463167 0.00043454128805791 -0.000630649158114649 -0.000200763052765111 -0.000579026240638571 -0.00105075176454755 -0.000912982977110786 -0.0015348679260215
"57" -0.000984660350662208 -0.000267164166495423 -0.001591843320967 0.000149789837237836 -0.0014083092040808 -0.000270151107785485 -0.000671165082642675 -0.000892533151325753 -0.00126732621364761 0.000389946872605497 -0.000658567092096857 -0.000232132467417336 -0.00059226468689376 -0.00108469842940698 -0.000939297927329356 -0.0015225615251487
"58" -0.00096166306295174 -0.000254124678049366 -0.00155827115653411 0.000152336897516691 -0.00137956249911566 -0.000242183245508524 -0.000657407271562806 -0.000876201191451807 -0.00129389331474619 0.000348142307199854 -0.000682179666065821 -0.000261339114250614 -0.000602183837950341 -0.00111515954241503 -0.000961880991620312 -0.00150786657100301
"59" -0.000938248682947708 -0.00024071778213188 -0.00152205296463379 0.000156871029191045 -0.00134678154908847 -0.000211488713359919 -0.000642234369108184 -0.000857375407349461 -0.0013153725164553 0.000309171131366989 -0.000701586109952046 -0.000288351460971425 -0.000608908550521332 -0.00114209091203073 -0.000980753448579821 -0.00149101553854651
"60" -0.000914572407702533 -0.000227011573851314 -0.00148348812202711 0.000163408442474335 -0.00131024424786147 -0.000178302406818482 -0.000625826303193284 -0.000836278602154574 -0.00133187619135568 0.000273055420962954 -0.000716892163634988 -0.000313147327647304 -0.000612568835464029 -0.00116544866321542 -0.000995959427405814 -0.00147225324695046
"61" -0.000890787779995699 -0.000213077287334361 -0.00144287814290851 0.000171941568533511 -0.00127025483255585 -0.000142877980974966 -0.000608368765259753 -0.000813155461906787 -0.00134354182714656 0.000239795055932492 -0.000728237076618424 -0.000335718405161491 -0.000613322216109384 -0.00118520855266952 -0.0010075606902117 -0.00145183073972566
"62" -0.000867039569188055 -0.000198986551730029 -0.00140054759750437 0.000182432519359011 -0.0012271455201164 -0.00010548861292325 -0.000590051853986035 -0.000788258786507876 -0.00135051421981314 0.000209380859912487 -0.000735764312359079 -0.000356067899968612 -0.000611338350973553 -0.00120135073669626 -0.0010156343178072 -0.00143000077931075
"63" -0.000843461337921521 -0.0001848035576281 -0.00135681098990237 0.000194842043410992 -0.00118126991876098 -6.6425832755875e-05 -0.000571062959582587 -0.000761852413584047 -0.00135295568447132 0.000181779195037996 -0.000739646909633513 -0.000374216719844719 -0.000606801274904553 -0.00121387293409717 -0.00102028234114897 -0.00140701626364441
"64" -0.000820176157890698 -0.000170586267520234 -0.00131199685086935 0.000209103291002123 -0.00113299854864188 -2.59860952450302e-05 -0.0005515956519345 -0.000734210788133904 -0.00135104598267343 0.000156945645811353 -0.00074006046700559 -0.000390191888945672 -0.000599907131566627 -0.00122278681991655 -0.00102160994818018 -0.00138313541605378
"65" -0.00079729968218566 -0.000156393837101166 -0.0012664267605129 0.000225133580399262 -0.0010827166724381 1.55232071812422e-05 -0.00053183257744426 -0.000705603564408278 -0.00134497177160124 0.000134822208185383 -0.000737203682828178 -0.00040403165422182 -0.000590858357028697 -0.0012281145787119 -0.00101974604702981 -0.0013586031193847
"66" -0.000774935160399699 -0.000142277223193453 -0.00122042685654281 0.000242830512461149 -0.0010308203577193 5.77871830796945e-05 -0.0005119656344186 -0.000676311261976158 -0.00133494196316176 0.00011532900694048 -0.000731283077085044 -0.000415786477651036 -0.000579869786309101 -0.00122989953217899 -0.00101483088983676 -0.00133366601466094
"67" -0.000753174483121983 -0.000128283436417116 -0.00117430776795734 0.000262088707376825 -0.000977705519994054 0.000100492505561926 -0.000492168008279073 -0.00064660303961853 -0.00132116926232361 9.83901856865647e-05 -0.000722514273624918 -0.000425512956821468 -0.00056715246667667 -0.0012281908944747 -0.00100701406576118 -0.00130856091005979
"68" -0.000732089939314439 -0.000114450728536214 -0.00112837601648367 0.000282774161332363 -0.000923775566319087 0.000143333447428042 -0.000472602090497933 -0.000616738751804574 -0.00130388778946659 8.39073108160758e-05 -0.000711125047983739 -0.000433273078733077 -0.000552926121818182 -0.00122306483389504 -0.00099645599438469 -0.00128351481314183
"69" -0.0007117511824314 -0.000100810393475737 -0.00108292850688511 0.000304754905764019 -0.000869428952031467 0.00018599885920233 -0.000453434211896437 -0.000586980907995641 -0.00128334467583087 7.17770741013834e-05 -0.000697351966926288 -0.000439140982331831 -0.000537413873422839 -0.00121461449211666 -0.00098333105415606 -0.00125874279928078
"70" -0.000692212844273874 -8.73947072052672e-05 -0.00103824687403226 0.000327871765672663 -0.000815060448373879 0.000228193031528262 -0.000434810965826697 -0.000557571702429449 -0.00125980187931897 6.18849984057087e-05 -0.000681440789737819 -0.000443198017880319 -0.000520832742359143 -0.00120295103638337 -0.000967825925470845 -0.00123445289098447
"71" -0.000673510382588947 -7.42158932538101e-05 -0.000994594997976832 0.000351974406458444 -0.000761046802351444 0.000269634475226088 -0.000416861881844698 -0.000528734190220546 -0.00123352192541769 5.41209856695764e-05 -0.00066363139211004 -0.000445518677323628 -0.00050339446046679 -0.00118819128764423 -0.000950116800526728 -0.00121082375096324
"72" -0.000655676611141574 -6.12955657425561e-05 -0.000952225010209946 0.000376885597635814 -0.000707762842552045 0.000310042529072881 -0.000399712036519151 -0.000500688809619045 -0.00120480058635473 4.8346926092279e-05 -0.000644187696606941 -0.00044619983246003 -0.000485318805076909 -0.00117049512956299 -0.000930415516848118 -0.0011880426878578
"73" -0.000638719373471283 -4.86258933934205e-05 -0.000911362207821402 0.000402441634108717 -0.000655564186403315 0.000349169807355856 -0.000383464372346715 -0.000473626069752203 -0.00117392245906524 4.44419404940819e-05 -0.00062335362113265 -0.000445328430906014 -0.000466800641529656 -0.00115002085778365 -0.000908910935876166 -0.00116625192635476
"74" -0.000622648181847592 -3.6215963510915e-05 -0.000872217129487068 0.000428456949940841 -0.000604781376966474 0.000386772921311003 -0.000368214343935013 -0.00044772450221281 -0.0011411997681519 4.22684104764439e-05 -0.000601390311909298 -0.000443001856848246 -0.000448040667708939 -0.00112695978202617 -0.000885815604407814 -0.00114559694904611
"75" -0.000607452468794464 -2.40548528432293e-05 -0.000834984116325176 0.000454748517218191 -0.000555733048959002 0.000422634293518403 -0.000354032740586666 -0.000423139294933248 -0.00110695030602488 4.16893929529545e-05 -0.000578557593968563 -0.000439317731955581 -0.000429233632638675 -0.00110151089945304 -0.000861339548140381 -0.00112619875321136
"76" -0.000593113154935908 -1.21270624136003e-05 -0.000799825148909809 0.00048113128382952 -0.000508710972660996 0.000456557733394961 -0.00034098552870938 -0.000400004522193862 -0.00107148998215482 4.2562808942707e-05 -0.000555106200795465 -0.000434379640536338 -0.000410549733373907 -0.00107389970651727 -0.000835693703656763 -0.00110815858737048
"77" -0.000579594936636929 -4.10277970305002e-07 -0.000766886799523938 0.000507419703427242 -0.000463977257594596 0.000488370967374558 -0.000329107637100119 -0.000378430298240886 -0.00103515062397194 4.47527854821372e-05 -0.000531289238663176 -0.000428284017165122 -0.000392156107656553 -0.00104436172682487 -0.000809090609687954 -0.00109155667579679
"78" -0.000566859468239987 1.11178652822424e-05 -0.000736290178918204 0.000533427409496278 -0.000421770799950723 0.000517923856974406 -0.000318430310240621 -0.00035850317442813 -0.00099826182652122 4.81183269072744e-05 -0.000507348750051681 -0.000421135606381099 -0.000374211669548649 -0.00101314940762916 -0.000781745873605123 -0.00107645799538136
"79" -0.000554859983796712 2.24901451774819e-05 -0.000708132074392355 0.000558971669429657 -0.000382309630439747 0.000545091483852824 -0.000308962275648383 -0.000340296782835037 -0.000961152786523986 5.25179874063836e-05 -0.000483523995709468 -0.00041304014826397 -0.000356853422898491 -0.000980530111441163 -0.000753871832367 -0.00106290196054176
"80" -0.000543535810129237 3.37450343304586e-05 -0.000682488163936491 0.000583871790589805 -0.000345767831777075 0.000569775808628058 -0.000300701192937618 -0.000323850825995238 -0.000924153800502928 5.78141189654604e-05 -0.000460044387669151 -0.000404096914978304 -0.000340206748696814 -0.000946778180468243 -0.000725677695385794 -0.00105091773543959
"81" -0.000532825032406685 4.49169709404522e-05 -0.000659415825007024 0.000607949578182257 -0.000312299908504805 0.000591902681660463 -0.000293627609481789 -0.00030918945449047 -0.000887590902948822 6.38729446385116e-05 -0.000437129042203928 -0.000394408424577337 -0.000324389251243343 -0.000912182031410075 -0.000697369740604978 -0.00104050972402223
"82" -0.000522651511368126 5.60529363206301e-05 -0.000638945463444845 0.000631036332995893 -0.000282031221857993 0.000611424464372816 -0.000287706896491471 -0.000296312397129903 -0.000851772655572129 7.05651366550038e-05 -0.000414979518223507 -0.000384072733780054 -0.000309490462463199 -0.000877033068772736 -0.000669152087116779 -0.00103166549329115
"83" -0.000512943705292047 6.71935959784565e-05 -0.000621079760720098 0.000652971067610456 -0.000255045695280651 0.000628318331054947 -0.000282894759428475 -0.000285206411296008 -0.000817008884639025 7.77578472208905e-05 -0.000393793180818548 -0.000373194865385884 -0.00029559573804321 -0.000841630623110546 -0.000641218004428677 -0.00102435480195966
"84" -0.000503618611098572 7.83891808449956e-05 -0.00060581271442185 0.000673596410587089 -0.000231405618078629 0.000642589133194229 -0.000279125499633675 -0.000275825591483583 -0.000783591288072743 8.53330887798321e-05 -0.000373741666220244 -0.000361865486835154 -0.00028276986698107 -0.000806270616697764 -0.000613757444989722 -0.00101853269689181
"85" -0.000494595863251082 8.96830511529938e-05 -0.000593112481478509 0.00069277050168845 -0.000211141117026531 0.000654263369149651 -0.000276338929256968 -0.000268123065230541 -0.000751790480622144 9.31705278347685e-05 -0.000354989313031882 -0.000350184888516625 -0.000271064494047493 -0.000771249836000352 -0.000586958500892681 -0.00101414174848011
"86" -0.00048578871325542 0.00010112461354856 -0.000582927150298072 0.00071035908508848 -0.000194246875404936 0.000663395841329853 -0.000274444590518807 -0.000262018830010046 -0.000721864994977135 0.000101158971192013 -0.000337674536646243 -0.000338240212003226 -0.000260514644600851 -0.000736863610662017 -0.000560987021628188 -0.00101110591463296
"87" -0.000477112650490571 0.000112760141168061 -0.000575185034065952 0.000726248133289256 -0.000180691397194282 0.000670057700286014 -0.000273360870223737 -0.000257430088381862 -0.000694042099617038 0.000109192431703363 -0.000321919819017161 -0.000326122655240389 -0.000251137937672851 -0.000703397284768809 -0.000536008933875758 -0.00100933952207787
"88" -0.000468485950934945 0.0001246358718423 -0.000569807338710261 0.000740323751322571 -0.0001704157257842 0.000674346832806021 -0.000272987975070403 -0.000254252548540951 -0.000668529327353453 0.000117175899953273 -0.000307824087784654 -0.000313916759970191 -0.00024293983621063 -0.000671124778240833 -0.000512173385817638 -0.00100874802216627
"89" -0.000459828051763753 0.000136789449511853 -0.000566685889082139 0.000752501314049644 -0.000163327490709016 0.00067638013167925 -0.000273227900367275 -0.00025237519308659 -0.000645509859571407 0.000125013404073705 -0.000295474685002141 -0.000301704211535345 -0.00023591501136152 -0.00064030828112054 -0.000489626075477658 -0.00100922699924713
"90" -0.000451055030920735 0.000149265722372763 -0.000565708613101781 0.000762707673506371 -0.000159310166521552 0.000676295980836165 -0.000273968743141258 -0.000251670449325557 -0.000625132467648953 0.000132625251713155 -0.000284928118635859 -0.000289562696151704 -0.000230037782272619 -0.000611201444314369 -0.000468493146733371 -0.00101066053778048
"91" -0.000442095026047161 0.000162099975189583 -0.000566743400073027 0.00077087927510046 -0.000158223520231419 0.000674246711052267 -0.000275102954575694 -0.000252006070688907 -0.000607521384801055 0.00013993272325137 -0.000276227151577505 -0.000277566346351792 -0.000225277422269256 -0.000584031162444265 -0.000448890465572862 -0.00101293599067933
"92" -0.000432883440496154 0.000175320889267282 -0.000569658420066343 0.000776982655180266 -0.000159903658533308 0.000670397817760077 -0.000276520347382034 -0.00025324595308637 -0.000592766448698609 0.000146864555209874 -0.000269390035588715 -0.000265788494704845 -0.000221588947032215 -0.000559006399189676 -0.000430923777924512 -0.00101593296413916
"93" -0.000423349543184837 0.000188958314718518 -0.000574297387310358 0.000780995372583082 -0.000164158976507348 0.000664934517273536 -0.000278109583089433 -0.000255241069534288 -0.000580924314145126 0.000153363699707709 -0.000264411615978119 -0.000254289521734547 -0.000218913670991293 -0.00053631593000302 -0.000414673810021858 -0.00101952620580896
"94" -0.000413443254311138 0.000203036963056588 -0.000580503012842297 0.000782915393414728 -0.000170783563537288 0.000658050613102407 -0.000279757794094107 -0.000257842941480551 -0.000572023248982475 0.000159376128566865 -0.000261276308772277 -0.000243132898499966 -0.000217188537543152 -0.000516124896322277 -0.000400218005084626 -0.00102359648944322
"95" -0.00040311512732625 0.00021757043683356 -0.000588108019542379 0.000782763653073051 -0.000179550209789342 0.000649951417728122 -0.000281357315818013 -0.000260901379821333 -0.000566059883079881 0.000164856837130067 -0.000259938565926665 -0.000232372897301542 -0.000216342514956138 -0.000498571392996578 -0.000387617601789317 -0.00102802075802506
"96" -0.00039232001695612 0.000232570177591677 -0.000596945845126642 0.000780581580471674 -0.000190216881752522 0.000640842835097539 -0.000282808253079068 -0.000264268511834542 -0.000562997132991823 0.000169766379035513 -0.000260338017142257 -0.000222063169107408 -0.000216295391678061 -0.000483764319468629 -0.000376910409720409 -0.00103268041073776
"97" -0.000381039594677276 0.000248037649652058 -0.000606841820226015 0.000776418484938557 -0.000202528202493578 0.000630940517383768 -0.000284009167926964 -0.000267795455658552 -0.000562774342018764 0.000174073183665162 -0.000262407295992046 -0.000212255562998897 -0.000216969736580993 -0.000471794181046569 -0.00036813050557169 -0.00103746948675904
"98" -0.00036924603733942 0.000263973421194777 -0.00061761635128205 0.000770357455999095 -0.000216223487049531 0.000620462030131352 -0.000284867640988536 -0.000271340392473219 -0.000565293982268799 0.000177758091747017 -0.000266048516204075 -0.000202986595755334 -0.00021827360430406 -0.000462711308900404 -0.000361289399706471 -0.00104227957591246
"99" -0.000356926925314185 0.000280367583103076 -0.000629091324257361 0.000762489798363378 -0.00023102499314616 0.000609624781037217 -0.000285301477573081 -0.000274761469631246 -0.000570441586734762 0.000180799436354363 -0.000271161638058677 -0.000194301683972799 -0.000220121902184494 -0.000456555949503169 -0.000356391868251023 -0.00104701422409643
"100" -0.000344085743497499 0.000297203492634322 -0.000641093483593414 0.000752928780160575 -0.000246654355662429 0.00059864338071751 -0.00028523139111083 -0.000277927529696428 -0.000578069811331537 0.000183193021734505 -0.000277625688288464 -0.000186230728886367 -0.000222421443517354 -0.000453317991310218 -0.000353414261358729 -0.0010515829094197
"101" -0.000330725359762866 0.00031445867472212 -0.000653445139695213 0.000741804783629845 -0.00026283899315582 0.00058772453592062 -0.000284595320739018 -0.000280717946454051 -0.000588013770982329 0.000184930300404783 -0.00028531529503185 -0.0001788034927319 -0.000225089055186061 -0.000452973069267128 -0.000352330879534133 -0.00105590844828893
"102" -0.000316872016292505 0.00033210177117946 -0.000665979244185542 0.00072925581284231 -0.000279293411174776 0.00057707374844407 -0.000283334364997839 -0.000283014019115733 -0.000600089106419125 0.000186013642716798 -0.000294098175823114 -0.000172050988421972 -0.00022803469754385 -0.000455471796530205 -0.00035310348882216 -0.00105992293977777
"103" -0.000302540909561283 0.000350101151510101 -0.00067852581388231 0.000715445504330194 -0.00029574468921337 0.000566883136723376 -0.000281401446100567 -0.000284716493748901 -0.000614090766730381 0.000186455515079058 -0.000303829156934414 -0.000165988056714886 -0.000231172024092722 -0.000460733949770368 -0.000355671730330552 -0.00106356955898995
"104" -0.000287779406093343 0.000368412163107517 -0.000690925104399309 0.000700535637964031 -0.000311922778255604 0.000557331633020225 -0.000278765861317532 -0.000285737070793395 -0.000629803019366892 0.000186263813570855 -0.000314360637156058 -0.000160638949246641 -0.000234428980810545 -0.000468655311612749 -0.000359970433931351 -0.00106680384232084
"105" -0.000272625536572211 0.000386990595635608 -0.000703023591310405 0.000684708086877079 -0.00032756986833605 0.000548593565850094 -0.000275397679799504 -0.000285992258731721 -0.00064699326874647 0.000185459131227234 -0.000325540196567808 -0.000156012457898458 -0.000237725283524682 -0.000479110505628881 -0.000365923012438896 -0.00106959081756891
"106" -0.000257132128922317 0.000405780528678088 -0.000714676489829993 0.000668147427045836 -0.000342437550801603 0.000540815909000421 -0.000271288080028161 -0.000285421527107388 -0.000665425727392009 0.000184063935611324 -0.00033721817286705 -0.000152117571668002 -0.000240995532519166 -0.000491949211183348 -0.000373433121561466 -0.00107191029680009
"107" -0.000241361965512807 0.000424719043595343 -0.000725751109238221 0.000651037289391511 -0.00035629704179794 0.000534133150400222 -0.000266447466247719 -0.000283977281018969 -0.000684853960692741 0.000182102589850523 -0.000349241568776678 -0.000148970369788548 -0.000244181539304456 -0.000507006391096385 -0.000382407588195443 -0.00107375951500434
"108" -0.000225373941087915 0.000443752813992136 -0.000736121533433534 0.000633581697037 -0.000368928675570144 0.00052866838630305 -0.000260874822791512 -0.000281622786563697 -0.000705028092804745 0.000179602922903443 -0.000361459439450691 -0.000146564780986996 -0.000247227914851095 -0.000524098038043232 -0.000392739172513904 -0.00107513373604681
"109" -0.000209241150118831 0.000462810148871307 -0.000745671541320872 0.000615965512826506 -0.000380141401912655 0.000524512964176927 -0.000254600188651077 -0.000278340190096188 -0.000725693685339328 0.000176599224282391 -0.00037372439427964 -0.000144903118710292 -0.000250091993303944 -0.000543023539657797 -0.000404311091729523 -0.00107605034781106
"110" -0.000193038419525613 0.000481821663440426 -0.000754299865224538 0.000598382140947518 -0.000389757221191006 0.000521748712128932 -0.000247660881168622 -0.000274124714245716 -0.00074660429390699 0.000173128282378731 -0.000385894883432843 -0.000143984106347728 -0.000252737157068617 -0.000563566723524346 -0.000417003005981578 -0.00107653276320091
"111" -0.000176845180077511 0.000500711818147085 -0.00076192051268316 0.000581018172087276 -0.000397625067133804 0.000520428535709035 -0.000240096692087939 -0.000268987516377 -0.000767510257743979 0.000169222806016265 -0.000397834553950395 -0.000143802112542296 -0.0002551367448602 -0.000585504625371779 -0.000430687134128782 -0.0010766183275525
"112" -0.000160735573239578 0.000519413884769176 -0.000768445731973842 0.000564063969606719 -0.000403615073444396 0.000520587724880096 -0.000231967294026593 -0.000262953962261699 -0.000788167606212178 0.000164923352773366 -0.000409410928709346 -0.000144347021806748 -0.00025727248686418 -0.000608605644230713 -0.000445231060671929 -0.00107634746556019
"113" -0.000144795814019962 0.000537843927621135 -0.000773819166745065 0.000547684044523031 -0.000407625954811323 0.000522237203059237 -0.000223339505945141 -0.000256064318108446 -0.000808345243175703 0.000160264987727149 -0.000420505197669224 -0.000145609324672972 -0.000259140164243938 -0.000632628909501947 -0.000460507588675001 -0.00107577479667468
"114" -0.000129104393237426 0.000555930727597612 -0.000777984081894672 0.000532049331311221 -0.000409580244728511 0.000525369651398927 -0.000214279818472572 -0.000248369494981534 -0.000827819413351794 0.000155288600743242 -0.000431010944034603 -0.000147578488847475 -0.000260740091602211 -0.000657333820435475 -0.000476378244286009 -0.00107495740890893
"115" -0.00011374460954642 0.000573596682420028 -0.000780900092127189 0.000517309699805914 -0.000409421213072498 0.000529954093652649 -0.000204879132091697 -0.000239936680414326 -0.000846372855245416 0.000150032459785387 -0.000440818932190037 -0.000150238081212422 -0.000262078456851116 -0.000682474794419809 -0.000492705223406202 -0.00107395888970783
"116" -9.87917510961405e-05 0.000590766504092572 -0.000782543900911976 0.000503605137445514 -0.00040713326645881 0.000535939849662341 -0.000195214714415427 -0.000230838321344461 -0.000863803383551114 0.000144541359899467 -0.000449841820068559 -0.00015357220211774 -0.000263178658689861 -0.000707805899310339 -0.000509349859462163 -0.0010728480132576
"117" -8.43279187819607e-05 0.000607366369672249 -0.000782895912508617 0.000491063972878013 -0.000402710435838688 0.000543254666602047 -0.000185386638679377 -0.0002211623922527 -0.000879928862275642 0.000138843648286242 -0.000457999754631592 -0.000157562383689077 -0.000264062651700248 -0.00073308793348084 -0.000526185580324783 -0.00107169794620141
"118" -7.04182324568817e-05 0.000623331339018812 -0.000781955538554426 0.000479800319399161 -0.000396184276035431 0.000551812419978794 -0.000175484586451062 -0.000210997741202197 -0.000894577008772035 0.000132982182821345 -0.000465228230475228 -0.000162190797720824 -0.000264766925485311 -0.000758081776490481 -0.000543071033358469 -0.00107058202355939
"119" -5.71413401610089e-05 0.000638584811778827 -0.000779732243960789 0.000469902770101367 -0.000387600662573826 0.000561502881161951 -0.000165614612661478 -0.000200454234739897 -0.000907606751264697 0.000126983912003284 -0.000471477674777022 -0.000167440510674532 -0.000265336641397421 -0.000782574538068005 -0.000559885923155177 -0.00106957706221707
"120" -4.45588896521336e-05 0.000653067702618628 -0.000776244216245492 0.000461450816187421 -0.000377042082739277 0.00057220883474097 -0.000155875259378547 -0.00018963042853388 -0.000918878389476139 0.000120885840202677 -0.000476703121297244 -0.000173285955486706 -0.000265813677344945 -0.000806334593126707 -0.0005764981794829 -0.00106875715713122
"121" -3.27300199602472e-05 0.000666716957220931 -0.000771524418117434 0.000454504235857762 -0.00036460112222613 0.000583789673095799 -0.000146369839069986 -0.000178640410969398 -0.000928289551524233 0.000114710928436945 -0.000480880972706501 -0.000179710809904389 -0.000266258812486453 -0.000829165176868531 -0.000592794025475774 -0.00106819426701247
"122" -2.1707946476209e-05 0.000679484267704293 -0.000765608399853305 0.000449109682164148 -0.000350397070913309 0.000596105323841129 -0.000137193567341041 -0.000167593903464748 -0.000935745234314911 0.000108488943897509 -0.000483999865271694 -0.000186690219651279 -0.000266722214090589 -0.000850870623412299 -0.000608661139572653 -0.00106795891101541
"123" -1.1540444453192e-05 0.00069131290512462 -0.000758554926123223 0.000445285933147238 -0.000334568908337795 0.0006089926480933 -0.000128454590394866 -0.00015660383191336 -0.000941187435911527 0.000102238552979799 -0.000486060335926131 -0.00019420482155303 -0.000267270888975474 -0.000871277523645532 -0.000623987255384916 -0.00106812252476757
"124" -2.26597259603614e-06 0.000702166587249583 -0.000750410328578207 0.000443051689540803 -0.0003172727530604 0.000622290693870609 -0.000120236675021719 -0.000145779670557044 -0.000944565331456293 9.59812613185598e-05 -0.000487074018529893 -0.000202224782347799 -0.000267965508836385 -0.000890224815083562 -0.000638675340030818 -0.00106873134964601
"125" 6.07783515832705e-06 0.000712002878412928 -0.000741248889596529 0.000442383108594567 -0.000298681564958059 0.000635823984793068 -0.000112638339962326 -0.000135235813123809 -0.000945866430732634 8.97238415078345e-05 -0.000487073544496791 -0.000210735169654011 -0.000268874713838811 -0.000907570297444423 -0.000652633725545396 -0.00106985213174322
"126" 1.34682826656055e-05 0.000720797504459849 -0.000731140845380548 0.000443265452144197 -0.000278977432709725 0.000649422112959501 -0.000105741776764136 -0.000125071134471987 -0.000945099910092618 8.34829050191878e-05 -0.000486100913071887 -0.000219710661990116 -0.000270067633035675 -0.000923198716494067 -0.000665781310704703 -0.00107152704938761
"127" 1.98881669175893e-05 0.000728521234367922 -0.000720160440847679 0.000445648238570347 -0.000258352875311915 0.000662908758633496 -9.96264203168816e-05 -0.000115385943239108 -0.000942286702948977 7.72652039877151e-05 -0.000484200778428001 -0.000229121384770594 -0.000271605794847361 -0.000936999856853037 -0.000678036834787329 -0.00107379004895394
"128" 2.53252564416002e-05 0.000735164085006663 -0.000708396329787587 0.000449475710846823 -0.000237020233049162 0.000676109074987581 -9.43672730156154e-05 -0.000106275772617055 -0.000937484522222168 7.10693303393399e-05 -0.000481444464875669 -0.000238948457712773 -0.00027355555596955 -0.000948895517838893 -0.000689333007978986 -0.00107667557138624
"129" 2.97700407682261e-05 0.00074070908423274 -0.000695940484606472 0.00045466910923131 -0.000215188884821544 0.000688847771398496 -9.00258170174624e-05 -9.7824112576053e-05 -0.000930774436361745 6.48906581601444e-05 -0.000477911911318768 -0.000249170666188089 -0.00027598594176024 -0.000958829498451951 -0.000699622157568418 -0.00108020103695001
"130" 3.32299940522825e-05 0.000745158556729276 -0.000682882771515271 0.000461144153987075 -0.000193076707516639 0.000700959714360945 -8.66578058854483e-05 -9.01090852691581e-05 -0.000922250009893226 5.87261838285548e-05 -0.000473680065530764 -0.000259755569369645 -0.000278951883995093 -0.000966759639408079 -0.000708848925021824 -0.00108437550145951
"131" 3.5726153137701e-05 0.000748521419586155 -0.000669316843166474 0.000468803550480531 -0.000170897716106362 0.00071228625062663 -8.43009290695925e-05 -8.31926390859576e-05 -0.000912028550636958 5.25739613767377e-05 -0.000468843747998694 -0.000270678227674484 -0.000282508575065692 -0.000972664783805218 -0.000716966183573772 -0.00108919091117127
"132" 3.72662926569845e-05 0.000750806888086162 -0.00065534723457751 0.000477528686381745 -0.0001488757353562 0.000722673236292571 -8.3002665096818e-05 -7.71351291307547e-05 -0.00090025452367202 4.64097310138589e-05 -0.000463510658806842 -0.000281915451969786 -0.000286706953666283 -0.000976555895168997 -0.000723951735179783 -0.00109464075934007
"133" 3.78783949443827e-05 0.000752035241637769 -0.000641066999320122 0.000487198908804753 -0.000127229850698305 0.000731977531663197 -8.27759825183983e-05 -7.19835220085131e-05 -0.000887085448504109 4.0222979351374e-05 -0.000457784616500155 -0.000293437372578581 -0.000291593515141398 -0.000978451446881245 -0.00072977856421576 -0.00110069829915917
"134" 3.7600827486945e-05 0.000752237730439375 -0.000626583960857033 0.00049768050756352 -0.00010616688603271 0.00074007554230767 -8.36402974810582e-05 -6.77659907850629e-05 -0.000872692199850027 3.40004588673029e-05 -0.000451776009138615 -0.000305212333914139 -0.000297202585962132 -0.000978392548082805 -0.000734433066046656 -0.00110732245306238
"135" 3.6463479193799e-05 0.000751438858009903 -0.000611998818890814 0.000508831514147743 -8.58962914176363e-05 0.000746842570066945 -8.5605631900967e-05 -6.45167644040391e-05 -0.000857267265643807 2.77110387787573e-05 -0.000445605596687814 -0.000317217852683596 -0.000303570645593503 -0.000976447573049079 -0.000737911301339879 -0.00111447656003776
"136" 3.45231381742865e-05 0.000749688684577483 -0.000597409307764259 0.000520511200978034 -6.66179372723956e-05 0.000752185505663846 -8.8652665203939e-05 -6.22394268823652e-05 -0.00084100692410908 2.1344127827889e-05 -0.000439386795387003 -0.000329416337502366 -0.000310712623399229 -0.000972687009996768 -0.000740208823391353 -0.00112209202852407
"137" 3.18209395852724e-05 0.000747025368302646 -0.000582920657221141 0.000532559137319008 -4.85183595228865e-05 0.000756014434682603 -9.27704286675853e-05 -6.09356426306872e-05 -0.000824123267961769 1.4872616745243e-05 -0.000433244047987312 -0.000341777451494173 -0.000318646043441051 -0.00096721282971901 -0.000741341872088231 -0.00113011116385888
"138" 2.84172448090605e-05 0.000743504752484869 -0.000568630444552955 0.000544828361008255 -3.17742866595793e-05 0.000758260031939226 -9.79291459158985e-05 -6.06033651726485e-05 -0.000806835776071822 8.26866055726525e-06 -0.000427289818675761 -0.000354272234408813 -0.000327377286628998 -0.000960131839154457 -0.000741319398582716 -0.00113845141255247
"139" 2.43743334731442e-05 0.000739182053666407 -0.000554631647427937 0.000557162299726359 -1.65405170937664e-05 0.000758877135800346 -0.00010408826405956 -6.12094343640133e-05 -0.000789357830550217 1.51912111674742e-06 -0.000421635389932082 -0.000366853635916875 -0.000336894914870868 -0.00095156698218591 -0.000740166472405428 -0.00114702323746422
"140" 1.97525554376501e-05 0.000734118672540663 -0.000541022685743488 0.000569398210671782 -2.96828750086273e-06 0.000757826969288663 -0.000111203688500806 -6.27320627720361e-05 -0.000771926249033368 -5.40912493621072e-06 -0.000416400524379517 -0.000379499728874099 -0.000347193275805309 -0.000941656846923299 -0.000737916430056515 -0.00115574265235203
"141" 1.46231697734903e-05 0.000728379917074427 -0.000527890290526445 0.000581385036616839 8.81522818679234e-06 0.000755098292305703 -0.000119213260914939 -6.51253241962885e-05 -0.000754752080965384 -1.25314933823131e-05 -0.000411683265233351 -0.000392165256695907 -0.00035824363072033 -0.000930540332615002 -0.000734600044391983 -0.00116450133249027
"142" 9.05105365782314e-06 0.000722034487014324 -0.000515319087572433 0.000592972799514643 1.86996313468349e-05 0.000750693733626747 -0.000128058849613183 -6.8341197100459e-05 -0.000738057180625215 -1.9871641992654e-05 -0.000407582798276596 -0.000404812468782093 -0.000370017695417944 -0.000918373660170739 -0.000730254936567617 -0.00117319512974119
"143" 3.11098801237762e-06 0.000715151861772962 -0.000503393252287135 0.000604011068876409 2.66004409320403e-05 0.000744638382493817 -0.000137657608956857 -7.23210059353102e-05 -0.000722053510614328 -2.74487104711366e-05 -0.000404190363111082 -0.000417401787518196 -0.000382470707047972 -0.000905309387764227 -0.000724930811336984 -0.00118171463875198
"144" -3.1237734001111e-06 0.000707808215840961 -0.000492183666380218 0.000614366108382125 3.24421161963933e-05 0.00073697218349156 -0.000147938692637676 -7.69995301588891e-05 -0.000706943849754529 -3.52776107038633e-05 -0.000401588112142312 -0.000429892787435499 -0.000395556579678259 -0.000891516321967043 -0.000718674885892022 -0.00118994621705477
"145" -9.57582409297372e-06 0.000700081004925018 -0.000481758747007717 0.000623902988857825 3.61851885826996e-05 0.000727755938433668 -0.000158807486344875 -8.22998254656547e-05 -0.000692917048498004 -4.3367988415268e-05 -0.000399840501019312 -0.000442242185739758 -0.000409209958909379 -0.000877152965746693 -0.000711539570392388 -0.00119776899891205
"146" -1.61808754222192e-05 0.000692045657967129 -0.000472179369118377 0.000632498744106596 3.77991013944858e-05 0.000717064191278469 -0.000170176406980361 -8.81508272392819e-05 -0.000680157010948758 -5.17397759338972e-05 -0.000399015423051659 -0.000454412516457589 -0.000423370520280419 -0.000862391877276346 -0.000703586441824439 -0.00120507409315599
"147" -2.28588237249675e-05 0.000683780376932294 -0.000463502782156339 0.000640043352574809 3.7285895799342e-05 0.000704992150356639 -0.000181949034691236 -9.4461813629744e-05 -0.000668817424917063 -6.03939570625603e-05 -0.000399151256520989 -0.000466355615816449 -0.000437958003954054 -0.000847384663450866 -0.000694867614802157 -0.00121174012153047
"148" -2.95382283105087e-05 0.000675363786333962 -0.000455771859966634 0.000646440550927684 3.46632027106657e-05 0.000691649039248816 -0.000194020904603127 -0.000101147324924683 -0.000659045024745659 -6.93315394887384e-05 -0.000400289161739232 -0.000478032741282447 -0.00045289917050261 -0.00083229950924976 -0.000685446754828802 -0.00121765476336324
"149" -3.61502899864343e-05 0.00066687347372844 -0.000449026045341602 0.000651603256473638 2.99745330180164e-05 0.000677156797098768 -0.000206291912875256 -0.000108115092530796 -0.000650960476633856 -7.85559098544353e-05 -0.000402445164267725 -0.000489397226831239 -0.000468101083068092 -0.000817284902263848 -0.000675386607775817 -0.00122270721017412
"150" -4.2628917614777e-05 0.000658384846128686 -0.000443290563262874 0.000655456623043032 2.32909071893784e-05 0.00066165207109266 -0.000218661529402735 -0.000115276066430901 -0.000644672894065621 -8.80629729881632e-05 -0.00040563609120103 -0.000500410151286573 -0.000483478692665219 -0.000802494282601057 -0.000664756497627952 -0.00122679343326364
"151" -4.89089190442684e-05 0.000649977058137877 -0.000438586387147767 0.000657949722410453 1.46930892188211e-05 0.000645282574710169 -0.000231024320066561 -0.000122534027358778 -0.000640256317826206 -9.78394045576272e-05 -0.000409849961250433 -0.00051102674293642 -0.000498928578112761 -0.000788062716284909 -0.000653617107090381 -0.00122981326159875
"152" -5.49342224400709e-05 0.000641713280998345 -0.000434926988283567 0.000659036983781957 4.29179226946535e-06 0.000628201788170017 -0.000243278028685243 -0.000129798209138782 -0.000637772161565566 -0.000107876237352011 -0.000415073805933776 -0.000521207670738654 -0.000514361614202657 -0.000774122042552825 -0.000642036488091483 -0.00123167151858724
"153" -6.06414183057539e-05 0.000633674679392259 -0.000432303423444574 0.000658700464948957 -7.7795395709371e-06 0.000610580892107135 -0.00025531254699012 -0.000136972137270156 -0.000637256524831154 -0.000118151622601804 -0.000421276933772577 -0.000530909727608651 -0.000529666618261355 -0.000760789840433797 -0.000630080411126395 -0.00123228535160784
"154" -6.59800011836183e-05 0.000625924366301158 -0.000430711444345042 0.000656924780780794 -2.13811063983595e-05 0.000592588485424016 -0.000267035946423781 -0.000143965095131492 -0.00063872062103753 -0.000128644943497995 -0.000428415984209838 -0.000540096124040034 -0.00054474779603481 -0.000748177898383123 -0.000617814325092557 -0.00123157948851277
"155" -7.09016243672634e-05 0.00061852057775909 -0.000430126174074793 0.000653719046784194 -3.63459218426744e-05 0.000574401663535879 -0.000278350684256303 -0.000150692136193547 -0.000642153384577985 -0.00013932947119738 -0.000436438321016489 -0.000548731053798399 -0.000559501763326268 -0.000736378431979838 -0.000605301261038323 -0.00122948823886415
"156" -7.53617450335077e-05 0.000611531518291064 -0.000430521988382487 0.000649105387336406 -5.24919292135697e-05 0.000556202025615217 -0.000289156397434593 -0.000157063484633829 -0.000647516321321651 -0.00015016993513591 -0.000445273561431737 -0.000556771772152424 -0.000573820310014193 -0.000725468153619849 -0.000592602193644245 -0.00122595318744184
"157" -7.9324712221746e-05 0.000605008906876556 -0.000431855988202993 0.000643123306484952 -6.96321304283705e-05 0.000538163591464616 -0.000299374255587736 -0.000163003366268594 -0.000654759804730878 -0.000161138995539262 -0.000454848401117418 -0.00056419176905261 -0.000587606456023518 -0.000715522069186773 -0.000579782617614554 -0.00122093337277577
"158" -8.27523820068954e-05 0.000599005667028177 -0.000434076614665454 0.000635831283301609 -8.75606460137697e-05 0.000520469930791773 -0.000308914615033836 -0.000168433210987915 -0.000663797603888573 -0.000172186966196787 -0.00046507501243727 -0.000570951008413476 -0.000600754280879269 -0.000706588609276918 -0.000566894025634987 -0.00121439368919328
"159" -8.5616859760331e-05 0.000593563093243915 -0.000437126008725941 0.000627288652398131 -0.000106064690666201 0.000503296448351327 -0.000317705525796476 -0.000173284176009353 -0.000674540589084393 -0.000183279188363734 -0.0004758590691405 -0.00057702481924801 -0.000613177869372722 -0.000698710914660082 -0.000553997067821169 -0.00120631239689051
"160" -8.78945509642826e-05 0.000588727271206545 -0.000440935310765919 0.000617581610409035 -0.000124923684431751 0.000486811087468446 -0.00032567582026445 -0.000177492424132228 -0.000686867957154919 -0.000194361717507892 -0.000487098704297797 -0.000582380258474234 -0.000624775186352965 -0.000691907218717464 -0.000541138720127339 -0.0011966844366695
"161" -8.95620422416155e-05 0.000584535311960314 -0.000445426616046711 0.000606796971458078 -0.000143917222678902 0.000471178766339804 -0.000332764904543253 -0.000181000015282444 -0.000700640535854294 -0.000205386515468529 -0.000498679468930742 -0.000586993276346651 -0.000635455124195403 -0.000686184979712744 -0.000528372562873081 -0.00118551266677832
"162" -9.06138986161619e-05 0.000581009882226262 -0.000450521654478252 0.000595039520451256 -0.000162816030712362 0.00045655855420633 -0.000338913253392674 -0.000183759560218055 -0.000715717257267291 -0.000216298559380413 -0.000510488390926976 -0.00059083914213495 -0.000645140549399162 -0.000681546127751175 -0.000515745345173108 -0.00117281253525431
"163" -9.10300553394119e-05 0.000578179717038994 -0.000456123645935585 0.000582421155358551 -0.000181401682203291 0.000443091269074809 -0.000344076268675901 -0.000185726521828181 -0.000731922646351879 -0.000227039961014157 -0.000522403936393199 -0.000593893413162574 -0.000653748860292409 -0.000677963582147217 -0.000503291049072356 -0.00115861340396112
"164" -9.0805408163092e-05 0.000576066172064751 -0.000462135296412094 0.000569067382269915 -0.000199441926378702 0.00043091943648985 -0.000348215692064358 -0.000186865365026001 -0.000749082585129129 -0.000237549771084101 -0.000534299150051079 -0.00059613529386394 -0.000661207044187988 -0.00067540765853799 -0.000491051194802591 -0.00114295372522887
"165" -8.99402533054816e-05 0.000574681684297741 -0.000468461225435585 0.000555094594165199 -0.000216731715515926 0.000420157929732272 -0.000351302594056679 -0.000187153163931194 -0.00076701263531597 -0.000247768180173305 -0.000546051467056057 -0.000597552794390424 -0.000667449295697145 -0.000673833419382035 -0.000479059579363078 -0.00112589019372426
"166" -8.843587259173e-05 0.00057403069242143 -0.000474987780977488 0.000540638504772848 -0.000233055780672901 0.000410919948755117 -0.000353315204651658 -0.000186569487371855 -0.000785504783447913 -0.000257625699772391 -0.000557524901637191 -0.000598125077249689 -0.000672412055579861 -0.000673174014914312 -0.000467336825397501 -0.00110748072883131
"167" -8.62954593725193e-05 0.000574116052840803 -0.000481608240966807 0.000525831125811101 -0.000248215663483835 0.000403299423359208 -0.000354234736096184 -0.000185102037683904 -0.000804356000819815 -0.000267058346280897 -0.00056859202494045 -0.000597836320452565 -0.000676043053634461 -0.000673366215645929 -0.000455908105739922 -0.00108780032654244
"168" -8.35278723550721e-05 0.00057493824520237 -0.000488212612402504 0.00051081316862783 -0.000262022671133252 0.000397376961052122 -0.000354062828257299 -0.000182746354896997 -0.000823356477869986 -0.000275996690803576 -0.00057912314548139 -0.000596677251266086 -0.000678296863176302 -0.000674322922500504 -0.000444792346859138 -0.00106693417075784
"169" -8.01417373452286e-05 0.000576486674115078 -0.00049468693489795 0.000495714908150243 -0.000274306832406742 0.000393213974425339 -0.000352797375537091 -0.000179509430470814 -0.000842293007206131 -0.000284377643359519 -0.000588992670066435 -0.000594636804495957 -0.000679136955761295 -0.000675963164439739 -0.000434007369774906 -0.00104497426988679
"170" -7.61559072480629e-05 0.000578743744877588 -0.000500916497854317 0.000480673267735674 -0.000284908486336541 0.000390857599616566 -0.000350452204787999 -0.000175402758881145 -0.000860942470057701 -0.000292125014851406 -0.000598073105974491 -0.000591705751204595 -0.000678527279228648 -0.000678179685729543 -0.000423554719835526 -0.00102202150571763
"171" -7.15774640881478e-05 0.000581696961858361 -0.000506787760722122 0.000465824670471046 -0.000293683458730011 0.000390339626053566 -0.000347040202811178 -0.000170442728628494 -0.000879096605104829 -0.000299173534041062 -0.000606243960618624 -0.000587878512118831 -0.00067644782755174 -0.000680874488708806 -0.000413445274641042 -0.000998182473182483
"172" -6.64319477556845e-05 0.000585319043238941 -0.000512196951579279 0.000451290246580884 -0.000300511137758383 0.000391672660076974 -0.000342595277090389 -0.000164658261650116 -0.000896532248320686 -0.000305456259069702 -0.000613384097510332 -0.000583148380511076 -0.000672880298279566 -0.000683925476923681 -0.000403668064936552 -0.000973573619825182
"173" -6.07352328296187e-05 0.00058957959781271 -0.000517030121807796 0.000437199475480265 -0.000305287046908658 0.000394855929438913 -0.000337146091625786 -0.000158076722574224 -0.000913044569821174 -0.000310902707237405 -0.000619385375336898 -0.000577516381346634 -0.000667818538446971 -0.000687228133388317 -0.000394230074279231 -0.000948317099695958
"174" -5.45051020450946e-05 0.000594451693136797 -0.000521189634619514 0.000423664429332242 -0.000307923007744658 0.000399868147584539 -0.000330732487376384 -0.000150735767700203 -0.000928429540753315 -0.000315450969166525 -0.000624144055312317 -0.000570980154553366 -0.000661262659766353 -0.00069066014759738 -0.00038511997691584 -0.000922534884672166
"175" -4.776765608536e-05 0.000599897081998579 -0.000524573286973884 0.000410794712181211 -0.00030836044957098 0.00040667430384736 -0.000323395281320864 -0.000142676406819673 -0.000942483369295638 -0.00031903688454295 -0.00062756133513243 -0.000563540360874085 -0.000653217651273908 -0.00069410322923513 -0.00037632197454702 -0.000896359288338389
"176" -4.0548954018259e-05 0.000605871313959678 -0.000527091647199837 0.000398691293667867 -0.000306553125459803 0.000415222885846119 -0.000315192121993319 -0.000133949280371806 -0.00095502661086549 -0.000321600375555045 -0.000629547827291462 -0.000555201116999574 -0.000643703414019873 -0.000697435493722208 -0.000367823929861781 -0.000869921457337736
"177" -3.28641884202646e-05 0.000612342562955516 -0.00052865445324376 0.000387449125625519 -0.000302479009460148 0.000425453021296886 -0.000306166900242221 -0.000124596813397857 -0.000965872067993479 -0.000323084665305719 -0.000630021559428721 -0.000545963851325293 -0.000632737014206605 -0.000700535376428285 -0.000359603189089784 -0.000843345186020087
"178" -2.47428101238141e-05 0.000619256383605208 -0.000529190818373607 0.000377148194162281 -0.000296139778953058 0.000437279984020137 -0.000296386255725507 -0.000114675007195499 -0.00097485898054857 -0.000323436913939199 -0.00062891158155098 -0.000535841473701379 -0.000620349595352038 -0.000703288949790726 -0.00035164270810467 -0.000816772861127622
"179" -1.62119718293976e-05 0.000626571473742109 -0.000528626952673943 0.000367859784431873 -0.000287557021435694 0.000450612464039438 -0.000285904980697066 -0.000104236570683387 -0.000981837100439142 -0.000322608955240087 -0.000626162604560997 -0.000524843110016997 -0.000606581253554639 -0.000705584909974709 -0.000343916468054791 -0.000790331050101396
"180" -7.29537307831298e-06 0.000634236630831075 -0.000526901042916628 0.000359645021161736 -0.000276769422400276 0.000465349485146507 -0.000274792358752024 -9.33375387952305e-05 -0.000986665091974921 -0.000320563207933396 -0.000621721252971583 -0.00051297850146352 -0.00059147672809176 -0.000707313935138188 -0.000336399682362158 -0.000764151936443059
"181" 1.98268670471764e-06 0.000642201969440419 -0.000523960225592811 0.000352555030906057 -0.000263837164328537 0.000481374691502868 -0.000263110493753691 -8.20336926296194e-05 -0.000989224063217053 -0.000317257184923412 -0.000615550810572059 -0.000500263000868313 -0.000575082029960269 -0.000708369568280041 -0.000329065302732727 -0.000738360112360046
"182" 1.15974281208794e-05 0.000650419155891121 -0.000519765018113258 0.000346626054849158 -0.000248844214171331 0.0004985583104622 -0.000250928162326295 -7.03850547110609e-05 -0.000989408799326232 -0.00031266364649617 -0.000607626006296812 -0.000486714171296041 -0.000557459575801598 -0.000708662151080385 -0.000321879468874306 -0.000713075136022937
"183" 2.15213190431736e-05 0.000658834665425288 -0.000514283741143137 0.000341887637752067 -0.000231890790926722 0.000516773396855488 -0.000238312386115202 -5.84463879913756e-05 -0.000987137706076491 -0.000306761058774983 -0.000597936891025697 -0.0004723559136883 -0.000538672698993936 -0.000708103988120201 -0.000314820859685632 -0.000688420848598731
"184" 3.17319687180738e-05 0.000667402503782634 -0.000507492413645317 0.000338355993137877 -0.000213084859623782 0.000535882269075639 -0.00022532530918405 -4.62716553662406e-05 -0.000982340682901449 -0.000299526947554646 -0.000586477737139015 -0.000457205461326128 -0.000518790231627933 -0.000706613454162175 -0.000307850825388039 -0.00066450265796324
"185" 4.22001591747669e-05 0.000676066238136908 -0.000499386943258684 0.000336030140609766 -0.000192569016444532 0.000555730288378832 -0.000212039983006299 -3.39194011652321e-05 -0.000974975101328663 -0.000290964491220472 -0.000573270130260331 -0.000441296230486007 -0.000497893680755327 -0.000704126890313944 -0.000300947133749097 -0.000641426812291866
"186" 5.29029575410229e-05 0.00068478048231867 -0.000489962851600438 0.00033490538343606 -0.000170488525047892 0.000576171508286565 -0.000198519078458692 -2.14373433351894e-05 -0.000965008895673417 -0.000281065494935047 -0.000558333870011578 -0.000424652771868173 -0.00047606043378511 -0.0007005812971661 -0.000294066991689637 -0.000619290923733613
"187" 6.38163247601242e-05 0.00069349499535086 -0.000479237762939127 0.000334961719848752 -0.000147001503635808 0.000597053946186881 -0.00018482336103913 -8.87857706292238e-06 -0.000952441542294183 -0.00026984399609695 -0.000541711040946015 -0.000407311948053503 -0.000453378770003616 -0.000695929745787293 -0.000287192842749919 -0.000598182158445948
"188" 7.49146337512488e-05 0.000702167129213206 -0.000467233171944039 0.000336170031761664 -0.000122284215529189 0.000618221072941341 -0.000171013667859566 3.71051241564864e-06 -0.000937285600506325 -0.00025731505752378 -0.000523454620550946 -0.000389307949119658 -0.000429939857614651 -0.000690136415286961 -0.000280286273608217 -0.000578176425851652
"189" 8.61826303689962e-05 0.000710752814122143 -0.000453982960380236 0.000338490902697318 -9.65189911036908e-05 0.000639520074376691 -0.000157147921848448 1.62837884736269e-05 -0.000919571810174561 -0.000243506300886709 -0.00050362558948367 -0.000370683209311496 -0.000405840345184836 -0.000683168673663198 -0.000273318051115697 -0.000559338237000816
"190" 9.75837958949647e-05 0.00071920874771277 -0.000439538766019955 0.000341874707196835 -6.98983872492003e-05 0.000660795419134177 -0.000143284431325772 2.8800171725468e-05 -0.000899363706697111 -0.000228455410175702 -0.000482309250509074 -0.000351479973460839 -0.000381180042861613 -0.000675018745791294 -0.000266264071658936 -0.000541735272670954
"191" 0.000109107443135772 0.000727500021438299 -0.000423954896615105 0.000346262901553461 -4.26218633928147e-05 0.000681896989449772 -0.000129467950473815 4.1222249047433e-05 -0.000876732240975671 -0.000212207304871882 -0.000459589082649517 -0.000331749265219888 -0.000356065249019512 -0.000665680850942739 -0.000259099503644952 -0.000525402974164526
"192" 0.000120726957130643 0.000735593441093339 -0.000407296591305054 0.000351586589229675 -1.48940056414669e-05 0.000702679164008323 -0.000115746911861487 5.3515730171016e-05 -0.000851772282921338 -0.000194816511783353 -0.000435567925157384 -0.000311536891793053 -0.000330598017182348 -0.000655157431932764 -0.00025179454223654 -0.000510380355496154
"193" 0.000132427212181635 0.000743454471868938 -0.000389645750325129 0.000357773438825648 1.30801463978337e-05 0.000723002565964084 -0.000102165363208703 6.56478890478701e-05 -0.00082460053135158 -0.000176348969806911 -0.000410358618156522 -0.000290901354851821 -0.000304889998585825 -0.000643469076768003 -0.000244329287427197 -0.000496692492202483
"194" 0.000144182037727989 0.00075105741843664 -0.000371091928947204 0.000364738092245405 4.10886233373943e-05 0.000742731996418348 -8.87562886263647e-05 7.75937202425087e-05 -0.000795347267734523 -0.000156874090117255 -0.000384083015429198 -0.000269895460351438 -0.000279048739884472 -0.000630641827059049 -0.00023667589984885 -0.00048434684058615
"195" 0.000155974444840881 0.000758379045978901 -0.000351730167492629 0.000372390450148005 6.89264992183935e-05 0.000761740243641548 -7.55601793568326e-05 8.93240027378502e-05 -0.000764159100921503 -0.000136478183112429 -0.000356873269552322 -0.000248589689239667 -0.000253188158488083 -0.000616716504371714 -0.000228829472197822 -0.000473348627685763
"196" 0.000167790285452552 0.000765399194805273 -0.000331663878211598 0.000380641234249729 9.63894532648382e-05 0.000779910893723596 -6.25962625705249e-05 0.00010082311105961 -0.000731205157760201 -0.000115246967406269 -0.000328867480343934 -0.000227042069356253 -0.00022742216830402 -0.000601733721714734 -0.000220759296204591 -0.000463679427602347
"197" 0.000179607004934717 0.000772106740494819 -0.00031101073446518 0.000389388986987737 0.000123277316983027 0.000797137189807966 -4.9898918400141e-05 0.000112066608246698 -0.000696660727198401 -9.3279359204975e-05 -0.000300212009592027 -0.000205321741947974 -0.000201859966686977 -0.000585752479195985 -0.00021245766544859 -0.00045531989382492
"198" 0.000191409532256159 0.000778483627710544 -0.000289886632821132 0.000398532492210466 0.00014939487994539 0.000813324214850761 -3.74815092910233e-05 0.00012304346022731 -0.000660718524821186 -7.06828452248507e-05 -0.000271067018881336 -0.000183503659066042 -0.00017661807663851 -0.000568838597515987 -0.000203919623759002 -0.000448241410999551
"199" 0.000203186024805017 0.000784531694324192 -0.000268418947707918 0.00040797112447588 0.000174564491859976 0.000828385451627089 -2.53571863394515e-05 0.000133740313179034 -0.000623582286649038 -4.7569402638886e-05 -0.0002415834288153 -0.000161655046087509 -0.000151800702363365 -0.00055106420832324 -0.000195129909072435 -0.00044239331266277
"200" 0.000214913885811371 0.000790240989767558 -0.000246738111633407 0.000417596579995218 0.0001986032249999 0.000842253847217963 -1.35430871071163e-05 0.000144148131445192 -0.000585461159647086 -2.40514679074598e-05 -0.000211924547942893 -0.000139856983948559 -0.000127520705204394 -0.000532497812095468 -0.000186085765582246 -0.00043772597107807
"201" 0.000226581509868273 0.000795614709083546 -0.000224976077214037 0.000427300751309423 0.000221358440173481 0.0008548636390583 -2.0414561859056e-06 0.000154256719852273 -0.000546580093223843 -2.60811046605743e-07 -0.000182257689808664 -0.000118188197907852 -0.000103887971314666 -0.000513235056787614 -0.000176787874270924 -0.000434179309019768
"202" 0.000238179002010001 0.000800661428178147 -0.000203272919514104 0.000436987740669311 0.00024267857251979 0.000866174747592636 9.14209924323994e-06 0.000164061203105781 -0.000507156823195932 2.36793813416774e-05 -0.00015274729872689 -9.67272121323929e-05 -8.10026454863045e-05 -0.000493359447143778 -0.000167237347743405 -0.000431680037186143
"203" 0.000249685493567832 0.000805386235444395 -0.000181759428383295 0.000446548499492992 0.000262437031438662 0.000876157071316565 2.00115035566606e-05 0.000173559626731492 -0.000467431806755547 4.76364341549425e-05 -0.000123560081787885 -7.55580520456207e-05 -5.89629629380791e-05 -0.000472973007509643 -0.000157448303194048 -0.00043015569521761
"204" 0.000261095315332027 0.000809803372576992 -0.000160571730660854 0.000455888754214754 0.000280517469685781 0.000884791827550355 3.05671542269482e-05 0.000182746897793765 -0.000427624950440063 7.14837608219946e-05 -9.48579962535202e-05 -5.47588191392011e-05 -3.78645629510855e-05 -0.000452158904186208 -0.000147416979211851 -0.000429518710591942
"205" 0.000272387681930345 0.00081392480283557 -0.00013985421067309 0.000464900734644773 0.000296820547346612 0.000892072139498486 4.08118233457467e-05 0.000191622850822905 -0.00038797373400877 9.50778374364246e-05 -6.68053720882229e-05 -3.44161220790039e-05 -1.78015993822246e-05 -0.000431031835481555 -0.000137167482907577 -0.000429689856190738
"206" 0.000283556091481698 0.000817770676340948 -0.000119730940099969 0.000473508475128664 0.000311272259515427 0.000898010650493754 5.07621434305501e-05 0.000200186211043423 -0.000348708630250912 0.000118287882537031 -3.9559201067176e-05 -1.4612402513707e-05 1.14397803270972e-06 -0.000409689182247078 -0.000126718874196275 -0.000430575768226357
"207" 0.000294587086374864 0.000821361810541888 -0.000100329481888944 0.000481615966841843 0.000323819024331355 0.000902631281887815 6.042312149059e-05 0.000208439416672641 -0.000310051458696184 0.000140982957951372 -1.32702548928681e-05 4.56814100938537e-06 1.88946802570909e-05 -0.000388233275425497 -0.000116089143778278 -0.000432079385203762
"208" 0.000305468470371107 0.000824717520417814 -8.17758881773859e-05 0.000489145696639624 0.000334419303268523 0.000905965554526843 6.98100746422301e-05 0.000216380799541969 -0.000272221099436417 0.000163029219940917 1.19132979538909e-05 2.30478948407371e-05 3.53727085989035e-05 -0.000366772312067091 -0.000105309679301703 -0.000434112067017053
"209" 0.000316184246850316 0.00082786404795125 -6.41809025593455e-05 0.000496027389293906 0.000343057335053325 0.000908063660104109 7.8931551567647e-05 0.000224014606896969 -0.000235435203716168 0.000184297138089852 3.58539349110294e-05 4.07419542216624e-05 5.05158229338783e-05 -0.000345416202466674 -9.44067962654615e-05 -0.000436576553398257
"210" 0.000326721787244336 0.000830820674890574 -4.76540186547477e-05 0.000502194650875344 0.000349739620680252 0.000908981150999252 8.78025858421762e-05 0.000231337000518759 -0.000199892468243204 0.000204665203870614 5.84230062346633e-05 5.75726894867213e-05 6.42638898163793e-05 -0.00032426258345067 -8.34204266536769e-05 -0.000439383806295035
"211" 0.000337074575302044 0.000833617761629481 -3.22895830029946e-05 0.000507592520081862 0.000354490801203765 0.000908786371673636 9.6437459243375e-05 0.000238353246362061 -0.000165782756587421 0.000224014246794027 7.95009050119537e-05 7.34683870245396e-05 7.65703771928341e-05 -0.000303417417559132 -7.23844609790271e-05 -0.000442438896001917
"212" 0.000347229320563161 0.000836278389217426 -1.81756484902764e-05 0.000512170373043587 0.000357353447444634 0.000907557981820874 0.00010485183946452 0.000245065944965202 -0.00013328795302743 0.000242237515852423 9.89799341277469e-05 8.83578509612167e-05 8.73873053690449e-05 -0.000282982390605452 -6.13463361743506e-05 -0.000445655199669621
"213" 0.000357169086826798 0.000838827558739285 -5.38404710433403e-06 0.000515890980005743 0.000358396733786684 0.000905377399547902 0.0001130535657815 0.000251473052347221 -0.000102574854016506 0.000259225046184563 0.000116757374977198 0.000102168191251883 9.66805204754334e-05 -0.000263057192134515 -5.03535309776422e-05 -0.000448948564268684
"214" 0.000366875786466875 0.000841284780998415 6.01307298158203e-06 0.000518720289335011 0.000357695076224463 0.000902335412153725 0.000121051953288241 0.000257576385831607 -7.37955161684846e-05 0.000274883620503684 0.000132751122153195 0.000114839504765813 0.000104426561542701 -0.000243737751963865 -3.94593646875949e-05 -0.000452245907046594
"215" 0.000376351774517789 0.000843680746348357 1.598008329264e-05 0.000520640880481919 0.00035535368004346 0.000898530454202661 0.000128867920407775 0.000263378111536467 -4.70784691818783e-05 0.00028912982741097 0.000146890765173417 0.000126315604520952 0.000110609548053665 -0.000225112534185151 -2.87070544127087e-05 -0.000455466008816781
"216" 0.00038556703951885 0.000846027743937399 2.44739019909916e-05 0.000521641204025164 0.000351481976949365 0.000894055524032012 0.000136494640863731 0.00026887521462649 -2.25449691708421e-05 0.000301888831934816 0.000159113235093518 0.000136542823723351 0.000115216934184398 -0.000207271625237654 -1.81603175884697e-05 -0.000458547581743556
"217" 0.000394516727723345 0.000848348978353836 3.14691409842422e-05 0.000521709202450457 0.000346210995089201 0.000889015834881061 0.000143945434936131 0.000274073162475116 -3.0387348571057e-07 0.000313093322864983 0.000169369899956462 0.000145472499864944 0.000118248738200384 -0.000190301073547606 -7.88039355812601e-06 -0.000461434688129669
"218" 0.000403179948884064 0.000850657909891274 3.69611167795764e-05 0.000520858905210078 0.00033967388387485 0.000883512359462231 0.000151224310479279 0.000278969512715789 1.95728217175013e-05 0.000322691330421469 0.000177633760586658 0.00015306929639677 0.000119717252850681 -0.000174275278171688 2.07330847037941e-06 -0.000464073675277595
"219" 0.000411542203834283 0.000852966161731894 4.09579860565383e-05 0.000519098213582933 0.000332024516986749 0.000877643492526082 0.000158327034069486 0.000283561269873462 3.7010607199295e-05 0.000330639966538962 0.000183877021446737 0.000159299003561763 0.000119632724804808 -0.000159272051062734 1.16318523982722e-05 -0.00046642423766207
"220" 0.00041958657039989 0.000855282137136229 4.34738277252906e-05 0.000516448962075278 0.000323416327181206 0.000871506668720031 0.000165247235139026 0.000287849988181734 5.19645652210121e-05 0.000336912538478162 0.000188098629731162 0.000164134769879864 0.000118023688843185 -0.000145357460771521 2.07378060735518e-05 -0.00046845130919519
"221" 0.000427300752021806 0.00085761621332057 4.45488557299852e-05 0.000512940495504684 0.000314010211758759 0.000865199978919682 0.000171989575138477 0.000291837488943051 6.44080279082529e-05 0.000341491336233712 0.000190302758442151 0.00016756468934745 0.000114924402614352 -0.000132589432973955 2.93201713009829e-05 -0.000470126833738402
"222" 0.000434663387197305 0.000859964411808835 4.42264078991693e-05 0.00050860635342192 0.000303972005787767 0.000858808633759805 0.000178533342345486 0.000295518722798429 7.43215469025338e-05 0.000344369218647613 0.000190508378354453 0.00016957069811751 0.000110373825860396 -0.000121029845341408 3.73066538336679e-05 -0.000471440436790222
"223" 0.000441654609330881 0.00086232525153914 4.25672339489193e-05 0.00050348520204756 0.000293468011718772 0.00085241978631087 0.000184875607980833 0.000298899666278772 8.17180254329093e-05 0.000345555694781732 0.000188749950009395 0.00017016134622632 0.000104424162812776 -0.00011072317108111 4.46403622320737e-05 -0.00047238346488873
"224" 0.000448264515959882 0.000864694346585071 3.96402322258959e-05 0.000497626088416358 0.000282664391742288 0.000846106861694886 0.000190989581140536 0.000301974912150606 8.66139885867772e-05 0.000345068143576139 0.000185065325717048 0.000169336495784906 9.71257673669827e-05 -0.000101715706836185 5.12483655185381e-05 -0.000472950519609079
"225" 0.00045445943351726 0.000867054299473634 3.55230685657536e-05 0.000491076503530171 0.000271715235337467 0.000839937708237258 0.000196862265390298 0.000304746082599393 8.90457033183053e-05 0.000342935834760049 0.000179510150571928 0.000167113100385429 8.85388675712406e-05 -9.40440666110677e-05 5.70647786408602e-05 -0.000473161742893795
"226" 0.000460229826677439 0.000869392651680588 3.03106296499775e-05 0.000483892244923612 0.000260782997140708 0.000833973870102517 0.000202467318240059 0.000307216591559194 8.90672581987015e-05 0.000339197524605716 0.000172151363711127 0.000163518208121395 7.87369802745596e-05 -8.77364684100183e-05 6.20296423031642e-05 -0.000473027536861667
"227" 0.000465547586624877 0.000871684612433286 2.40967329121232e-05 0.000476123689785258 0.000250011452550455 0.000828258977204576 0.000207777478568259 0.000309384070473151 8.67376783447333e-05 0.000333905179396221 0.000163056531726859 0.000158576631466199 6.77875938418544e-05 -8.28218289692256e-05 6.60715633885896e-05 -0.00047257795113836
"228" 0.000470399495583996 0.000873908528636516 1.69904585089538e-05 0.00046783933570464 0.000239540488036874 0.00082283639772335 0.000212766368052108 0.000311252176909625 8.21471577560577e-05 0.000327119516835395 0.000152313576505755 0.000152332692324511 5.57755320672554e-05 -7.93095780181434e-05 6.91407738224418e-05 -0.000471840755829798
"229" 0.000474760669073526 0.000876032590475553 9.10248491798175e-06 0.000459097263876636 0.000229501725895912 0.000817733382354347 0.000217401029781422 0.000312824381620875 7.53834933062117e-05 0.000318909023123079 0.000140009982915629 0.000144830855647162 4.27808434611901e-05 -7.72119497787054e-05 7.11760697700969e-05 -0.000470853550195449
"230" 0.000478609693174085 0.000878023350462831 5.47729921459262e-07 0.000449953034571159 0.000220008653171401 0.00081296591659499 0.000221646329677857 0.000314100029249785 6.65462971279202e-05 0.000309350429632421 0.000126244485049229 0.000136127811192076 2.88939994332437e-05 -7.65348407777068e-05 7.21309518994737e-05 -0.000469662820982242
"231" 0.000481917209402273 0.000879841045287051 -8.55874599676219e-06 0.000440472855219684 0.000211161049366479 0.000808538753681852 0.00022546394030778 0.000315086904718987 5.5747077192078e-05 0.000298524702131892 0.000111117799774984 0.000126280533205813 1.41989182339809e-05 -7.72775109502844e-05 7.19504774847265e-05 -0.000468313579888043
"232" 0.000484672594132446 0.000881444977686052 -1.80956436301835e-05 0.000430720618954114 0.000203047334509557 0.00080444898630488 0.000228817399272899 0.000315789230379902 4.31126965498958e-05 0.00028652810272221 9.47415643402677e-05 0.000115362895049955 -1.20239631301019e-06 -7.94189086151475e-05 7.06015927538979e-05 -0.000466858485545825
"233" 0.000486839890682409 0.000882785054884653 -2.79464459087883e-05 0.000420747510961707 0.000195741033885234 0.000800676338388353 0.000231667564622727 0.000316209443074978 2.87661422627915e-05 0.000273446207716738 7.72252075496637e-05 0.000103445289137474 -1.722029755635e-05 -8.2955721394503e-05 6.80395866906551e-05 -0.000465353454345987
"234" 0.000488406711437248 0.000883821187002918 -3.79869321033432e-05 0.000410616237052793 0.000189295447837473 0.000797197000262967 0.000233971182404865 0.000316356509772858 1.28441671295409e-05 0.000259383309503583 5.86833880680205e-05 9.06036905438754e-05 -3.37537587804821e-05 -8.78621686728183e-05 6.423701174274e-05 -0.000463852000243827
"235" 0.000489345389067864 0.000884495955739549 -4.81052608543934e-05 0.000400383989084584 0.000183753127728721 0.000793974311058364 0.000235693757191935 0.000316243136688339 -4.51272753416096e-06 0.000244443362875176 3.92366010291335e-05 7.69300673149601e-05 -5.07011802033082e-05 -9.41022361554527e-05 5.91729783008637e-05 -0.000462409669688281
"236" 0.000489636254571645 0.000884761060657405 -5.81874839602228e-05 0.000390103120248962 0.00017913482856876 0.000790962350904563 0.000236793900295894 0.000315874053487042 -2.31627983964106e-05 0.000228727393236219 1.90054338685598e-05 6.25112056304932e-05 -6.79654176014687e-05 -0.000101649825239678 5.2828775937965e-05 -0.000461082014355769
"237" 0.000489258650448398 0.000884557846585908 -6.81277767564032e-05 0.000379820185033944 0.000175445903705789 0.000788102774113077 0.000237226113584074 0.00031525862898524 -4.29519571781863e-05 0.000212343540661795 -1.8884132088652e-06 4.74402708692999e-05 -8.54451548660514e-05 -0.000110456520722029 4.51941806948001e-05 -0.000459926092233391
"238" 0.000488181224605565 0.000883833831378465 -7.7829095278438e-05 0.000369579321042054 0.000172670303548305 0.000785330455151956 0.000236955262429843 0.000314407296357874 -6.37386000706194e-05 0.000195393489301129 -2.33333082885362e-05 3.18054468823332e-05 -0.0001030420403615 -0.000120481117052094 3.62632750748007e-05 -0.000458998406125935
"239" 0.000486398106206141 0.000882533851811529 -8.71879834418731e-05 0.000359429236407389 0.000170782157096884 0.000782577895686558 0.000235952468072153 0.000313335734335904 -8.53682786746322e-05 0.000177992503575728 -4.51960435520884e-05 1.57180233885619e-05 -0.000120652075934816 -0.000131661482478048 2.60573170578311e-05 -0.000458339474637011
"240" 0.000483884532785627 0.000880601554786147 -9.61232937517078e-05 0.000349406542737699 0.000169739510171749 0.000779766779557866 0.00023417996449836 0.000312055153554433 -0.000107687677234827 0.000160239984779233 -6.73642676654642e-05 -7.28762336654376e-07 -0.000138184163246201 -0.000143942433973095 1.45815854946015e-05 -0.000457997236441788
"241" 0.000480620116551879 0.000877983255229576 -0.000104562748895821 0.000339542789677047 0.000169476491901047 0.000776813741754303 0.000231604642113596 0.000310578875669738 -0.000130549507228001 0.000142237975923064 -8.97217564695656e-05 -1.74317583120147e-05 -0.000155537713523594 -0.000157262877072026 1.86042352844437e-06 -0.000458016017497826
"242" 0.000476594633419455 0.000874625602240679 -0.000112428344458208 0.000329867998611906 0.000169922684087282 0.000773632029884954 0.000228203699985615 0.0003089202363291 -0.000153794748023738 0.000124095103242312 -0.000112145996799246 -3.42855787134408e-05 -0.000172619314860746 -0.00017153575733836 -1.20659372051593e-05 -0.000458423184365969
"243" 0.000471791352578609 0.000870476740162742 -0.000119672513908046 0.000320403836025801 0.000170986558345635 0.000770133240249549 0.00022395161540943 0.000307093865536539 -0.00017728504557164 0.000105901964109115 -0.000134531106356019 -5.11883507249967e-05 -0.000189339236747993 -0.00018669523837903 -2.71560278598057e-05 -0.000459251149816738
"244" 0.000466206023911294 0.000865497192305798 -0.000126232696775388 0.000311182327455632 0.000172570356266855 0.00076622637452597 0.000218840776259694 0.000305119037352936 -0.000200863686077509 8.77610643004543e-05 -0.000156761399590374 -6.8035887254921e-05 -0.000205607397550704 -0.000202650759793705 -4.33560694669273e-05 -0.000460511131223325
"245" 0.000459827238304325 0.000859641046301149 -0.0001320779936807 0.000302209156879275 0.000174567528667983 0.000761822709818532 0.000212851926948739 0.000303010644265068 -0.000224388214190128 6.97613120768682e-05 -0.00017872664412942 -8.47256499489905e-05 -0.00022133582380466 -0.000219308224631836 -6.05987731812207e-05 -0.000462219102111941
"246" 0.000452653797151702 0.000852868964459942 -0.0001371782703912 0.000293504101196153 0.000176853725848736 0.000756827980552809 0.000205983255781315 0.000300783128482287 -0.00024771759762376 5.1988952626759e-05 -0.000200326362293341 -0.000101157048265728 -0.000236445033426787 -0.000236573527621386 -7.88159720081851e-05 -0.000464374084326909
"247" 0.000444683572407152 0.000845146181197199 -0.000141517793166492 0.000285072336885958 0.000179306172237627 0.000751159607396396 0.000198232622231928 0.000298456420047047 -0.000270709400167668 3.4531989782818e-05 -0.000221460502855349 -0.000117232337576004 -0.000250856402566913 -0.000254339665261696 -9.791838226631e-05 -0.00046696950094744
"248" 0.000435925304892353 0.000836450110566691 -0.000145083093185244 0.000276921981821235 0.000181792985365197 0.000744732178289306 0.000189608383593046 0.000296045221880153 -0.000293229839053471 1.74644375098189e-05 -0.000242028387475649 -0.00013285618568842 -0.000264498112568533 -0.000272499335328836 -0.000117819713278977 -0.00046998703806444
"249" 0.000426385614663591 0.000826761282586178 -0.000147876484635142 0.000269050389596657 0.000184176458020562 0.000737467504712608 0.000180125705602016 0.000293568349886161 -0.00031514241757974 8.61193496126889e-07 -0.000261937100137019 -0.000147929960797261 -0.000277296308982561 -0.000290938003877416 -0.000138412478195648 -0.000473399952085738
"250" 0.00041607296198609 0.000816058521458977 -0.000149916166036446 0.000261457470186244 0.000186322702917994 0.0007292932360976 0.00016980510605751 0.000291038802177378 -0.000336323172659626 -1.52056582958605e-05 -0.00028109737120543 -0.000162372652202836 -0.000289190285547395 -0.000309533449359665 -0.000159587497736926 -0.000477172730422668
"251" 0.000405020431601838 0.000804345047283262 -0.000151215423245507 0.000254145417571623 0.000188093850305891 0.000720145975474588 0.000158675254179743 0.000288477081761056 -0.000356637376979158 -3.06731618359636e-05 -0.00029941879958716 -0.000176091229826783 -0.0003001137708861 -0.000328151991684101 -0.000181221211369849 -0.000481252580806761
"252" 0.000393238767423504 0.000791616818326997 -0.000151805262443666 0.000247097236569706 0.00018935326126729 0.000709972767574361 0.000146775608286027 0.000285898910561472 -0.000375972007783332 -4.54793306731127e-05 -0.000316823361120328 -0.00018900696758403 -0.000310016469580639 -0.000346673688100235 -0.000203186320128876 -0.000485586542473799
"253" 0.00038076165485055 0.000777883896014909 -0.000151724861321344 0.000240311611763204 0.000189976743313193 0.000698724060260957 0.000134146475139644 0.000283316775368551 -0.000394199722038501 -5.95707580408684e-05 -0.000333225808558654 -0.000201041932278684 -0.000318845044953244 -0.000364948746058432 -0.000225340389592756 -0.000490106624112545
"254" 0.000367626476920351 0.000763165176950768 -0.000151017552421844 0.000233776180418566 0.000189837021187614 0.000686366053335178 0.000120837347017951 0.000280743963656273 -0.00041122369859909 -7.29012986473472e-05 -0.000348560878263149 -0.00021212822983466 -0.000326556857276908 -0.000382849356081487 -0.000247553792313317 -0.000494741296690046
"255" 0.000353871667210504 0.000747489851671963 -0.000149734596133351 0.000227473566729649 0.000188823743037159 0.000672877562832223 0.000106909778334393 0.000278200427928101 -0.000426918286389473 -8.5418859720719e-05 -0.000362749755044062 -0.000222195875390153 -0.00033310848445429 -0.000400222720860148 -0.000269658150084487 -0.00049939897482004
"256" 0.00033954507551418 0.000730888526369209 -0.000147928971296016 0.000221402322406827 0.000186825230366691 0.000658248279967937 9.24278800967575e-05 0.000275692614579047 -0.000441183196399572 -9.70831771722384e-05 -0.000375724873604875 -0.000231185436040836 -0.000338466609567685 -0.000416921239534622 -0.000291504088768378 -0.000503987516719691
"257" 0.000324697874460768 0.000713408785984215 -0.000145666857061295 0.000215541745697942 0.000183756361038091 0.000642479448137879 7.74657644918406e-05 0.000273237049760144 -0.000453922748874496 -0.000107856846682325 -0.000387430335594034 -0.000239045831445214 -0.000342604722412079 -0.000432801052852705 -0.000312933253324531 -0.000508410778212434
"258" 0.000309388894095843 0.000695098029302384 -0.000143012169563431 0.00020987827256261 0.000179534964286917 0.000625585437131388 6.20930917940299e-05 0.000270839499872925 -0.000465039911060474 -0.000117709110132529 -0.000397800081499182 -0.000245724371058086 -0.000345497921033219 -0.000447707304683575 -0.0003337774661905 -0.000512561181638289
"259" 0.000293679918948541 0.000676019469100244 -0.000140029350270552 0.000204399659188149 0.00017409538436458 0.000607594858896213 4.64036783155288e-05 0.000268511185527704 -0.000474440139586357 -0.000126609663051589 -0.000406780939655064 -0.000251185017720932 -0.000347127199036846 -0.000461481836384512 -0.00035386463269813 -0.000516327074731249
"260" 0.00027763715864719 0.000656234426785164 -0.000136794547011336 0.000199093021317142 0.000167389791287512 0.000588555414328554 3.04788746225005e-05 0.000266260744963596 -0.000482048820081191 -0.000134530898497645 -0.00041432597734839 -0.000255392464292256 -0.000347484216218224 -0.000473983575835233 -0.000373032756120452 -0.000519595771636178
"261" 0.000261332393452368 0.000635822805168839 -0.000133373324241193 0.000193945381826553 0.000159391627567311 0.000568516075983555 1.44097196669905e-05 0.000264092663194045 -0.00048778178462209 -0.000141451609191446 -0.000420387185023393 -0.000258320456281971 -0.000346562042846013 -0.000485056746191083 -0.000391106857808819 -0.000522246556211128
"262" 0.000244846471674801 0.000614865213373653 -0.000129835942288485 0.000188949188563074 0.000150084984389226 0.000547551290918325 -1.69945871601441e-06 0.000262013792460008 -0.000491566134290498 -0.000147351509233693 -0.000424920310900671 -0.00025994593447304 -0.000344356393522773 -0.000494553972737997 -0.00040791738516884 -0.000524158429437215
"263" 0.000228255621936329 0.000593445057385579 -0.000126256145501309 0.000184091575395859 0.000139477156724373 0.000525742620480914 -1.77549479273597e-05 0.000260026148885099 -0.000493342242946132 -0.000152216087724561 -0.000427896386217647 -0.00026025699404635 -0.000340879789336791 -0.000502333047924167 -0.000423299353934154 -0.000525214938376837
"264" 0.000211648487677504 0.000571659994460622 -0.000122696222617448 0.000179366714604716 0.000127595346719068 0.00050318393636183 -3.36493284892043e-05 0.000258133679240445 -0.00049304311994706 -0.000156030676809484 -0.000429274459181009 -0.000259249048051255 -0.000336136030921842 -0.000508251267681502 -0.000437087996325205 -0.000525289886333834
"265" 0.000195107175193671 0.000549602133610477 -0.000119223636844158 0.000174765666698897 0.000114482301432108 0.000479984159910463 -4.92848185266163e-05 0.000256337245616834 -0.000490624921218997 -0.000158782695780643 -0.000429035412930665 -0.000256922149664933 -0.000330146629337466 -0.000512175355409831 -0.00044912429595406 -0.000524268310583933
"266" 0.000178717678162805 0.000527371274113166 -0.000115900147442947 0.000170281716147188 0.000100205827465183 0.000456252624693355 -6.45614947311218e-05 0.000254636599074821 -0.000486039685069585 -0.000160464676709401 -0.00042715577107741 -0.000253286101053993 -0.000322930974469559 -0.00051397968681602 -0.00045925372929165 -0.000522042071140812
"267" 0.000162580412851004 0.000505077876248423 -0.000112770529537869 0.000165921627255205 8.48432874099562e-05 0.000432122381630271 -7.9364273963659e-05 0.000253029003276529 -0.000479256300209264 -0.000161070431377131 -0.000423620091861606 -0.000248353765820372 -0.000314517440939133 -0.000513545159737431 -0.000467333863093971 -0.000518492161052331
"268" 0.000146776201358853 0.00048282262676768 -0.000109898161951891 0.000161671260843916 6.85007654550125e-05 0.000407724140731948 -9.36003168354329e-05 0.000251518235106613 -0.000470243448163908 -0.000160597077221348 -0.000418418465835426 -0.000242151069661125 -0.000304934604688731 -0.000510763195586899 -0.000473225870286734 -0.000513519443409427
"269" 0.000131400842467302 0.000460713758366464 -0.00010731700186889 0.000157544232476114 5.12942357121147e-05 0.000383198417513648 -0.000107166404990034 0.000250095965509295 -0.00045898642236483 -0.00015903676330146 -0.000411545446090114 -0.000234700556708056 -0.000294219787787593 -0.000505532573129314 -0.000476799686333248 -0.00050702618731861
"270" 0.000116542186174605 0.000438858280597433 -0.000105064315366924 0.000153532640801248 3.33577010445157e-05 0.000358692605168249 -0.000119967829355161 0.000248761251755447 -0.000445482522618057 -0.000156395538798091 -0.000403009236561612 -0.00022604372449036 -0.000282418979097988 -0.000497776590987448 -0.000477949675065102 -0.000498928912464793
"271" 0.000102296042740771 0.000417367955607554 -0.000103171346122128 0.000149651296456018 1.48391631507877e-05 0.000334361111687643 -0.000131911310176362 0.000247510809053918 -0.000429726043414689 -0.000152669007613299 -0.000392814856385373 -0.00021621814259198 -0.000269571707378373 -0.000487411195990673 -0.000476568135325976 -0.00048914437150888
"272" 8.87423054349652e-05 0.00039634276724177 -0.000101661643705931 0.00014589567427455 -4.10217394377532e-06 0.000310350560322095 -0.000142907855392794 0.00024633992537014 -0.000411735371964088 -0.000147863044838078 -0.000380979248595985 -0.000205270244241948 -0.000255730060049896 -0.000474380453021955 -0.000472564569434714 -0.000477608462783333
"273" 7.59682626595804e-05 0.000375884995542252 -0.000100543760436209 0.000142280762414876 -2.32876111441587e-05 0.000286818749459174 -0.0001528732869113 0.000245244387855594 -0.000391533787188 -0.000141981640960556 -0.000367524054594132 -0.000193253052604856 -0.000240948851680092 -0.000458645294047923 -0.000465869961715538 -0.000464268244266402
"274" 6.40574856089068e-05 0.000356098412346031 -9.98224719623366e-05 0.000138816384108908 -4.25384893509924e-05 0.000263920236511481 -0.000161737199668926 0.000244219904432433 -0.000369154797602472 -0.000135031156740048 -0.000352482419389807 -0.000180221931903681 -0.000225283835402905 -0.000440176183600938 -0.000456427206581295 -0.000449077835795616
"275" 5.30835835112584e-05 0.000337075616912922 -9.94986103135147e-05 0.000135506346462809 -6.16660157998862e-05 0.000241801850024988 -0.000169425347170027 0.000243264294946532 -0.000344646617581365 -0.000127020671607908 -0.00033588813291964 -0.000166241305338489 -0.000208793512452526 -0.00041896161147608 -0.000444192941213481 -0.000432013805767189
"276" 4.31147302399227e-05 0.000318904085785667 -9.95619057461451e-05 0.000132368220187894 -8.04751542443936e-05 0.000220615486828092 -0.00017588546273814 0.00024236860191852 -0.000318063009809237 -0.000117956946815219 -0.000317783218406178 -0.000151373211352077 -0.000191541454196895 -0.000395008429597251 -0.000429146467552252 -0.000413056185699846
"277" 3.42229819394203e-05 0.000301675937290137 -9.99867363856016e-05 0.000129410450091027 -9.87662276458526e-05 0.000200505526186734 -0.00018105211735211 0.000241536203318402 -0.000289479164566153 -0.000107859189093497 -0.000298225359749293 -0.000135685191485748 -0.000173592085281485 -0.000368346543242644 -0.000411288163525904 -0.000392211286079786
"278" 2.64638732525012e-05 0.000285460745101274 -0.000100752600563497 0.000126645143735194 -0.000116341508180673 0.000181602817700345 -0.000184894085317975 0.000240758806490375 -0.000258975533567377 -9.673766579345e-05 -0.00027727070410586 -0.000119253915055233 -0.000155014155956886 -0.000339017563727739 -0.000390630081717581 -0.000369493326748741
"279" 1.98933123834031e-05 0.000270334210492019 -0.000101823166565857 0.000124084785842442 -0.000133000843651307 0.000164038769106555 -0.000187369102665279 0.00024003775602174 -0.000226641968689935 -8.46083491401881e-05 -0.000254982827931827 -0.000102147992059976 -0.00013587698042434 -0.000307083667805131 -0.000367204044584214 -0.000344930772097027
"280" 1.45555673679182e-05 0.000256357858999048 -0.00010315699732257 0.000121744577638883 -0.000148551695454097 0.000147934950023139 -0.000188457739676728 0.000239374080580175 -0.000192583702588384 -7.1490862485687e-05 -0.000231433903508765 -8.44450676483335e-05 -0.000116244468450812 -0.000272627645040476 -0.000341072964797538 -0.000318577381355971
"281" 1.04839522421708e-05 0.000243585155173409 -0.000104711981594084 0.000119628199751095 -0.000162806289586136 0.000133394721737651 -0.000188142531127476 0.000238761813003657 -0.000156922046139997 -5.7415550736746e-05 -0.000206709460753027 -6.62243061366296e-05 -9.61955854755955e-05 -0.000235755399637592 -0.000312309013792832 -0.000290492696426974
"282" 7.70726009191707e-06 0.000232059768172311 -0.000106435621902705 0.00011775018214626 -0.000175582037016866 0.000120521059314411 -0.000186424359088612 0.000238201735143509 -0.000119784033363554 -4.24013506175494e-05 -0.000180896519550369 -4.75662697302186e-05 -7.58037221447567e-05 -0.000196590708755215 -0.000281009236673075 -0.000260760506469474
"283" 6.24569582527177e-06 0.00022181934644443 -0.000108269047402518 0.000116122145346461 -0.00018670801913546 0.000109393869624298 -0.000183307363926842 0.000237697589198664 -8.1308463139318e-05 -2.64807132340696e-05 -0.000154085942379302 -2.85476262415198e-05 -5.51351107599982e-05 -0.000155270434453921 -0.00024728974979627 -0.000229470978952649
"284" 6.11423466345398e-06 0.000212891229439763 -0.000110155561122805 0.000114749861695901 -0.000196022754750681 0.000100086845495827 -0.000178810145387276 0.000237247153858949 -4.16430437166129e-05 -9.68702991446565e-06 -0.000126379952329429 -9.2507641676391e-06 -3.42681863792442e-05 -0.000111960178762682 -0.000211284138732455 -0.000196734550820589
"285" 7.30402721404886e-06 0.000205286679051952 -0.00011203371116409 0.000113637749216716 -0.000203385770794569 9.26579557034585e-05 -0.000172962653441233 0.000236855133240098 -9.51959578258082e-07 7.94030088459968e-06 -9.78887623855927e-05 1.02466307990704e-05 -1.32727024101014e-05 -6.68357042070536e-05 -0.00017315203367803 -0.000162681107028744
"286" 9.81096023789123e-06 0.00019901698194471 -0.000113836715292318 0.000112791838799286 -0.000208659718272586 8.71511832574288e-05 -0.000165805344981408 0.00023652322320232 4.05922043086402e-05 2.63591618529034e-05 -6.87243361377909e-05 2.98615953437125e-05 7.77373839539289e-06 -2.00998687788155e-05 -0.000133069249568822 -0.000127445357987035
"287" 1.36126553567444e-05 0.000194073232548846 -0.000115501607927301 0.000112216783617232 -0.000211733399933659 8.35889256456066e-05 -0.000157385356342318 0.000236251431131011 8.28147981266367e-05 4.55240538845205e-05 -3.90058003727376e-05 4.95167680221714e-05 2.88027773892393e-05 2.80417934170932e-05 -9.12265969704447e-05 -9.11790038982335e-05
"288" 1.86793012267202e-05 0.000190445573256427 -0.000116963205025797 0.00011190641516844 -0.000212509617582258 8.19889750134865e-05 -0.0001477617963184 0.000236047618780728 0.000125524130232854 6.53773938228671e-05 -8.85723433248865e-06 6.91313282987497e-05 4.97378874117918e-05 7.73498572145757e-05 -4.78373418719042e-05 -5.40462066678209e-05
"289" 2.49714195540733e-05 0.000188105784318372 -0.00011815774741525 0.000111863189541393 -0.00021091054850758 8.23445855575861e-05 -0.000137003888600115 0.000235911280885691 0.000168529225185454 8.58634001711251e-05 2.15887002391303e-05 8.86317159743828e-05 7.05130038651107e-05 0.000127583701592379 -3.13091162769674e-06 -1.6221427337404e-05
"290" 3.24427419863018e-05 0.000187022485162148 -0.000119017611839623 0.000112082605436572 -0.0002068762185942 8.46378780549948e-05 -0.000125191700882257 0.000235849218980416 0.000211618066698346 0.000106916396909828 5.21992923837491e-05 0.00010793851304976 9.10516202302516e-05 0.000178477697448529 4.26508580212241e-05 2.21098489005945e-05
"291" 4.10235861701407e-05 0.000187146921609695 -0.000119493817945955 0.000112552611018424 -0.000200370555130344 8.88327305574552e-05 -0.000112417359350486 0.000235861078458646 0.000254590249747264 0.000128465100931194 8.28347067768419e-05 0.000126977790437725 0.000111285307478673 0.000229768010317362 8.92537070149543e-05 6.07534001668104e-05
"292" 5.06527768434181e-05 0.000188424590653718 -0.000119520602341856 0.000113266438388793 -0.000191382151085547 9.48726367156101e-05 -9.87692910350484e-05 0.000235947387817583 0.00029723218926754 0.000150431187381897 0.00011335627011592 0.000145676540896322 0.000131147347447959 0.000281170626637507 0.000136404698654284 9.95142464484682e-05
"293" 6.12489318290383e-05 0.000190793061590485 -0.000119048165920824 0.00011420331911475 -0.000179914035286084 0.000102695482720867 -8.43581810690585e-05 0.000236113227859345 0.000339319110595185 0.000172733128388081 0.000143612575615158 0.000163963241528173 0.000150565576425388 0.000332392352512465 0.00018382262318961 0.000138182205936284
"294" 7.27234462369817e-05 0.000194179329211103 -0.000118032858576038 0.00011534848445419 -0.000166002752563788 0.000112214260433261 -6.92914197227964e-05 0.000236357871481999 0.000380641425643397 0.000195277592874575 0.000173465784536943 0.000181767942216401 0.000169477397300555 0.000383139765698745 0.000231223464955704 0.000176547496299491
"295" 8.49767101941097e-05 0.000198498962222945 -0.000116432791680091 0.000116683402522207 -0.00014969364726917 0.000123331902703562 -5.36871276698863e-05 0.000236680719912981 0.000420973614434717 0.00021796895381736 0.000202761305478042 0.000199022552958326 0.000187814803866316 0.000433105276956455 0.000278300820243727 0.000214398456982724
"296" 9.79149527729248e-05 0.000203669678772787 -0.00011420924482151 0.000118185288399096 -0.000131067855826283 0.000135936006320425 -3.76644469123925e-05 0.000237081611965667 0.000460095761068128 0.000240704823099191 0.000231354420592038 0.000215661235960774 0.000205516506801085 0.000481989174686476 0.0003247632576564 0.000251524957728923
"297" 0.000111419198159208 0.000209587918467134 -0.000111341947594744 0.000119822855342779 -0.000110223513956219 0.000149895925080767 -2.1350485763376e-05 0.000237555518979982 0.000497787622813023 0.000263373204042464 0.00025909306702825 0.000231617388667188 0.000222514552189215 0.000529481902896714 0.000370300426567859 0.000287709083923273
"298" 0.000125375957298597 0.000216154249924075 -0.000107804631173408 0.000121571102786277 -8.7280391466069e-05 0.000165073160370051 -4.87772117241646e-06 0.000238097548873636 0.000533840088109198 0.000285859524942747 0.000285836953850299 0.000246834823817177 0.000238755624632581 0.000575288050412435 0.000414612694410425 0.000322749329512053
"299" 0.000139664445944727 0.000223258473986016 -0.000103586066010312 0.000123395275787735 -6.23808411936796e-05 0.000181315502472606 1.16269751916092e-05 0.000238703320015019 0.000568037165357616 0.000308043413489473 0.000311435902130476 0.000261250715217179 0.000254176598577824 0.000619102590533885 0.000457391833517982 0.000356437740281061
"300" 0.000154150027561522 0.000230784199504182 -9.86832089075534e-05 0.000125259650635246 -3.56900047585918e-05 0.000198454300864102 2.80271799474763e-05 0.000239361930161478 0.000600167798109142 0.000329792007173098 0.000335744715781688 0.000274803271611835 0.000268715214487206 0.000660629146114363 0.0004983401959483 0.000388570596241735
"301" 0.000168709155926465 0.000238615716536787 -9.31010502426797e-05 0.000127127126675055 -7.39638499096287e-06 0.000216318312389696 4.41921382991784e-05 0.000240063668489582 0.000630043714952218 0.000350978638417071 0.000358631999586652 0.000287442254923794 0.00028232098760944 0.000699594027008083 0.000537165133729614 0.000418963474120956
"302" 0.000183202727359997 0.000246628141304637 -8.68498757943811e-05 0.000128957063226546 2.230848462085e-05 0.000234718249145423 5.99865228666113e-05 0.000240796657778456 0.000657465882088775 0.000371461487445606 0.000379959855749066 0.000299109253275807 0.000294938727302212 0.000735717063550096 0.00057358279130935 0.000447432291967391
"303" 0.000197500950913025 0.000254701481582678 -7.99502924999045e-05 0.000130710751094769 5.31932068678192e-05 0.000253466597350974 7.5286751149847e-05 0.00024154690366402 0.00068226241250126 0.000391105148162296 0.000399599759559166 0.000309756519368076 0.000306515512584338 0.000768748627129721 0.000607326033100223 0.000473808684807254
"304" 0.00021146985523356 0.000262708006551535 -7.24304222109439e-05 0.00013234339356907 8.50314488570009e-05 0.000272366771498093 8.99629062073701e-05 0.000242298217884426 0.00070426312690074 0.000409765343545063 0.000417433558587526 0.00031933347695055 0.000317004043671905 0.000798444582734978 0.000638132921361252 0.000497934155447201
"305" 0.000224965879484927 0.000270517941792339 -6.4328174845463e-05 0.000133804299847055 0.000117565619828834 0.000291208073236025 0.000103892395213912 0.000243030117921336 0.000723304688916737 0.000427295521603478 0.000433342980593105 0.000327792549449816 0.000326354524511416 0.000824579118700945 0.000665760543104632 0.000519660785035451
"306" 0.000237864745443284 0.000278008887286225 -5.56917362652734e-05 0.000135055748371771 0.000150538996060137 0.000309788497904993 0.000116964593790856 0.000243724441618252 0.000739255244163622 0.000443552646777338 0.000447222989702376 0.000335090829303443 0.000334521333365742 0.000846951986751007 0.000689987394023594 0.000538865341732136
"307" 0.000250035568639353 0.00028505900593903 -4.65677899429033e-05 0.000136046563235215 0.0001836780706986 0.000327896744506525 0.000129065530346151 0.000244357213767012 0.000751997055125043 0.000458394124864346 0.000458984195102081 0.000341192354195865 0.000341472011057588 0.000865396823698194 0.000710620537432144 0.000555435163055051
"308" 0.000261350196058178 0.000291543463409029 -3.70184543459152e-05 0.000136734053068485 0.000216704238152822 0.000345325780537805 0.000140097445215847 0.000244907074896234 0.000761407385291117 0.000471670555213961 0.000468534695317678 0.000346054411879887 0.000347161090189362 0.000879745305544663 0.000727472797579564 0.000569274819590108
"309" 0.000271694156451982 0.000297348087838069 -2.71067715856498e-05 0.000137067759137677 0.00024933385653094 0.000361871195509758 0.000149966334468562 0.000245347667295262 0.000767403155632355 0.000483247257522071 0.000475799948940704 0.000349645092947365 0.000351555290955499 0.000889874260065473 0.000740391335943443 0.00058030710122556
"310" 0.00028095371167244 0.000302358000618962 -1.6901042461454e-05 0.000137007750774845 0.000281281879116057 0.000377330696925214 0.000158594878351793 0.000245651888551483 0.000769916549186125 0.000492985817142188 0.000480723146264874 0.000351936320065126 0.000354626360126959 0.000895691376878061 0.000749257358588605 0.000588482008550219
"311" 0.000289020981440308 0.000306467581511247 -6.4822104735698e-06 0.000136505846483855 0.000312260380048229 0.000391504549028613 0.000165906632691789 0.000245792911643577 0.000768897164707564 0.000500759222119056 0.000483253753249885 0.000352900459802864 0.000356349889130619 0.000897127996302771 0.000753967389885714 0.000593758935993705
"312" 0.000295805418103777 0.000309577280028988 4.07247940729625e-06 0.000135520213073822 0.00034198810380551 0.000404209635497949 0.000171841429516962 0.000245742251044151 0.000764310285798652 0.000506438398302673 0.000483350900175063 0.000352513981406162 0.000356698418197556 0.000894137851267976 0.000754447783222966 0.000596119331147373
"313" 0.000301220479148581 0.000311595658655336 1.46802501968502e-05 0.000134014407277056 0.000370193007715001 0.000415266697899591 0.000176355662381169 0.000245470639389124 0.000756152986815832 0.000509917196506319 0.000480998717603152 0.000350766117415976 0.00035566303054452 0.000886720799950657 0.000750666501456553 0.000595570350342408
"314" 0.000305196010323746 0.000312444806482081 2.52605276459987e-05 0.000131954408045979 0.000396609130736362 0.000424511986764894 0.000179414251237586 0.000244950912755732 0.000744440710178123 0.000511087554446808 0.000476190240585587 0.000347643413512624 0.000353231593315266 0.000874904569830542 0.00074262258615378 0.000592140796269394
"315" 0.000307665617877893 0.000312042956826862 3.57230482045139e-05 0.000129298656486114 0.000420979133397026 0.000431790811126838 0.000180990760647975 0.000244153778990929 0.000729204707440896 0.000509853033410388 0.000468925674516638 0.000343138823915236 0.000349394598585019 0.000858741254760693 0.00073032929627289 0.000585865167495236
"316" 0.000308585524740194 0.000310335710647328 4.59838521430889e-05 0.000126023263187068 0.000443069056056811 0.000436969412746623 0.000181083629501332 0.000243049552862067 0.000710510757666176 0.000506141197543057 0.000459238335303288 0.000337252150396226 0.000344157845445913 0.000838326679432623 0.000713855874122953 0.000576823401465957
"317" 0.00030791787321141 0.000307267850966916 5.5956480439571e-05 0.000122101385423224 0.000462660059061829 0.000439931584901081 0.000179695930238138 0.000241613148870382 0.000688428489503046 0.000499881043492328 0.000447156616543066 0.000329989134307329 0.000337524999335074 0.000813774837952019 0.00069327655141048 0.000565089239689166
"318" 0.000305648100447693 0.000302804471624771 6.55614408329734e-05 0.000117514717876935 0.000479553750718183 0.000440572968564639 0.000176850123831872 0.000239818933144612 0.000663075211565004 0.000491024308599715 0.000432739918231956 0.000321365991323698 0.000329512242637356 0.00078524629190501 0.00066872588119539 0.000550774088529954
"319" 0.000301762571627405 0.000296911126535317 7.4711980705706e-05 0.000112245588620177 0.000493574283691513 0.000438817115532107 0.000172577609676098 0.000237640270681201 0.000634564285009801 0.000479535836843987 0.000416051575987778 0.000311398089026798 0.000320134391818263 0.00075291739207826 0.00064034292822511 0.000533998482997662
"320" 0.000296270757803447 0.000289574741770146 8.33334176332578e-05 0.000106279930828188 0.000504570072344335 0.000434606743745533 0.000166921543188082 0.00023505723922163 0.000603045807318314 0.000465396410891438 0.000397174703270416 0.000300109073461641 0.000309421357694738 0.000716999946431767 0.000608311439168602 0.00051489631832409
"321" 0.000289203944163695 0.000280796179658208 9.13574230935875e-05 9.96216481492833e-05 0.000512425322058072 0.000427906498858837 0.000159948969110075 0.000232049372271141 0.000568689361240484 0.000448613939776734 0.000376211182157685 0.000287537035980698 0.00029740760274088 0.000677740933052385 0.000572841949933988 0.000493636188120468
"322" 0.000280591757103744 0.00027058479577746 9.87208812291162e-05 9.22660623785885e-05 0.000517045941358335 0.000418703040049879 0.000151726961033078 0.000228601024522351 0.000531668978194376 0.000429203177260701 0.000353265788595734 0.000273717426368923 0.000284131044674984 0.000635394608694013 0.000534164694401536 0.000470376205132074
"323" 0.000270495443085887 0.000258963272170729 0.000105359002646732 8.42248082312542e-05 0.000518369691154093 0.000407006795379636 0.000142342047495689 0.000224696779495685 0.000492199614682098 0.000407205799341914 0.000328467132476419 0.000258698599759499 0.000269643172912223 0.000590257556406756 0.00049253925834387 0.000445310758095591
"324" 0.000258976793181631 0.000245971521590569 0.000111224992999032 7.55111721741338e-05 0.00051637311766336 0.000392857176166875 0.000131893175858751 0.000220327582368035 0.00045049392298643 0.000382682220567564 0.00030194884787328 0.000242537019023987 0.000253997660171025 0.000542630698123377 0.000448242002557237 0.000418633125899703
"325" 0.00024611775848858 0.000231650531557054 0.000116273625700814 6.61440065631522e-05 0.000511053154337762 0.000376304619946202 0.000120483405288497 0.000215488579178018 0.000406788459647119 0.000355710743587229 0.000273856938615185 0.000225293288165603 0.000237251857603577 0.000492849732969733 0.000401582738533562 0.000390548336992281
"326" 0.000232014965309049 0.000216064640281162 0.00012047517610025 5.61469875805739e-05 0.00050245021780078 0.000357435496739214 0.000108223407941957 0.000210173370513326 0.000361334168085014 0.000326392836987105 0.000244356296584698 0.000207035953200215 0.00021948284690268 0.000441261769478632 0.000352876258595455 0.000361275606335537
"327" 0.000216771753361342 0.000199287272334291 0.000123800479870532 4.5558569640199e-05 0.000490632946009465 0.000336353339761653 9.52445279834096e-05 0.000204387094103702 0.000314389935767125 0.000294842351512832 0.000213607616287657 0.000187841768530401 0.000200759001661684 0.000388220551466985 0.000302453734252283 0.000331032790571767
"328" 0.000200501689722095 0.000181396205550771 0.000126239322561209 3.44094152703712e-05 0.000475696962175598 0.000313176183921561 8.16691690637395e-05 0.00019813441768582 0.000266224812255214 0.000261199491953163 0.000181784911728492 0.000167789742574402 0.000181164384148313 0.000334096158751529 0.000250664455814644 0.000300051392536644
"329" 0.000183341956353744 0.000162488466773193 0.00012778520109924 2.27515966046861e-05 0.000457775817006219 0.000288055202906959 6.7636961116379e-05 0.000191426146759263 0.00021712252240439 0.000225617749146589 0.000149077715908457 0.00014697393069246 0.00016078525353753 0.000279270203108887 0.00019786261950216 0.000268565364497941
"330" 0.000165425741699138 0.00014266392051178 0.000128450451296626 1.06337109867757e-05 0.000437027734610461 0.000261147504973129 5.32883551766867e-05 0.000184277487007458 0.000167377030586998 0.000188275428890408 0.00011567232764111 0.000125490618064039 0.000139719085561777 0.000224131859885254 0.000144414470067973 0.000236810620391462
"331" 0.000146895607829967 0.000122028265821567 0.00012824670420437 -1.89325443073749e-06 0.000413643187595285 0.000232635781599237 3.87664534981216e-05 0.000176709519089346 0.000117265475112623 0.000149353298073603 8.17571057958974e-05 0.000103440165871729 0.000118060410706237 0.000169058691593544 9.06848401764338e-05 0.000205018746046825
"332" 0.000127904687809157 0.000100707622015153 0.000127203982233175 -1.47619117728136e-05 0.000387833468244221 0.000202713011986983 2.42134768539548e-05 0.000168749971260902 6.7094172638107e-05 0.000109065502626889 4.75325333565935e-05 8.09289602824169e-05 9.59186683304981e-05 0.000114449144898601 3.70411499096436e-05 0.000173426652896205
"333" 0.000108602530470809 7.8814320055504e-05 0.000125356435646462 -2.79192108536579e-05 0.000359833544409518 0.000171585928449809 9.77588667686748e-06 0.000160422711117209 1.71515767932056e-05 6.76184714115846e-05 1.31901315198474e-05 5.80680338513708e-05 7.33943507369278e-05 6.06781691924701e-05 -1.61505879068625e-05 0.000142257638796739
"334" 8.91549212533705e-05 5.64819469925918e-05 0.000122757799860138 -4.12857615249092e-05 0.000329897918749724 0.000139473569139245 -4.40342919233688e-06 0.000151762762666545 -3.22613712926549e-05 2.52504277210289e-05 -2.10655385558953e-05 3.49774982723519e-05 5.06062431220363e-05 8.13111777500133e-06 -6.85284689319938e-05 0.000111742536120116
"335" 6.97221846620748e-05 3.38447731137299e-05 0.000119459338034051 -5.47953796475687e-05 0.000298301686470933 0.000106597140690451 -1.81833784327335e-05 0.000142811024709854 -8.08615385926384e-05 -1.78032754813165e-05 -5.50455959474334e-05 1.17734168599649e-05 2.76638823432421e-05 -4.28231721081728e-05 -0.000119733838868316 8.21002474044279e-05
"336" 5.04623800500182e-05 1.10309761218776e-05 0.00011552925628335 -6.83756987900463e-05 0.000265330392000981 7.31959527220737e-05 -3.14232080509604e-05 0.000133607888139634 -0.000128359978511188 -6.12963423928905e-05 -8.85544880690015e-05 -1.14206402157534e-05 4.68376824642068e-06 -9.1829761343772e-05 -0.000169429964013496 5.35417340284357e-05
"337" 3.1535023228594e-05 -1.18188914305952e-05 0.000111042054076212 -8.19446221987818e-05 0.000231287296188388 3.95003239346153e-05 -4.3997388331041e-05 0.000124199466222129 -0.000174474240942491 -0.000104973590522127 -0.000121399827252675 -3.44763253996271e-05 -1.82088780106052e-05 -0.000138536759031818 -0.000217274125997412 2.62690553426956e-05
"338" 1.30999572390504e-05 -3.4572312178355e-05 0.000106074410241172 -9.54312974433877e-05 0.000196474497698946 5.74924958649489e-06 -5.57745263468845e-05 0.000114633965571745 -0.000218933676995074 -0.00014857623974983 -0.000153399522075801 -5.72722098456559e-05 -4.09016597942779e-05 -0.000182616779820557 -0.000262955860599642 4.7907092387838e-07
"339" -4.69072525187064e-06 -5.7093758987459e-05 0.000100717896164757 -0.000108752163535306 0.000161208843559618 -2.78178527898974e-05 -6.6638535478727e-05 0.000104964912711604 -0.000261481533463657 -0.000191847474867519 -0.000184375282419425 -7.96771442903484e-05 -6.32711002730276e-05 -0.000223758884642761 -0.000306168991902298 -2.36486126553463e-05
"340" -2.16885592491403e-05 -7.92458755526493e-05 9.5062939187192e-05 -0.000121830050900513 0.00012580079603363 -6.09675667108046e-05 -7.64743531053961e-05 9.52465108468072e-05 -0.000301864526548335 -0.000234526003533548 -0.000214154321075012 -0.000101565654105072 -8.51941613987351e-05 -0.000261665533363038 -0.000346627505774199 -4.59454400838522e-05
"341" -3.77521054894849e-05 -0.000100900819220948 8.92072308777772e-05 -0.000134581199302632 9.05652302899611e-05 -9.34695326844611e-05 -8.51859229850637e-05 8.55346858561726e-05 -0.000339850856687677 -0.000276352644609282 -0.000242577640350246 -0.000122810011368192 -0.000106557935633862 -0.00029607026979166 -0.00038407529458559 -6.62539027934408e-05
"342" -5.27474279782922e-05 -0.000121931603687476 8.32507967394998e-05 -0.000146932930535703 5.58149048678731e-05 -0.000125102680723428 -9.26811278918737e-05 7.58921494391612e-05 -0.000375219980930437 -0.000317074904143627 -0.000269489957851952 -0.000143288643411208 -0.00012724230048195 -0.000326731029577116 -0.000418268313658275 -8.44317343728628e-05
"343" -6.65544224580184e-05 -0.000142221460396399 7.72989237714704e-05 -0.000158808920341498 2.18491281559552e-05 -0.000155651153504016 -9.88808179758733e-05 6.63732649997568e-05 -0.00040776721732799 -0.000356445769904942 -0.000294749889428409 -0.000162879651088897 -0.000147136615931287 -0.000353418441868294 -0.000448991114689393 -0.000100352578752879
"344" -7.90522038764457e-05 -0.000161649218124806 7.14536284797506e-05 -0.000170131044018143 -1.10356903912547e-05 -0.00018490932477858 -0.00010370882328987 5.70442676175053e-05 -0.000437305236185359 -0.000394223711263456 -0.000318226892785857 -0.000181463825065465 -0.000166125268949164 -0.000375944508193892 -0.000476050479407634 -0.000113903486899706
"345" -9.01457804126368e-05 -0.000180110626275899 6.58199824330807e-05 -0.000180826362015658 -4.25604042224507e-05 -0.000212687771600839 -0.000107121703388575 4.79613075060286e-05 -0.000463662626601391 -0.000430177343940153 -0.000339796708705396 -0.000198927945173095 -0.000184104622322003 -0.000394134174665421 -0.000499276621878914 -0.000124987508561656
