"V1" "V2" "V4" "V5" "V7" "V8" "V10" "V11" "V13" "V14" "V15" "V17" "V18" "V20" "V21" "V23"
"1" 8.66179793135018e-06 4.55309587194625e-06 4.31359131218624e-06 1.72497053001561e-06 4.85623894293751e-07 -3.52032815363585e-07 -3.15193446274724e-06 4.73814607910639e-06 1.18308070864478e-05 9.96549553472417e-06 9.40193612618408e-06 1.72842108673658e-05 1.97104257874021e-05 1.83168426519647e-05 1.23485898631054e-05 8.70275733177549e-06
"2" 1.79134106100423e-06 5.06547973786857e-06 -3.05295342599783e-06 -5.38480361039453e-06 -4.16412612255051e-07 -1.14798207339781e-06 -1.51693022405122e-06 1.19127804759724e-06 4.92930100410541e-06 -2.35486933456591e-06 5.76637605462684e-06 -1.89985350375998e-06 1.30058231934438e-05 5.33056496008535e-06 6.57226567470657e-06 2.04947736020497e-06
"3" -4.99608414432746e-06 5.57017870151136e-06 -1.03873992522286e-05 -1.24443810437361e-05 -1.33850960914847e-06 -1.95802802755346e-06 1.03776624899917e-07 -2.3397535415291e-06 -1.96016719451353e-06 -1.46370151453981e-05 2.15544065673627e-06 -2.1014792852326e-05 6.26838409435139e-06 -7.65765645239872e-06 8.05970320110458e-07 -4.58368273849428e-06
"4" -1.1616718815008e-05 6.06617455015409e-06 -1.76629753549157e-05 -1.94097674706944e-05 -2.29981972082567e-06 -2.79434084239556e-06 1.69143933843033e-06 -5.84246572648694e-06 -8.81412430654608e-06 -2.68447128392691e-05 -1.40206014035788e-06 -4.00009302460067e-05 -5.34944756267728e-07 -2.06363702158307e-05 -4.94057270129776e-06 -1.11670022066515e-05
"5" -1.79902006918449e-05 6.54223436174396e-06 -2.48425779763666e-05 -2.62236161621412e-05 -3.31661114629353e-06 -3.67181140361141e-06 3.22465869408992e-06 -9.32050081430652e-06 -1.56130793016236e-05 -3.89319343613414e-05 -4.87815899973741e-06 -5.87952495605925e-05 -7.43455119976282e-06 -3.35914587389565e-05 -1.06471691090352e-05 -1.76772393417414e-05
"6" -2.40401797489018e-05 6.99344043063887e-06 -3.19007878466099e-05 -3.28497323847371e-05 -4.40816345970134e-06 -4.60292185493645e-06 4.68337120206813e-06 -1.27598103168103e-05 -2.2339988000641e-05 -5.08673571587219e-05 -8.24495377174729e-06 -7.73386886872716e-05 -1.44497807254292e-05 -4.65163376923305e-05 -1.63063818500447e-05 -2.40914331857299e-05
"7" -2.96894665989091e-05 7.41261123431149e-06 -3.88034697301177e-05 -3.92373028608261e-05 -5.58825926729336e-06 -5.59737291806389e-06 6.04745675528421e-06 -1.61628876703521e-05 -2.89716596821883e-05 -6.26053568260479e-05 -1.14793423346127e-05 -9.55762346516375e-05 -2.16133311820943e-05 -5.93985811026594e-05 -2.19021689131851e-05 -3.03830612812731e-05
"8" -3.48681676337395e-05 7.79382515769059e-06 -4.55249399809413e-05 -4.53499903848337e-05 -6.87593041361128e-06 -6.67063068455402e-06 7.29935068186196e-06 -1.95231809327004e-05 -3.54884031270701e-05 -7.41135276659303e-05 -1.45534254832921e-05 -0.000113454750932402 -2.89460310266577e-05 -7.22254658909628e-05 -2.74205816557875e-05 -3.65314478496272e-05
"9" -3.95129261373294e-05 8.12385969277496e-06 -5.20342859901479e-05 -5.11502680612774e-05 -8.28566980856835e-06 -7.83463900367545e-06 8.41534654596488e-06 -2.28456701195209e-05 -4.18740632887004e-05 -8.53527063804448e-05 -1.74482010235326e-05 -0.000130927343704712 -3.64768786924215e-05 -8.49845643115508e-05 -3.28561957967187e-05 -4.2520015965656e-05
"10" -4.35642680666657e-05 8.39601869200936e-06 -5.83149736737877e-05 -5.66032387487334e-05 -9.8337054416291e-06 -9.09686356330991e-06 9.37348579089679e-06 -2.61171142092128e-05 -4.81068623515973e-05 -9.62930689574847e-05 -2.01400008836978e-05 -0.000147938664648045 -4.42141670963893e-05 -9.76578485619129e-05 -3.81908237157815e-05 -4.83287840135091e-05
"11" -4.69712473114392e-05 8.59707934581729e-06 -6.43365825571254e-05 -6.16783240995602e-05 -1.15323884621372e-05 -1.0475510012813e-05 1.01588917122173e-05 -2.93537301198744e-05 -5.41697308365454e-05 -0.000106902540901473 -2.26161025220437e-05 -0.000164460057219858 -5.21830467179298e-05 -0.000110238375579799 -4.34219057877688e-05 -5.3944913785505e-05
"12" -4.96856742889045e-05 8.71205903427756e-06 -7.00781562069941e-05 -6.63573247289833e-05 -1.33930146458079e-05 -1.19768264631568e-05 1.07485655261091e-05 -3.25516891080821e-05 -6.00465770881349e-05 -0.000117153870416815 -2.48591072057498e-05 -0.000180453229528759 -6.04017197502185e-05 -0.000122711677387756 -4.85400154715349e-05 -5.93533607127065e-05
"13" -5.16746948506194e-05 8.73044969423838e-06 -7.55275973414201e-05 -7.06161637538025e-05 -1.5430660176891e-05 -1.36133259113614e-05 1.11245312514235e-05 -3.57128162228363e-05 -6.57202918402775e-05 -0.000127018462968007 -2.68564338122914e-05 -0.000195884716342915 -6.88788842357471e-05 -0.000135063764144115 -5.35397579561292e-05 -6.45459196527897e-05
"14" -5.29042984672606e-05 8.63765573509172e-06 -8.06660845124811e-05 -7.44398439402528e-05 -1.76495671095216e-05 -1.53919130318782e-05 1.12713156774796e-05 -3.88499212091544e-05 -7.11686017199394e-05 -0.00013646814897215 -2.85987555018167e-05 -0.000210726921768106 -7.76279466053074e-05 -0.000147273463969008 -5.84117307097628e-05 -6.95140478255816e-05
"15" -5.33558880212889e-05 8.41336322900541e-06 -8.54777277040088e-05 -7.78239582228289e-05 -2.00634522957649e-05 -1.73274192972845e-05 1.11694525578954e-05 -4.19721711514492e-05 -7.63877150850723e-05 -0.000145490955369077 -3.0085003023306e-05 -0.000224971969053181 -8.66594455509509e-05 -0.00015933471695021 -6.31634403033306e-05 -7.42560780013991e-05
"16" -5.30157093259949e-05 8.04654514403457e-06 -8.99543994330803e-05 -8.07536549130009e-05 -2.26739718561649e-05 -1.94220598995338e-05 1.08119817549276e-05 -4.50854222346773e-05 -8.13484249335004e-05 -0.000154062184126728 -3.13046924643597e-05 -0.00023859028982514 -9.59709058335762e-05 -0.000171225691744969 -6.77828002074996e-05 -7.87677075719023e-05
"17" -5.18788681284834e-05 7.51591314193639e-06 -9.40851135960341e-05 -8.32412291457028e-05 -2.54898373433021e-05 -2.16848726675946e-05 1.01774137878128e-05 -4.82089856250048e-05 -8.60529363529636e-05 -0.000162168844123234 -3.22623823640327e-05 -0.000251585152599483 -0.000105571198896262 -0.000182937270984997 -7.22804183969948e-05 -8.30529233953719e-05
"18" -4.99507788364684e-05 6.80791490747939e-06 -9.78672997946213e-05 -8.52848449136983e-05 -2.85070617186864e-05 -2.41202799442144e-05 9.25773761489039e-06 -5.13501692617276e-05 -9.04756591123329e-05 -0.000169798641313522 -3.29604714392051e-05 -0.000263946978242085 -0.000115452820321193 -0.000194450146352119 -7.66499647826642e-05 -8.71159860559873e-05
"19" -4.72413528931745e-05 5.90160435631602e-06 -0.000101298613647025 -8.68925642705347e-05 -3.17336702456294e-05 -2.6734502409987e-05 8.05014056745215e-06 -5.45309531077511e-05 -9.46112045489841e-05 -0.000176941055911177 -3.34030763101557e-05 -0.000275680010126187 -0.000125618684399384 -0.00020574826657347 -8.08976956371185e-05 -9.09617213624158e-05
"20" -4.37701661668043e-05 4.78291230292456e-06 -0.000104368780306137 -8.80823552746657e-05 -3.51655749603511e-05 -2.95270957233125e-05 6.54111428512563e-06 -5.77613147097576e-05 -9.84482918897017e-05 -0.000183586957361509 -3.36002286184697e-05 -0.000286783813316198 -0.000136046208184249 -0.000216810231527013 -8.5027084845786e-05 -9.45970506852921e-05
"21" -3.95668859035195e-05 3.43477956282178e-06 -0.000107087033293932 -8.8868134351509e-05 -3.87954704588117e-05 -3.24998696023414e-05 4.73041420352896e-06 -6.10616198531519e-05 -0.00010197464836828 -0.000189734203905492 -3.35647708868608e-05 -0.000297276708635828 -0.000146735248312986 -0.000227625707149929 -8.90424336207843e-05 -9.80378193394828e-05
"22" -3.46642183780055e-05 1.84108410687893e-06 -0.000109453657486387 -8.92745693597702e-05 -4.26150949891247e-05 -3.56484089532917e-05 2.61703878833186e-06 -6.44444123826121e-05 -0.000105179303297392 -0.000195380088913213 -3.33045137099097e-05 -0.000307167430337153 -0.000157660480758119 -0.000238174560635982 -9.29503038583881e-05 -0.000101292930487461
"23" -2.91026566090038e-05 -8.38220518221792e-09 -0.000111474854655906 -8.9327262998224e-05 -4.66210271147696e-05 -3.89716038401339e-05 2.00898023969903e-07 -6.79370512015219e-05 -0.000108061144410721 -0.000200530463158109 -3.28416034537795e-05 -0.000316483427718878 -0.000168805807213671 -0.000248440930577617 -9.67565202623565e-05 -0.000104378813978347
"24" -2.29298100900045e-05 -2.12998875989197e-06 -0.000113152655287809 -8.90498315828412e-05 -5.07964169984047e-05 -4.2455596337948e-05 -2.51473914608264e-06 -7.15438013680058e-05 -0.000110607183997666 -0.000205183931629857 -3.21873696860496e-05 -0.000325233930204097 -0.000180140543230766 -0.000258398456211146 -0.000100465459857822 -0.000107306769191546
"25" -1.6200035528453e-05 -4.53123516687573e-06 -0.00011449907372182 -8.8477145536794e-05 -5.5130661498548e-05 -4.60969021602388e-05 -5.5246104819235e-06 -7.52829349515945e-05 -0.000112813848900959 -0.000209347215846056 -3.13642619720801e-05 -0.000333452456534948 -0.000191642975763252 -0.000268041310513616 -0.000104085776751378 -0.000110098664650222
"26" -8.96785370700825e-06 -7.21860725116932e-06 -0.000115517428470772 -8.76332916114127e-05 -5.96011696228738e-05 -4.98799112439733e-05 -8.81146698700488e-06 -7.91764067285082e-05 -0.000114677018130342 -0.00021303193188292 -3.03934347699953e-05 -0.000341164387230362 -0.000203272048122238 -0.000277339224951798 -0.000107623859888014 -0.000112767075065234
"27" -1.29669672614958e-06 -1.01964626648551e-05 -0.000116227328791903 -8.65614888349666e-05 -6.41913633501343e-05 -5.3787112537579e-05 -1.23750047724455e-05 -8.32288246109612e-05 -0.000116191357435769 -0.000216245970990057 -2.92934645402046e-05 -0.000348395696040326 -0.000214992900888349 -0.000286278208148305 -0.0001110819943053 -0.000115334449013183
"28" 6.74919290797084e-06 -1.34666724081475e-05 -0.000116628370862876 -8.5288408625019e-05 -6.88752132856261e-05 -5.78006292464508e-05 -1.61917335377095e-05 -8.74517204738408e-05 -0.00011735257699295 -0.000219000084708091 -2.80848182225786e-05 -0.000355176598830435 -0.000226766818418846 -0.000294836273910833 -0.000114465073908261 -0.000117810887769653
"29" 1.51074389258566e-05 -1.70237691421377e-05 -0.000116740779057571 -8.3852494358658e-05 -7.36299096205725e-05 -6.18971076484742e-05 -2.02528810621395e-05 -9.18577990918368e-05 -0.000118162184336597 -0.000221307837903513 -2.67902792656039e-05 -0.000361538071446385 -0.000238545226397413 -0.000302996474025187 -0.00011777259704886 -0.000120216698351913
"30" 2.37031268674406e-05 -2.08624709927032e-05 -0.000116570688956136 -8.22846971536868e-05 -7.84237663082478e-05 -6.60504967632167e-05 -2.45355308765128e-05 -9.64427546589367e-05 -0.000118616120892756 -0.000223188746168427 -2.54342689203644e-05 -0.000367506908347969 -0.000250276513261144 -0.000310733303656573 -0.000121014231834292 -0.000122567940099063
"31" 3.24730620585101e-05 -2.49739821005069e-05 -0.00011613050464097 -8.06169874170182e-05 -8.32298892629535e-05 -7.02328481054327e-05 -2.90135226685047e-05 -0.000101218324643585 -0.00011871148100835 -0.000224655001586003 -2.40312569261522e-05 -0.000373112861656558 -0.000261915128586163 -0.000318032376833952 -0.000124180461308578 -0.000124876961174702
"32" 4.13440072218833e-05 -2.93404772748199e-05 -0.000115431003639332 -7.88831353197206e-05 -8.80140293655372e-05 -7.44116130383687e-05 -3.3668344106225e-05 -0.0001061798257557 -0.000118458348621452 -0.000225729736626502 -2.26081896359055e-05 -0.000378384935175197 -0.00027340255770988 -0.000324871474885235 -0.000127277226269076 -0.000127156579537141
"33" 5.02500321716912e-05 -3.39440541415566e-05 -0.000114487863434543 -7.7109884152198e-05 -9.27375927843839e-05 -7.85540745451387e-05 -3.84752896435696e-05 -0.000111323676251655 -0.000117844688343439 -0.000226423151314617 -2.11769974612219e-05 -0.000383343936966171 -0.000284682723671254 -0.000331228513444495 -0.000130292894669647 -0.000129415234544531
"34" 5.91267422331728e-05 -3.87625793003178e-05 -0.000113311395760512 -7.53290638553668e-05 -9.73704719637578e-05 -8.26241380063073e-05 -4.33996746014977e-05 -0.000116638341229051 -0.000116889766461466 -0.000226763204735712 -1.97621820599059e-05 -0.000388019920262864 -0.000295695282377788 -0.000337088585648648 -0.000133225853224946 -0.000131663010266229
"35" 6.79087315798926e-05 -4.3767552908558e-05 -0.000111908823653804 -7.35599790239173e-05 -0.000101872415643498 -8.65773169698382e-05 -4.84142391627466e-05 -0.000122116703827965 -0.000115582587080512 -0.000226761929336706 -1.83711830230305e-05 -0.000392426501621461 -0.000306378873069888 -0.000342427123335018 -0.000136069207577984 -0.000133906640583355
"36" 7.65322876864918e-05 -4.8929520741064e-05 -0.000110291947231943 -7.18259985277379e-05 -0.000106202114867269 -9.03755854282924e-05 -5.34860044015254e-05 -0.000127744110314504 -0.000113937574916914 -0.000226445518498936 -1.70236820259039e-05 -0.000396586548824309 -0.00031667409716885 -0.000347233821822792 -0.000138809769225317 -0.000136152438879002
"37" 8.494664398472e-05 -5.42099419166946e-05 -0.000108471214539893 -7.01409854323378e-05 -0.000110319554113569 -9.39771445567273e-05 -5.8572728139613e-05 -0.000133502529037805 -0.000111955422458117 -0.000225828423234146 -1.57259042932252e-05 -0.000400506700442466 -0.000326519400972512 -0.000351486472400349 -0.000141432709451263 -0.000138395770931734
"38" 9.30913606140298e-05 -5.9570167605796e-05 -0.000106453291105892 -6.85258126202238e-05 -0.000114185187969173 -9.73361801266989e-05 -6.36524894456503e-05 -0.000139365864205023 -0.000109649820745909 -0.000224937243856403 -1.44940923808596e-05 -0.000404204054023806 -0.000335851704941727 -0.0003551726995814 -0.000143930608721117 -0.000140634751875918
"39" 0.000100923382725402 -6.4970269224891e-05 -0.00010424763893792 -6.69803702274978e-05 -0.000117760601880887 -0.000100409234726401 -6.86727551842844e-05 -0.000145321201844741 -0.000107021377664721 -0.000223787844520949 -1.33293987672317e-05 -0.000407683518106946 -0.000344613145339914 -0.000358278955255626 -0.000146282181363198 -0.000142868326224295
"40" 0.000108399739120183 -7.03668187112053e-05 -0.000101861424603034 -6.55144730377886e-05 -0.000121001916332992 -0.000103152082053611 -7.35999050094589e-05 -0.000151333326992799 -0.00010408263919865 -0.000222401866829077 -1.22354322390616e-05 -0.000410942666581868 -0.000352745242569495 -0.000360788915426952 -0.000148469321861158 -0.000145086182406811
"41" 0.000115479981052221 -7.57061835975253e-05 -9.93011702982716e-05 -6.41302096318673e-05 -0.000123873781499188 -0.00010552003547943 -7.83878512723808e-05 -0.000157380875437207 -0.000100846311147575 -0.000220799548507584 -1.12180608203336e-05 -0.000413984892487833 -0.000360189971857971 -0.000362700454161394 -0.000150476614110044 -0.000147277089633377
"42" 0.000122130456134845 -8.09461221307013e-05 -9.65731243680081e-05 -6.28270910852289e-05 -0.000126332605404891 -0.000107464947493003 -8.30024033278927e-05 -0.000163420707295504 -9.7320294446314e-05 -0.000218998236127398 -1.02734224318469e-05 -0.000416803839613753 -0.000366900117925996 -0.000364002337997126 -0.00015228046833157 -0.000149428776790658
"43" 0.000128326668433422 -8.60328550298119e-05 -9.36817531928237e-05 -6.15913608385453e-05 -0.000128346176898747 -0.000108949661204639 -8.73932565090415e-05 -0.000169437241224479 -9.35218462501129e-05 -0.000217019261488854 -9.39835585894683e-06 -0.00041938859866831 -0.000372820473554309 -0.000364690598555464 -0.000153858794375381 -0.000151528276420325
"44" 0.000134044480023179 -9.09178499881275e-05 -9.06377967031734e-05 -6.04220323118026e-05 -0.000129882332291799 -0.000109935767003635 -9.15215140144951e-05 -0.00017538454832407 -8.94676295453614e-05 -0.000214886512261629 -8.59091387055097e-06 -0.000421737521647174 -0.000377919859888366 -0.000364771342189089 -0.000155197383844545 -0.000153555379847314
"45" 0.000139271417055307 -9.55466758184293e-05 -8.74407177357006e-05 -5.92985933734528e-05 -0.00013090486293652 -0.000110378821861778 -9.53456161119583e-05 -0.000181236637344372 -8.51668348730529e-05 -0.000212607852715162 -7.84042180492298e-06 -0.000423824038652454 -0.000382145712269108 -0.000364237130100661 -0.000156267648693008 -0.000155490184557479
"46" 0.000143993702846618 -9.98760017243541e-05 -8.40997619826451e-05 -5.82007674564918e-05 -0.000131386875983679 -0.000110248529612041 -9.88147228249544e-05 -0.000186962093227225 -8.06399882096948e-05 -0.000210207495762721 -7.13762447075624e-06 -0.000425638602468008 -0.000385478229441303 -0.000363100615883294 -0.000157050355988593 -0.000157312485645065
"47" 0.000148206077292591 -0.000103852213475413 -8.0621001343948e-05 -5.71185509915329e-05 -0.000131299895623331 -0.00010951197725876 -0.00010189784604478 -0.000192519861814887 -7.59063968933411e-05 -0.000207703098681043 -6.4734923572098e-06 -0.000427161091801664 -0.000387882771645768 -0.00036136832818951 -0.000157523111930334 -0.000158999682055368
"48" 0.00015191163442861 -0.000107435098128044 -7.70047498397052e-05 -5.60257942995708e-05 -0.000130628131789963 -0.000108143492889345 -0.00010454956461233 -0.000197887120078672 -7.09883786359446e-05 -0.000205113131026699 -5.83554371317447e-06 -0.000428373848495296 -0.000389344970479394 -0.000359053035059141 -0.000157668109465105 -0.000160525080176984
"49" 0.000155107951242507 -0.000110577943491518 -7.32677730008482e-05 -5.48998985636278e-05 -0.000129349299110586 -0.000106119908623972 -0.000106733703440916 -0.000203024170601768 -6.59039450707399e-05 -0.000202451889213995 -5.2088489608563e-06 -0.000429254466986844 -0.000389853839224849 -0.000356174668844431 -0.00015746960110403 -0.00016187057331353
"50" 0.000157807726510482 -0.000113244399161577 -6.94103991008328e-05 -5.37135189764867e-05 -0.000127454940727921 -0.000103420494746171 -0.000108416009501877 -0.000207907484487397 -6.06756441202346e-05 -0.000199734482810385 -4.58088213485347e-06 -0.000429781852875642 -0.000389404668094841 -0.000352754108119389 -0.000156910390669102 -0.000163007440984679
"51" 0.000160020173726919 -0.000115401618071711 -6.54472911552482e-05 -5.24469043805238e-05 -0.000124932774438513 -0.000100034759766654 -0.000109561743560945 -0.000212508303801959 -5.53312677743105e-05 -0.000196982544114849 -3.93699499584249e-06 -0.00042993708861945 -0.000388002644449707 -0.000348816682263616 -0.000155973799017043 -0.000163911560806933
"52" 0.000161757619716863 -0.00011702038399961 -6.13850471766199e-05 -5.10753167705187e-05 -0.000121780571842255 -9.5957935406021e-05 -0.00011014934173463 -0.000216805639634504 -4.98960334797883e-05 -0.000194214777283009 -3.26523079497628e-06 -0.00042970514870297 -0.000385662187275403 -0.000344395404787653 -0.000154654699476321 -0.000164562338586124
"53" 0.000163038290796588 -0.000118079971569152 -5.72400554359476e-05 -4.95712949456853e-05 -0.000118001464423273 -9.11834728681334e-05 -0.000110151141477851 -0.000220774405958286 -4.43936053210029e-05 -0.000191440971460605 -2.54802817008996e-06 -0.000429060352798292 -0.000382403993377912 -0.000339523125581077 -0.000152941061328924 -0.000164935790186339
"54" 0.000163880221736488 -0.000118563802239654 -5.3024542651328e-05 -4.79190281791172e-05 -0.000113598984414668 -8.57210423942943e-05 -0.000109551568490353 -0.000224394051966528 -3.88517305203363e-05 -0.000188679350149154 -1.76975161021049e-06 -0.000427988089847574 -0.00037824937535878 -0.000334231681568334 -0.000150830516794391 -0.000165011894879291
"55" 0.00016430320887735 -0.000118463010207334 -4.87556692034228e-05 -4.6091324559685e-05 -0.000108591992423116 -7.95788980844815e-05 -0.000108330441348516 -0.00022765626931978 -3.33004447778089e-05 -0.000185947876749665 -9.22024175337016e-07 -0.000426477322565149 -0.000373245011955989 -0.00032856784575743 -0.000148319173178091 -0.000164770512078601
"56" 0.000164323184794673 -0.000117779693134225 -4.44539504656961e-05 -4.40800385027453e-05 -0.000102994139678901 -7.27757793196697e-05 -0.000106489250870339 -0.000230542367319937 -2.77679522667881e-05 -0.000183264075644183 6.69441160819859e-09 -0.000424513885457272 -0.0003674275978254 -0.000322580798691411 -0.000145411826473732 -0.000164198134309762
"57" 0.000163961668431124 -0.000116520449861043 -4.01366654685241e-05 -4.18666267211579e-05 -9.68324879665514e-05 -6.53357994608825e-05 -0.000104025460599398 -0.000233048252780761 -2.2289624867058e-05 -0.000180642189983824 1.03054677983654e-06 -0.000422094402504837 -0.000360858037679101 -0.000316309068672707 -0.000142117529454907 -0.000163279511266139
"58" 0.000163240290940227 -0.000114703417368532 -3.58281731429129e-05 -3.94395777279345e-05 -9.01322746243697e-05 -5.72891922931171e-05 -0.000100941582738129 -0.000235176866064621 -1.68887957826778e-05 -0.000178097815210384 2.15403425975554e-06 -0.00041921064035165 -0.000353590766490563 -0.000309811264222104 -0.000138441724880865 -0.000162002997240005
"59" 0.000162171558352818 -0.00011235008695381 -3.15553819002153e-05 -3.67976876504871e-05 -8.29309629368894e-05 -4.86729584243254e-05 -9.72529069350873e-05 -0.000236917580599334 -1.16044329844719e-05 -0.000175651877636168 3.38360138716843e-06 -0.000415864246283208 -0.000345694016186568 -0.000303144018338327 -0.000134403849128666 -0.000160363663624294
"60" 0.000160776153800815 -0.00010949764383026 -2.73459405754647e-05 -3.39398349506277e-05 -7.5268836925374e-05 -3.95301233860463e-05 -9.29799103838047e-05 -0.000238280240172315 -6.4612423584782e-06 -0.000173315309649762 4.72492898920255e-06 -0.000412051971026913 -0.000337242156790466 -0.000296355449297543 -0.000130021865530255 -0.000158357382626445
"61" 0.00015906353426408 -0.000106189407813101 -2.32325100645617e-05 -3.08661124855947e-05 -6.71893005711747e-05 -2.99099434531739e-05 -8.81456574383486e-05 -0.000239277751801655 -1.49307118260755e-06 -0.000171105500644334 6.1813457655326e-06 -0.000407787579862296 -0.000328312759110149 -0.000289507850092104 -0.000125318269326635 -0.000155983621009097
"62" 0.000157046205748523 -0.000102472880200297 -1.92457503379394e-05 -2.75915375721035e-05 -5.87431525615737e-05 -1.98670037125081e-05 -8.27877600270912e-05 -0.000239916689662966 3.26829168735474e-06 -0.000169045540617996 7.74874508112018e-06 -0.000403078044401855 -0.000318992349148127 -0.0002826627391937 -0.00012032436204869 -0.000153247341133218
"63" 0.000154734341838757 -9.8411641413483e-05 -1.54223502419657e-05 -2.41319387063524e-05 -4.9980265970007e-05 -9.46297167227823e-06 -7.69426196032309e-05 -0.0002402161225501 7.78856323818947e-06 -0.000167145852455399 9.42275126801054e-06 -0.000397941251940326 -0.000309366353038257 -0.000275881100503968 -0.000115070546666241 -0.000150156036548397
"64" 0.000152126674685029 -9.40712184486367e-05 -1.18034552664309e-05 -2.05014708469218e-05 -4.09635328867985e-05 1.23916190247084e-06 -7.06599271876711e-05 -0.000240200076073606 1.20440070748298e-05 -0.00016541898600479 1.12019001337704e-05 -0.000392390241833741 -0.00029952971255367 -0.000269219163560819 -0.000109588111470451 -0.000146724679182115
"65" 0.000149229109094112 -8.95311968276509e-05 -8.4214583164425e-06 -1.67328769096449e-05 -3.17535985530574e-05 1.21681679573877e-05 -6.39953332794956e-05 -0.000239888268737178 1.60006126810143e-05 -0.000163886453020581 1.30734064861548e-05 -0.000386450331524757 -0.000289577494623298 -0.000262739134097854 -0.000103917766655639 -0.000142964135236456
"66" 0.000146040531605753 -8.4870678639253e-05 -5.32175045662606e-06 -1.2853766399707e-05 -2.24114988045379e-05 2.32502745494767e-05 -5.70014152518289e-05 -0.000239309347037812 1.96312631995052e-05 -0.00016256091332367 1.50286442419132e-05 -0.000380145480279435 -0.000279610526281073 -0.000256500062144144 -9.81026891492466e-05 -0.000138899847354398
"67" 0.00014255145567626 -8.01822954408019e-05 -2.54511692708963e-06 -8.90017637194257e-06 -1.30038646058452e-05 3.44105027980247e-05 -4.97435100757155e-05 -0.000238500498871842 2.29103587145331e-05 -0.000161454769146136 1.70547908293703e-05 -0.000373503076298168 -0.000269722420382503 -0.000250562237776826 -9.21888330163044e-05 -0.000134553377671448
"68" 0.000138753027646487 -7.55560590398128e-05 -1.3647065349497e-07 -4.92002676748073e-06 -3.60288985831619e-06 4.55647646297972e-05 -4.22932809948887e-05 -0.000237484010224683 2.58107889550075e-05 -0.000160586746607153 1.91315080394917e-05 -0.000366556113397529 -0.000260017900790737 -0.000244980453801743 -8.62199729841422e-05 -0.000129953688518929
"69" 0.000134631273304556 -7.10955151884957e-05 1.86283772031955e-06 -9.47985158654643e-07 5.72492068680683e-06 5.66349982365399e-05 -3.47179841008974e-05 -0.000236313176285409 2.83098944469856e-05 -0.000159960217973836 2.12412600551809e-05 -0.000359338044705119 -0.000250594999380872 -0.000239814043818473 -8.02487414836484e-05 -0.000125133523479607
"70" 0.000130172707492246 -6.68999965442142e-05 3.41003454981298e-06 2.9583186516082e-06 1.4908632860927e-05 6.75390819552168e-05 -2.70926934446776e-05 -0.000235009589615913 3.03874110862367e-05 -0.000159589608015038 2.33676615933822e-05 -0.000351879367474208 -0.000241546277762764 -0.000235099870840384 -7.43203153966918e-05 -0.000120126095248007
"71" 0.000125358415883654 -6.30738185427792e-05 4.4621277306192e-06 6.74628020485674e-06 2.38788161166596e-05 7.81923894426489e-05 -1.94973918839409e-05 -0.00023362308777843 3.20207952674884e-05 -0.000159486824094848 2.54858786536957e-05 -0.000344225096984437 -0.000232970817922921 -0.000230897372840899 -6.84922140558531e-05 -0.000114971131681119
"72" 0.00012016652280265 -5.97250395255464e-05 4.97612010573534e-06 1.03656401622406e-05 3.25679736655676e-05 8.8511593311768e-05 -1.20063124544282e-05 -0.000232196867076835 3.32029632109241e-05 -0.000159653943974562 2.75736655819378e-05 -0.000336406362989146 -0.000224961521282358 -0.000227240721267457 -6.28104194140015e-05 -0.000109704509254457
"73" 0.000114570119735999 -5.69567196769637e-05 4.9149494266003e-06 1.37577584635305e-05 4.09065048141793e-05 9.84205212703862e-05 -4.69214253975168e-06 -0.000230768452487927 3.39128713150307e-05 -0.000160101202975967 2.96050081285724e-05 -0.000328464471073289 -0.000217602125397991 -0.000224173004998343 -5.73315584184927e-05 -0.000104370786273501
"74" 0.000108548654732828 -5.48748718200774e-05 4.23867724669596e-06 1.68638750726812e-05 4.88293637240079e-05 0.000107834758988076 2.36161678176831e-06 -0.000229379769258254 3.41438280440759e-05 -0.000160830547687796 3.15542663632631e-05 -0.000320440417734323 -0.00021097591974793 -0.000221724421230695 -5.21044134799691e-05 -9.90148753077643e-05
"75" 0.000102076210701692 -5.35783700299117e-05 2.91112620925157e-06 1.96251696406494e-05 5.62797242793387e-05 0.000116686160293147 9.08522223674538e-06 -0.000228073195423725 3.38890416669738e-05 -0.000161840654713656 3.3399602649744e-05 -0.000312368178770286 -0.000205156262194186 -0.000219919322990672 -4.71805785293955e-05 -9.36794622304953e-05
"76" 9.5125104153738e-05 -5.31584938859212e-05 9.05095809352621e-07 2.198863684471e-05 6.31960137535277e-05 0.000124899044079018 1.54078340421806e-05 -0.000226889932706194 3.31467140859499e-05 -0.000163129698810141 3.51114176840089e-05 -0.000304288774432497 -0.000200213121692065 -0.000218777323537149 -4.26001214832698e-05 -8.84126276304092e-05
"77" 8.76699665785889e-05 -5.3712040793943e-05 -1.80752689252895e-06 2.38918360199716e-05 6.95271865607479e-05 0.000132411135790036 2.1263054074718e-05 -0.000225868119723274 3.1913936789834e-05 -0.000164700539255624 3.66655742380757e-05 -0.000296240059475389 -0.000196209551459388 -0.000218314800074926 -3.84137517412386e-05 -8.32558755181671e-05
"78" 7.96887703338023e-05 -5.53166658223276e-05 -5.25091332694827e-06 2.52905982669685e-05 7.52280416257387e-05 0.000139162495808164 2.65893067456758e-05 -0.000225047539764884 3.02008971922206e-05 -0.000166539642974632 3.80402210395855e-05 -0.000288251170103886 -0.00019319047736436 -0.000218533153415354 -3.46582696578775e-05 -7.82545868196952e-05
"79" 7.1156518524089e-05 -5.8047285115251e-05 -9.44660908145858e-06 2.61293822536018e-05 8.02524177379167e-05 0.00014510245966971 3.13321489472141e-05 -0.000224454191971048 2.80151145443718e-05 -0.000168640715935866 3.92099482273355e-05 -0.000280359858041756 -0.000191197065310945 -0.000219433421105501 -3.13746773477235e-05 -7.34531891511583e-05
"80" 6.20555232164383e-05 -6.19650146548369e-05 -1.43989438052393e-05 2.63667731531785e-05 8.45696249984655e-05 0.000150182558866728 3.54440385930232e-05 -0.000224124216749772 2.53644981914545e-05 -0.00017098959167593 4.01501909404309e-05 -0.00027259555872661 -0.000190269989717407 -0.000221008213658139 -2.8593007130665e-05 -6.88928924522497e-05
"81" 5.23676279559314e-05 -6.71233318965935e-05 -2.01194828771959e-05 2.59670235550937e-05 8.81516306992446e-05 0.00015437253077353 3.88844007601703e-05 -0.000224085602376179 2.22709947481546e-05 -0.000173574253915232 4.08458107119985e-05 -0.000264984222540391 -0.000190420698466461 -0.000223240670222953 -2.63401931036245e-05 -6.46138092147518e-05
"82" 4.20829845054929e-05 -7.35633761882924e-05 -2.660904267507e-05 2.48908446118714e-05 9.09750386189886e-05 0.000157643880728439 4.16168892112962e-05 -0.000224353828321047 1.8750803249851e-05 -0.000176373123387655 4.12797524012793e-05 -0.00025754701076878 -0.000191662009538422 -0.000226104992498003 -2.46394300332285e-05 -6.06513017684874e-05
"83" 3.11939148730724e-05 -8.13082904980511e-05 -3.38581392346205e-05 2.31181290273399e-05 9.30314819138177e-05 0.000159979774593505 4.36222460042768e-05 -0.000224953478762063 1.48342642506159e-05 -0.000179366365818514 4.14350168370217e-05 -0.000250306866412581 -0.000193992595709956 -0.000229575743577145 -2.35066766688641e-05 -5.70360383972909e-05
"84" 1.96965706263417e-05 -9.03696131349802e-05 -4.18545849728503e-05 2.06321686832776e-05 9.43167205506789e-05 0.000161371583588542 4.48869036332623e-05 -0.000225890368360375 1.05388402015403e-05 -0.000182528716689562 4.13011572803013e-05 -0.000243280779606408 -0.000197397457386621 -0.000233608300410568 -2.29552259651913e-05 -5.37997798549201e-05
"85" 7.5965876834273e-06 -0.000100746197633726 -5.05819230503313e-05 1.74212907115256e-05 9.48307690074066e-05 0.000161824707674365 4.5406036308487e-05 -0.000227176043901648 5.9086790922879e-06 -0.000185838084583534 4.08710793365112e-05 -0.000236475068955914 -0.000201854908738054 -0.000238162899541511 -2.29834401382384e-05 -5.09656483566578e-05
"86" -5.09817842174626e-06 -0.000112422690395898 -6.00053592015222e-05 1.34873295350578e-05 9.45917739040023e-05 0.000161351626252084 4.51851670933006e-05 -0.000228806270792702 9.70514305488383e-07 -0.000189259146451883 4.01412486833134e-05 -0.000229898465794088 -0.000207324887084174 -0.000243180971878249 -2.35905707993189e-05 -4.8552872069599e-05
"87" -1.83658082389658e-05 -0.000125361246122502 -7.009539704716e-05 8.83824689330796e-06 9.36202273956479e-05 0.0001599777578467 4.42403046864283e-05 -0.000230778381035523 -4.23681341845201e-06 -0.000192763422996282 3.91074919055479e-05 -0.000223554067328346 -0.000213758448944211 -0.000248610952812138 -2.4767300510967e-05 -4.65752484512995e-05
"88" -3.21868486541713e-05 -0.000139515519987904 -8.08047428531145e-05 3.49932383744984e-06 9.1943062400496e-05 0.000157739041751168 4.25939510680888e-05 -0.000233085526499684 -9.6690441332942e-06 -0.000196315702561082 3.77742020271102e-05 -0.000217438354026709 -0.000221101784031765 -0.000254381118246391 -2.64930411444152e-05 -4.50463697632007e-05
"89" -4.65254572159767e-05 -0.000154821438485921 -9.20897481829998e-05 -2.50131651983233e-06 8.96002715575824e-05 0.000154680134598758 4.02899363289644e-05 -0.000235703734660118 -1.5284273586311e-05 -0.000199878128001701 3.61525458119547e-05 -0.000211540412675433 -0.000229277232811355 -0.000260421738964889 -2.87470292194894e-05 -4.39623348197467e-05
"90" -6.13472400595115e-05 -0.000171199705215214 -0.000103894389227734 -9.13017069972495e-06 8.66371101077818e-05 0.000150857182770095 3.736909199255e-05 -0.000238613334759222 -2.10380456751464e-05 -0.000203413554228574 3.42509670513275e-05 -0.00020585218141338 -0.000238215255150736 -0.00026666174899333 -3.14989816809194e-05 -4.33263448544542e-05
"91" -7.65980049883177e-05 -0.000188556350911392 -0.000116153265289972 -1.63261808381027e-05 8.31089697459589e-05 0.000146331098161065 3.38870416769925e-05 -0.000241789287994427 -2.68815329210091e-05 -0.00020688472327996 3.2083780300085e-05 -0.000200353625102242 -0.000247818190938943 -0.00027302198419472 -3.47080316422042e-05 -4.31294879533114e-05
"92" -9.2230085974637e-05 -0.000206786199964273 -0.000128796935691281 -2.40380766646453e-05 7.90745226057775e-05 0.000141181543058577 2.99075457723951e-05 -0.000245193783868053 -3.27652606762084e-05 -0.000210247055093383 2.96743946903705e-05 -0.000195021317543898 -0.000257994830407371 -0.000279412456576483 -3.8335358649869e-05 -4.33533470612824e-05
"93" -0.000108179187889434 -0.00022576830995933 -0.00014175639963117 -3.21917982032523e-05 7.45988813116005e-05 0.000135482867297065 2.55043378751882e-05 -0.000248791206382113 -3.86401139426557e-05 -0.000213458502685482 2.70433458669505e-05 -0.000189829748278838 -0.000268636318028896 -0.000285747753459029 -4.23269795293473e-05 -4.39818297739857e-05
"94" -0.000124373576542902 -0.000245372072930149 -0.000154951714689115 -4.0712970865578e-05 6.97571485984945e-05 0.000129330352410653 2.07548508705266e-05 -0.00025252832144077 -4.44535523630206e-05 -0.000216476275865253 2.42205339368778e-05 -0.000184744657592582 -0.00027963479712518 -0.000291943260965348 -4.66314511785672e-05 -4.49894621997417e-05
"95" -0.000140741596683683 -0.000265456401436676 -0.000168292136764589 -4.95106636069307e-05 6.4626835722914e-05 0.000122813143429785 1.57455405866148e-05 -0.000256374957037118 -5.01515814407509e-05 -0.000219259756766428 2.12379074638247e-05 -0.000179735312762412 -0.000290879415057736 -0.000297904186675832 -5.11851620493246e-05 -4.63435232466167e-05
"96" -0.000157202626314948 -0.000285868135424226 -0.00018170096025676 -5.84914855584631e-05 5.92876678300784e-05 0.000116036302764656 1.05748321320793e-05 -0.00026027236022647 -5.56898774337168e-05 -0.000221763288503603 1.8125876177197e-05 -0.000174761423337794 -0.000302246830752497 -0.000303548444430682 -5.59273841071326e-05 -4.80078965260003e-05
"97" -0.000173666032386366 -0.000306456008195651 -0.000195080276263764 -6.7558075782339e-05 5.38266960166996e-05 0.000109101402461913 5.32962414554892e-06 -0.000264163953541191 -6.10145419355421e-05 -0.000223945431014854 1.49238153148472e-05 -0.000169781590256749 -0.000313613446533191 -0.000308780560922011 -6.07894372317525e-05 -4.99447738937415e-05
"98" -0.000190041866218132 -0.000327050342977008 -0.000208341283535448 -7.6597867285569e-05 4.8326814703041e-05 0.00010211555086562 1.17269785516612e-07 -0.000267997062513057 -6.60763390176575e-05 -0.000225763603816103 1.16732194768624e-05 -0.000164752030562305 -0.00032486282451687 -0.000313510489961246 -6.56984563042306e-05 -5.21038781047135e-05
"99" -0.000206236812901586 -0.000347489821911766 -0.000221388123181563 -8.55031409488873e-05 4.28835517508074e-05 9.51878986033797e-05 -4.95798317630124e-06 -0.000271717439454754 -7.08282723415636e-05 -0.000227183423218357 8.41175305233599e-06 -0.000159630419191844 -0.000335870015607448 -0.000317657125405631 -7.05846930920415e-05 -5.44435069496782e-05
"100" -0.000222147338372716 -0.000367598615593209 -0.00023412825485149 -9.41609366000078e-05 3.75841831361465e-05 8.84292352710611e-05 -9.79519101939196e-06 -0.000275264302800562 -7.52223745901702e-05 -0.000228159530902808 5.18655269193123e-06 -0.000154365462939995 -0.000346513832834532 -0.000321131558003707 -7.53701123423428e-05 -5.69106257660842e-05
"101" -0.0002376742009406 -0.000387213735122188 -0.000246462670354447 -0.00010245051640959 3.25134211663912e-05 8.19468393665603e-05 -1.42871270490023e-05 -0.000278586138755858 -7.92173368155502e-05 -0.000228657972749984 2.04206675236416e-06 -0.000148917002792204 -0.000356682185049435 -0.000323860024462146 -7.99788673429855e-05 -5.94492845358299e-05
"102" -0.000252715069915508 -0.000406159049593683 -0.000258303342337191 -0.000110257583151148 2.77637836156042e-05 7.58506779415973e-05 -1.83299901371481e-05 -0.00028162003331418 -8.27677742678219e-05 -0.000228645014151462 -9.78581387270944e-07 -0.000143232609534156 -0.000366256706921777 -0.00032576267159425 -8.43413255037162e-05 -6.20046723829961e-05
"103" -0.000267166735533573 -0.000424276190105784 -0.000269555880185376 -0.000117461541128914 2.34156912348736e-05 7.02383847365809e-05 -2.18196211745719e-05 -0.000284315160156543 -8.5841421246172e-05 -0.000228093312284698 -3.82818009972057e-06 -0.000137270753778441 -0.000375133871276713 -0.000326777855955838 -8.83818864351113e-05 -6.45210866502188e-05
"104" -0.000280926272508632 -0.000441396327696803 -0.000280131312653594 -0.000123946295903904 1.95565872017987e-05 6.52181997719048e-05 -2.46577920741221e-05 -0.000286621359403804 -8.83979461717441e-05 -0.00022696966693005 -6.46310410424133e-06 -0.000130986614945858 -0.000383210472407767 -0.000326835729210156 -9.20259201366513e-05 -6.69405554717399e-05
"105" -0.000293896865210238 -0.000457369570922364 -0.000289949032374836 -0.000129604464023812 1.6260990100624e-05 6.08775131087587e-05 -2.67507858243942e-05 -0.000288483637161053 -9.04129288752838e-05 -0.00022525639878943 -8.8375981003282e-06 -0.000124342925093195 -0.000390398371773177 -0.000325886856052082 -9.52094154830569e-05 -6.92095101143045e-05
"106" -0.000305975847997609 -0.000472049711569126 -0.000298923659641096 -0.000134324142365822 1.35993649465571e-05 5.73075317006228e-05 -2.8013005159206e-05 -0.000289861303083069 -9.18562283382579e-05 -0.000222934731357444 -1.09130285887335e-05 -0.000117303517339643 -0.000396612903057649 -0.000323886081775563 -9.78654898113225e-05 -7.12698587277492e-05
"107" -0.00031707201197391 -0.000485298874790704 -0.000306984336265218 -0.000137999580719807 1.1643228503815e-05 5.45899562152731e-05 -2.83562592887906e-05 -0.000290714174975282 -9.27025837939172e-05 -0.000219982040111312 -1.26455094604393e-05 -0.000109829534472368 -0.000401774163043563 -0.000320788267940213 -9.9930526785101e-05 -7.30717570620755e-05
"108" -0.000327094297969913 -0.000496991615623253 -0.00031405813214036 -0.000140538585969896 1.04459224503506e-05 5.2793664942725e-05 -2.77143136577627e-05 -0.000291002241984714 -9.29369600927699e-05 -0.000216391121130537 -1.39973757040273e-05 -0.000101898349413754 -0.000405826180621581 -0.000316567988842499 -0.000101356896394656 -7.45583103412026e-05
"109" -0.000335958601883284 -0.000507014289668621 -0.000320086530765171 -0.000141853082855437 1.00661737740569e-05 5.19847443022413e-05 -2.60156376253419e-05 -0.000290701530639761 -9.25441210304481e-05 -0.00021215680435159 -1.49362317673498e-05 -9.34849481795105e-05 -0.000408711068731839 -0.000311201950912554 -0.000102087052943226 -7.56880067372726e-05
"110" -0.000343591249468311 -0.00051526585541165 -0.000325008407634135 -0.000141863489130054 1.05466242701877e-05 5.22147726029715e-05 -2.3208029539678e-05 -0.00028978637411909 -9.1520974533634e-05 -0.000207284445048558 -1.54328192881911e-05 -8.45777333675899e-05 -0.000410393091436799 -0.000304684566189862 -0.000102081328742789 -7.64159639976293e-05
"111" -0.00034992344792606 -0.000521662695352542 -0.000328784971874462 -0.000140504100146492 1.1918936236073e-05 5.35259374701549e-05 -1.92470509285851e-05 -0.00028823768374302 -8.98561738233226e-05 -0.00020176917728568 -1.54558594476192e-05 -7.51623369458207e-05 -0.000410840588207077 -0.000297012852734157 -0.000101309337455271 -7.67027901655484e-05
"112" -0.000354889358297262 -0.000526133161381882 -0.000331372262952928 -0.000137714295906176 1.42184120527331e-05 5.59531016820597e-05 -1.4097082985853e-05 -0.000286044401546499 -8.75549543042288e-05 -0.000195623724901766 -1.49848801038516e-05 -6.52348358701881e-05 -0.000410037689440959 -0.000288196300264565 -9.97348479105373e-05 -7.65098649217745e-05
"113" -0.000358442100722868 -0.000528622595652665 -0.000332740808919348 -0.000133451904031993 1.74551101417551e-05 5.95114239998866e-05 -7.74204467610123e-06 -0.000283201230856451 -8.46222108077069e-05 -0.000188866658830667 -1.40039571545317e-05 -5.48018727428722e-05 -0.000407981090623206 -0.000278253956604307 -9.734024068279e-05 -7.58116287268752e-05
"114" -0.000360536724442707 -0.000529097391894144 -0.000332871283764218 -0.000127684166451826 2.16417468508555e-05 6.42100449904578e-05 -1.7015563492333e-07 -0.000279716376751211 -8.10722063624489e-05 -0.000181515429252576 -1.25024391227189e-05 -4.38756320374655e-05 -0.000404680261504699 -0.000267221441704636 -9.4115559817462e-05 -7.45858304001992e-05
"115" -0.000361144639047282 -0.000527539513382892 -0.000331751872005974 -0.000120395383134596 2.67770604876245e-05 7.00496192643732e-05 8.61026963440412e-06 -0.000275598601407798 -7.691888202752e-05 -0.000173598714879989 -1.04687347118601e-05 -3.24752618431068e-05 -0.000400157974735777 -0.000255137566543434 -9.00624938466479e-05 -7.28143236832502e-05
"116" -0.000360245196904757 -0.000523941714106483 -0.000329382304635033 -0.000111576684332393 3.28496662986197e-05 7.70097985699957e-05 1.85890636150984e-05 -0.000270864260261706 -7.21861188935748e-05 -0.00016514613886418 -7.90361937728798e-06 -2.06267327100535e-05 -0.000394442811635578 -0.000242052675862906 -8.51807663735132e-05 -7.04845293541837e-05
"117" -0.000357828692729739 -0.000518323618163611 -0.000325765680085127 -0.00010124254520629 3.98360427304405e-05 8.50643606110568e-05 2.97257750969216e-05 -0.000265535775690831 -6.68970296452453e-05 -0.000156193216355581 -4.81285658747552e-06 -8.36093517302607e-06 -0.000387581605704114 -0.000228025507456768 -7.94819164439388e-05 -6.75931541145579e-05
"118" -0.000353900760849074 -0.000510721303246648 -0.000320928275959316 -8.94154715077994e-05 4.77079472383297e-05 9.41729175140663e-05 4.1985847843519e-05 -0.000259652192194824 -6.10878036923803e-05 -0.00014678444786413 -1.20263431930699e-06 4.27479991847046e-06 -0.000379637689232512 -0.00021313248461182 -7.30015923267483e-05 -6.41484785239697e-05
"119" -0.000348477072699961 -0.000501182498917007 -0.000314889034473256 -7.61356896571433e-05 5.64276049238174e-05 0.000104285480013925 5.53087297733755e-05 -0.000253245256818585 -5.4787385601779e-05 -0.000136962883335226 2.90896614956006e-06 1.7239049483951e-05 -0.000370664921603341 -0.000197446073584417 -6.57580025376033e-05 -6.01518041665553e-05
"120" -0.000341581069996655 -0.000489776258026509 -0.000307688068618909 -6.14564059433118e-05 6.59443657235771e-05 0.000115337626413371 6.96232535015327e-05 -0.000246362329213832 -4.80366106567206e-05 -0.00012677894014089 7.50288236159009e-06 3.04739507072719e-05 -0.000360750536342215 -0.000181055064272901 -5.7801891408594e-05 -5.56230020470077e-05
"121" -0.00033325696867235 -0.000476590804245701 -0.000299371688837983 -4.54466136265691e-05 7.62011957844668e-05 0.00012725778330053 8.48531875782827e-05 -0.000239056932591292 -4.08816840469729e-05 -0.000116287408160099 1.25499723598215e-05 4.39204898273649e-05 -0.000349972871215465 -0.000164051661421371 -4.91729124285267e-05 -5.05807259880814e-05
"122" -0.0003235569506579 -0.000461727189018783 -0.000289997015683994 -2.81889598788926e-05 8.71364192413097e-05 0.000139962416839605 0.000100905897250183 -0.000231380204261749 -3.33640725252784e-05 -0.000105543292011763 1.80227147816273e-05 5.75141479705902e-05 -0.000338429673167691 -0.000146537746790015 -3.99339725136287e-05 -4.50605553757126e-05
"123" -0.00031254119365632 -0.00044530312672939 -0.000279621406858189 -9.77986822797998e-06 9.8673211937822e-05 0.000153358295205712 0.000117670704311394 -0.000223389567268834 -2.55378059288045e-05 -9.4612458644111e-05 2.38801766478965e-05 7.11855616618001e-05 -0.000326219939172311 -0.000128618667674007 -3.01441488558687e-05 -3.90899142163963e-05
"124" -0.000300287828484369 -0.000427448792578175 -0.000268319504520404 9.67063909625299e-06 0.000110735009435102 0.000167348109156771 0.00013504259563757 -0.000215158445604907 -1.74525373451991e-05 -8.35533132332222e-05 3.00846727947857e-05 8.48627579880733e-05 -0.000313451288146606 -0.000110404572892008 -1.98701561138752e-05 -3.27134752644623e-05
"125" -0.000286882913705196 -0.000408308251305318 -0.000256167745407558 3.0045639900974e-05 0.000123238081792511 0.000181823197553338 0.000152897947494205 -0.000206745888436753 -9.15828059892564e-06 -7.24280796255722e-05 3.65919589653586e-05 9.84740721743538e-05 -0.00030022748470708 -9.20057253439432e-05 -9.18870148462423e-06 -2.59737325095707e-05
"126" -0.000272424021127638 -0.000388038974968662 -0.000243251037363441 5.12093274166935e-05 0.000136091242632986 0.000196671546437744 0.000171112111089562 -0.000198226744587028 -7.14129516307244e-07 -6.13055484197273e-05 4.33531963538862e-05 0.000111936227929517 -0.000286671593435365 -7.3542270735791e-05 1.82204366999223e-06 -1.89222732020401e-05
"127" -0.000257016980805934 -0.000366805065249902 -0.000229661446112983 7.30219170193376e-05 0.000149204848948347 0.000211771467721993 0.000189546047942409 -0.000189673911627901 7.82419580907467e-06 -5.02515193149367e-05 5.03160523476886e-05 0.000125178856219227 -0.000272894417675401 -5.5125111827473e-05 1.30806196798781e-05 -1.16149483808301e-05
"128" -0.000240774223925465 -0.000344781073363261 -0.000215488152356475 9.5335214124338e-05 0.000162478462626092 0.00022700232510554 0.000208067230618881 -0.00018115891565628 1.64017501630535e-05 -3.93298855911954e-05 5.74286299193019e-05 0.000138119787523743 -0.000259017506195392 -3.68740195131125e-05 2.44981274531673e-05 -4.10240527896041e-06
"129" -0.000223820802444945 -0.000322153897189674 -0.000200836274578088 0.000117989634291243 0.000175815856949443 0.000242242727782058 0.00022653100426799 -0.000172751380290753 2.49650120161711e-05 -2.86047858669108e-05 6.46322428344553e-05 0.000150689472896729 -0.000245155718179341 -1.89029014972373e-05 3.59902828105119e-05 3.5485907999809e-06
"130" -0.000206289852203959 -0.000299105847558348 -0.000185806856929713 0.00014082429081349 0.000189119534950308 0.000257366535179669 0.000244792566951906 -0.000164527426694062 3.34558183109243e-05 -1.81393972785253e-05 7.1870942082132e-05 0.000162813304803245 -0.000231425958971227 -1.32308803686356e-06 4.74668300307754e-05 1.12807423723466e-05
"131" -0.000188308912707636 -0.000275826726259251 -0.000170498716801534 0.000163672960825773 0.000202289201442623 0.000272247269419557 0.000262708312866444 -0.000156559341809178 4.18224009007078e-05 -7.99539151974883e-06 7.90902251205542e-05 0.000174420545809665 -0.000217937114074266 1.57562866210614e-05 5.88398624779686e-05 1.90269989583343e-05
"132" -0.000170023484498908 -0.000252510095804396 -0.000155023500942571 0.000186364347472481 0.000215230519996499 0.000286762936695206 0.000280141623108703 -0.000148905665902789 5.00083733241176e-05 1.77004842189238e-06 8.62288575715517e-05 0.000185451595352417 -0.00020479608786205 3.22336730274425e-05 7.00213895584293e-05 2.67252655451665e-05
"133" -0.00015157127508495 -0.0002293436439652 -0.000139481012027592 0.000208731625552118 0.000227845883293511 0.000300797403485216 0.000296952611908991 -0.000141639039253089 5.79709652829847e-05 1.11029023084412e-05 9.32323990233224e-05 0.000195844254435182 -0.000192113664185012 4.80061980883427e-05 8.09236202498193e-05 3.43096483236148e-05
"134" -0.000133099430756932 -0.000206516869699317 -0.000123977267615984 0.000230610008242192 0.000240044016182565 0.000314233287431597 0.00031300884758141 -0.00013481368431945 6.56572146933539e-05 1.99563095120445e-05 0.000100043917523497 0.000205549895371167 -0.000179979027313611 6.2994861794337e-05 9.14697666286635e-05 4.17192880556083e-05
"135" -0.000114749468136698 -0.000184211762462338 -0.000108611865624449 0.000251832770456788 0.000251740878375052 0.000326965585402115 0.000328184128771694 -0.000128486560921241 7.30299902450586e-05 2.82832819665425e-05 0.000106612233561264 0.000214521088766129 -0.000168479806967093 7.71076339776862e-05 0.000101572017014222 4.88938516662937e-05
"136" -9.6664690688204e-05 -0.00016260443316679 -9.3484110368724e-05 0.000272241064184511 0.000262855173547958 0.000338891168839091 0.00034235978736279 -0.000122703882800572 8.00444450549037e-05 3.60439327093817e-05 0.000112885582912189 0.000222725434597309 -0.000157698678993894 9.02748236010856e-05 0.000111164478820088 5.57719771834995e-05
"137" -7.89831712112585e-05 -0.000141856938449739 -7.8688615613638e-05 0.000291681402322005 0.000273311516062514 0.000349919258419901 0.000355425344580724 -0.000117509182311351 8.66678946983871e-05 4.32028179731208e-05 0.000118814298145221 0.000230132019334927 -0.000147704663775822 0.000102436468479339 0.000120178165073304 6.23030157960745e-05
"138" -6.18381687176955e-05 -0.000122126886721204 -6.43136452842811e-05 0.000310015672867309 0.000283043046301636 0.000359966392440804 0.000367285878446701 -0.000112934387185979 9.28683694200494e-05 4.9737233637865e-05 0.000124357257800274 0.000236722836592779 -0.000138559839663116 0.000113534084282809 0.000128545573854929 6.84286211612733e-05
"139" -4.53581285437253e-05 -0.000103554922541176 -5.04407182881611e-05 0.000327112985102937 0.000291991213966021 0.000368961719218379 0.000377855601018999 -0.000109009748778563 9.86231733995127e-05 5.56259876883896e-05 0.000129474010626146 0.000242491354174506 -0.000130305954390212 0.000123531785345528 0.000136215032936582 7.41082794885424e-05
"140" -2.96650099732773e-05 -8.62718870587907e-05 -3.71469181409422e-05 0.000342846628185735 0.000300106762164311 0.000376846685591283 0.000387057457756931 -0.000105752277256096 0.000103904092269167 6.0848376679241e-05 0.000134130154317224 0.000247433042664854 -0.000122988693360538 0.000132396714077593 0.000143140881952975 7.92931493960684e-05
"141" -1.48701527399662e-05 -7.03823128130624e-05 -2.44966405736508e-05 0.000357118295042985 0.000307345942232881 0.00038357090982381 0.000394836217750554 -0.000103171665275394 0.000108702816665271 6.54018721095005e-05 0.000138295904395313 0.000251564160616114 -0.000116626004092881 0.000140109952685297 0.000149284882962163 8.39522808406491e-05
"142" -1.07697008670356e-06 -5.59839826328117e-05 -1.25520496608586e-05 0.000369833435407107 0.000313681374663405 0.000389100257162085 0.000401147126097462 -0.000101271895672144 0.000113002599503807 6.92871995855112e-05 0.000141948527747832 0.000254900648262824 -0.000111239150378133 0.000146667645782946 0.000154612486097034 8.80525870502767e-05
"143" 1.16276383120889e-05 -4.31519074066629e-05 -1.36519773547548e-06 0.00038092399710162 0.000319088282239477 0.000393409913752113 0.000405961756540632 -0.000100052021511126 0.00011679719004297 7.25066339417538e-05 0.000145066325142835 0.000257473143611736 -0.000106824085467544 0.000152070406090053 0.000159104555034514 9.15725653043964e-05
"144" 2.31589561649222e-05 -3.19397639996692e-05 9.02664395421128e-06 0.00039032141487365 0.000323557413240133 0.000396493212888466 0.00040926017692161 -9.94843729737981e-05 0.000120083209806519 7.5072133074122e-05 0.000147634576151266 0.000259321146179892 -0.000103373619684467 0.000156338782364722 0.000162746755932687 9.44925546713838e-05
"145" 3.34534713454032e-05 -2.23881035760551e-05 1.85924979196388e-05 0.000397995068682462 0.000327085376827812 0.000398350181422706 0.000411049204170318 -9.95528608795344e-05 0.00012286927861058 7.70041370027744e-05 0.000149649446643012 0.000260488977759826 -0.000100864081374373 0.000159495505354347 0.000165540941678438 9.68001997400481e-05
"146" 4.24589576113434e-05 -1.45065544417371e-05 2.73092046109245e-05 0.000403921458306528 0.000329682592469059 0.000398999990817007 0.000411347089872687 -0.000100232509708683 0.00012515299140603 7.83284815342189e-05 0.000151103807973629 0.000261028810999415 -9.92703666054137e-05 0.000161580429990276 0.000167481740045499 9.84946161885565e-05
"147" 5.01380741557312e-05 -8.29415610872405e-06 3.51669933373361e-05 0.000408098443081887 0.000331368648554214 0.000398467365074622 0.000410177642764835 -0.000101478146347883 0.00012695704409773 7.90757054875488e-05 0.000152005677681729 0.000261010879061678 -9.85390964423999e-05 0.000162651289530797 0.00016859335288388 9.95777298386598e-05
"148" 5.64649178604572e-05 -3.72405135372417e-06 4.21670333497405e-05 0.000410545080256524 0.000332171385282097 0.000396796040788319 0.000407596734234834 -0.000103243568675258 0.000128290561193242 7.92827721718156e-05 0.000152364045586021 0.000260498988809456 -9.86268325023147e-05 0.000162756221281156 0.000168895075240824 0.00010005959576798
"149" 6.14275407416843e-05 -7.48736592101126e-07 4.83158102388171e-05 0.000411293088112838 0.000332124863818127 0.000394032122068731 0.000403661924294333 -0.000105478940716418 0.000129171693891452 7.89885011923283e-05 0.000152190679475273 0.000259564470774242 -9.94669924490199e-05 0.00016196951386154 0.000168410678973862 9.995905329254e-05
"150" 6.5032559248871e-05 6.93198435846997e-07 5.36343107158368e-05 0.000410395077247588 0.000331276402579897 0.000390239273130302 0.000398441436612513 -0.000108122167713767 0.000129621498485024 7.82382027093413e-05 0.0001515039538754 0.00025828635775788 -0.000100994033694672 0.000160362635451309 0.000167187011751877 9.92934548037911e-05
"151" 6.72996014037837e-05 6.82062296636724e-07 5.81504955892419e-05 0.000407923951597879 0.000329676351795647 0.000385488233586049 0.000392028240989197 -0.000111118684933145 0.000129668957441761 7.70795193988877e-05 0.000150328861739576 0.000256742738994819 -0.000103131943685717 0.000158017222637458 0.000165263563127018 9.8096726087204e-05
"152" 6.82584396282786e-05 -6.76682392497167e-07 6.18994718893039e-05 0.000403963538930687 0.000327387078030713 0.000379853032339769 0.000384517522865648 -0.000114391848531595 0.000129337253946568 7.55670699215084e-05 0.000148693589604381 0.000255020407547291 -0.000105794600432214 0.000155026776018119 0.000162690973742295 9.64013074095928e-05
"153" 6.79572125037687e-05 -3.27732161539679e-06 6.49296281130091e-05 0.000398614322430506 0.00032447351323546 0.000373421401112788 0.000376008480789762 -0.000117871887580192 0.000128659102439814 7.37507080552636e-05 0.000146627346805086 0.000253201022103929 -0.000108902609615319 0.000151481467736113 0.000159526063965826 9.42468620285429e-05
"154" 6.64511035169843e-05 -6.98433133948164e-06 6.72967500581196e-05 0.000391995476097387 0.000321005089534128 0.000366281113662627 0.00036662697533539 -0.000121492461289574 0.000127658980395737 7.16902419242065e-05 0.00014416619386825 0.000251362664112907 -0.000112370546559953 0.000147479182078718 0.000155826669600775 9.16764082432373e-05
"155" 6.38101325771166e-05 -1.16609464367965e-05 6.90525276768576e-05 0.000384227365041109 0.000317054991807281 0.000358525472553468 0.000356481529678361 -0.000125168576888199 0.000126370718710809 6.94356341334215e-05 0.00014134475007957 0.000249592675617636 -0.000116099076886953 0.000143120472746884 0.000151662093807699 8.87405586281076e-05
"156" 6.01117060422872e-05 -1.71595605283924e-05 7.02700298971955e-05 0.000375452611958695 0.000312699649837831 0.000350252010346455 0.000345706022254914 -0.000128830326884813 0.000124826086364642 6.70497859250559e-05 0.000138201859716501 0.000247964888048625 -0.000120001402029669 0.000138508053269031 0.000147093505044034 8.54912103844581e-05
"157" 5.54484292276146e-05 -2.33184383574846e-05 7.10164344051398e-05 0.00036581486496781 0.000308021471400461 0.000341556803074198 0.000334427159806603 -0.000132395800557231 0.000123051213431951 6.4580541596078e-05 0.000134775408205818 0.000246548996511092 -0.00012399368510354 0.000133740091848032 0.000142190795842611 8.19769994875032e-05
"158" 4.99152851752142e-05 -2.99767136465336e-05 7.13692031668622e-05 0.000355468661329689 0.000303096106510229 0.000332540545418313 0.000322776075811469 -0.000135801850474379 0.000121083400641208 6.20885258905646e-05 0.000131111570235328 0.000245419139226018 -0.000127978408171548 0.000128918035433626 0.000137027811096839 7.82573989113173e-05
"159" 4.36146411370538e-05 -3.6967848346778e-05 7.14003836057123e-05 0.000344571870721762 0.000298004232698992 0.000323297306904769 0.000310887148180765 -0.000138964803258125 0.000118944213692103 5.96198761479648e-05 0.000127247343536239 0.00024463198435663 -0.00013188030816343 0.000124141074138029 0.000131671006542745 7.43885970721909e-05
"160" 3.66550063927546e-05 -4.41195561764364e-05 7.11945984335586e-05 0.000333284583901366 0.00029282232830275 0.000313924556942467 0.000298884593112135 -0.000141821853717264 0.000116670952329931 5.72303277278949e-05 0.000123221217930703 0.000244246277477275 -0.00013561082512991 0.000119507998700087 0.000126185814536013 7.04272477574736e-05
"161" 2.9151824686083e-05 -5.12659788293136e-05 7.08291459315543e-05 0.000321771011891098 0.000287626158478497 0.000304507000829686 0.00028689918920697 -0.00014430135195575 0.000114283625887194 5.49629058221625e-05 0.0001190761561894 0.000244306203328246 -0.000139099576894389 0.000115104732739004 0.000120644791322753 6.6429610394023e-05
"162" 2.12182713822916e-05 -5.82454873165816e-05 7.03839597201624e-05 0.000310189222005642 0.000282488835289049 0.000295133316287393 0.000275051574394239 -0.000146345207434592 0.000111810431173399 5.28638571805148e-05 0.000114846177610824 0.00024485203003039 -0.000142278163165916 0.000111018873829463 0.000115106161533317 6.24528662858832e-05
"163" 1.29699346473771e-05 -6.48932379326565e-05 6.99397283629612e-05 0.000298701000142246 0.000277477283548077 0.000285884517177445 0.000263461410486518 -0.000147900152869174 0.000109273358884156 5.09669311650418e-05 0.000110572266173259 0.00024590741535908 -0.00014508230344963 0.000107329932260183 0.000109632766702388 5.85467839167553e-05
"164" 4.52492371283196e-06 -7.10559894323824e-05 6.95739628706235e-05 0.000287456851363251 0.000272653995508424 0.000276833067021697 0.000252232649429254 -0.000148912755078549 0.000106691283839567 4.9307981187016e-05 0.000106281609510002 0.000247492914716887 -0.000147464231495671 0.000104111029010825 0.000104281998418815 5.47648161830467e-05
"165" -4.00392233326395e-06 -7.65925584818769e-05 6.93554790754856e-05 0.000276605287440248 0.000268074761918204 0.000268039843641628 0.000241466790813703 -0.000149337213896696 0.000104083573098531 4.79164213363036e-05 0.000102008580851086 0.000249617003754778 -0.000149372723733779 0.000101423411281533 9.91069181650276e-05 5.11523602464348e-05
"166" -1.25038712769065e-05 -8.13647126330198e-05 6.9357050919141e-05 0.000266286885240331 0.00026379049095901 0.000259568343777072 0.000231261150086759 -0.000149144601538582 0.0001014599301014 4.68171706918457e-05 9.77752507817116e-05 0.000252275219343204 -0.000150778669584266 9.93248700346195e-05 9.41444451562273e-05 4.77574611916854e-05
"167" -2.08677006124243e-05 -8.52530025942618e-05 6.96418890933151e-05 0.000256629503111237 0.000259841972006502 0.000251463307601707 0.000221689306466648 -0.000148293946188395 9.88353965807839e-05 4.60248601006779e-05 9.36104423629016e-05 0.000255457073820949 -0.000151647110875074 9.78595405831785e-05 8.94417988049604e-05 4.46158795635033e-05
"168" -2.89943288726747e-05 -8.81455419261777e-05 7.02696202318619e-05 0.000247752324768668 0.00025626499046289 0.000243763142740046 0.000212819176614351 -0.000146778225561524 9.62177528626496e-05 4.55514496191321e-05 8.95296173977938e-05 0.000259131202013333 -0.000151971542908145 9.70642913431639e-05 8.50268437276532e-05 4.17631982992313e-05
"169" -3.67842236736543e-05 -8.99471088049414e-05 7.12919737433704e-05 0.000239760081197886 0.000253089666970973 0.000236496136826099 0.000204711954354422 -0.000144577838575863 9.36149419735692e-05 4.54041686050255e-05 8.55491520990518e-05 0.000263269452455733 -0.000151739599593734 9.69641961177197e-05 8.09300183806471e-05 3.92318305914851e-05
"170" -4.41547351838779e-05 -9.05816720003661e-05 7.27542365765882e-05 0.000232747234696883 0.00025033035379109 0.000229685045693044 0.000197406935894829 -0.000141687250113945 9.10236651444161e-05 4.55833776254725e-05 8.16778684699485e-05 0.000267822579953898 -0.000150954508035112 9.75756923755959e-05 7.7163959121573e-05 3.70400317036439e-05
"171" -5.10228402432212e-05 -8.9982102635394e-05 7.469143973988e-05 0.000226789668126968 0.000247997677871736 0.000223336773269913 0.000190932341540331 -0.000138106613038209 8.84478029553717e-05 4.60839828208737e-05 7.79256950621454e-05 0.000272742087853398 -0.000149628668533708 9.89040366218669e-05 7.37461541380417e-05 3.52113681416071e-05
"172" -5.73151602348235e-05 -8.81047066944885e-05 7.713795714479e-05 0.000221956067331035 0.000246095753679534 0.000217454018333892 0.000185313739987087 -0.000133857004277571 8.58803185762073e-05 4.68927926101671e-05 7.42920465078819e-05 0.000277955875604219 -0.000147783034115198 0.000100941837897703 7.06742400626056e-05 3.37599256972559e-05
"173" -6.29750662017261e-05 -8.49189613271458e-05 8.01108779172278e-05 0.000218290278076659 0.000244613980725943 0.000212023383819851 0.000180549282727628 -0.000128955287187394 8.3314007843885e-05 4.79899517157191e-05 7.07757451447258e-05 0.000283393880712523 -0.000145450538796926 0.000103668571145798 6.79480212491277e-05 3.26871482057947e-05
"174" -6.79457322934717e-05 -8.04135087310613e-05 8.36255157031396e-05 0.000215820723097115 0.000243537860071538 0.000207029321916731 0.00017662452466287 -0.000123420189501585 8.07398062271468e-05 4.93545834283327e-05 6.73680558030197e-05 0.000288979206267259 -0.000142669687542194 0.000107061261873959 6.55540567955131e-05 3.19976857113771e-05
"175" -7.21893832370466e-05 -7.45963622412937e-05 8.76859468731733e-05 0.000214568403686545 0.000242843671041613 0.000202442307753534 0.00017352930571963 -0.000117300067397024 7.81475862887439e-05 5.09599911957448e-05 6.40621554785672e-05 0.000294620500785416 -0.000139485060497919 0.000111080244937699 6.34736439906413e-05 3.16848123742794e-05
"176" -7.56755085510625e-05 -6.74884738322945e-05 9.22864977370373e-05 0.000214531252601698 0.000242501805633019 0.000198229248541096 0.000171218513455269 -0.000110627517846923 7.55215172976034e-05 5.27708348164723e-05 6.08426693788012e-05 0.000300231872103666 -0.000135950883604513 0.00011568304072613 6.168809116708e-05 3.17383462723436e-05
"177" -7.83864538389302e-05 -5.91318611326329e-05 9.74145058908015e-05 0.00021568977635018 0.00024247147423641 0.000194344442947942 0.000169648287447292 -0.000103456509885809 7.28445985593508e-05 5.47470938210506e-05 5.76892749563709e-05 0.000305710867979652 -0.00013212429922364 0.000120805887284187 6.01618046594723e-05 3.214237297421e-05
"178" -8.0310579998676e-05 -4.9583505256336e-05 0.000103046794909549 0.000218013281099671 0.000242707354478257 0.000190739394029285 0.000168763092261928 -9.58427116491937e-05 7.01011936980825e-05 5.68527827559828e-05 5.45837017642299e-05 0.000310959200916702 -0.00012807137344383 0.00012639046232303 5.88553556901834e-05 3.28741646351431e-05
"179" -8.1456494540343e-05 -3.89185238724425e-05 0.000109152290255429 0.000221451958891122 0.000243155148128538 0.00018735945892293 0.000168492832623122 -8.78466831526646e-05 6.72652820063241e-05 5.9039255764813e-05 5.14998285814122e-05 0.000315875728201027 -0.000123862800301243 0.000132357636558957 5.77291459216238e-05 3.39098154424613e-05
"180" -8.18319398156426e-05 -2.72200598845167e-05 0.000115694318928798 0.000225938086400342 0.000243764436952289 0.000184144722748629 0.000168757672479132 -7.95272298629913e-05 6.43257791405128e-05 6.12579463816796e-05 4.84176487061468e-05 0.000320361348972428 -0.000119564904709675 0.00013863727910181 5.67378926420478e-05 3.52191977372312e-05
"181" -8.14658178554835e-05 -1.4593433573962e-05 0.000122627256270535 0.000231397886992076 0.000244469805109297 0.000181030288672228 0.000169472937782603 -7.09584623817357e-05 6.12561737718882e-05 6.34605762368974e-05 4.53022612977641e-05 0.000324311354076523 -0.000115254240456196 0.000145137295790166 5.58322815295713e-05 3.6763190028373e-05
"182" -8.03894979344283e-05 -1.15086455879756e-06 0.000129897120189048 0.000237741189573548 0.0002452052168269 0.00017795288825328 0.000170545271488925 -6.22163436480291e-05 5.80380327904988e-05 6.55974036114051e-05 4.21310286121223e-05 0.000327629888934623 -0.000111003972320506 0.000151772388582027 5.49581107964407e-05 3.8509319236855e-05
"183" -7.86490370063813e-05 1.29825344072553e-05 0.000137447667102824 0.000244866216848159 0.00024590528582101 0.000174842181050118 0.000171877402137128 -5.33702779596927e-05 5.46462601610759e-05 6.76138187660973e-05 3.88718826389541e-05 0.000330218740897545 -0.000106891951412964 0.000158448794156129 5.40604909180245e-05 4.04178002584328e-05
"184" -7.62963195655033e-05 2.76717491493539e-05 0.0001452098298351 0.000252654192886151 0.00024650144247504 0.000171633112029126 0.000173363692844668 -4.44902422195818e-05 5.1070018462574e-05 6.94568540457442e-05 3.54980401866555e-05 0.000331998710458426 -0.000102977491930316 0.000165072451305257 5.30844297682241e-05 4.24457176767421e-05
"185" -7.33876354264361e-05 4.27749042689997e-05 0.000153120974162808 0.000260985371325758 0.000246919182860685 0.000168257598876106 0.000174903216274532 -3.56651541673933e-05 4.72768609918314e-05 7.10728243270506e-05 3.19765433051536e-05 0.00033287316847852 -9.93455381040546e-05 0.000171541828908397 5.19697256964097e-05 4.45456418972359e-05
"186" -6.99923951114602e-05 5.81440512888735e-05 0.000161102788178858 0.000269729906779163 0.000247092870942528 0.000164652663677716 0.000176387382639568 -2.69578029143141e-05 4.3262684052747e-05 7.24166143716149e-05 2.82823222514261e-05 0.000332781890811149 -9.60501301484813e-05 0.000177768765314152 5.0663958372682e-05 4.66749828151526e-05
"187" -6.61862666407784e-05 7.36242471425694e-05 0.000169081404207642 0.000278752640965547 0.000246952686941596 0.000160754127315719 0.000177708984954755 -1.84503333458566e-05 3.90067281470748e-05 7.34357750639634e-05 2.43891503563983e-05 0.000331650252008612 -9.31577731031936e-05 0.00018365375776144 4.91163227763928e-05 4.87945145385034e-05
"188" -6.20457418048989e-05 8.90597070156691e-05 0.000176977190493778 0.000287906482121883 0.000246435112365597 0.000156509525237372 0.000178761001855934 -1.02082613576925e-05 3.44933245682889e-05 7.40878510905639e-05 2.02752972415992e-05 0.000329431085212916 -9.07196758999384e-05 0.000189107712198415 4.72691141296242e-05 5.08532794218363e-05
"189" -5.76511110134439e-05 0.000104295626294916 0.000184712038751208 0.000297055616118507 0.000245474680589306 0.000151866238890853 0.000179443904269023 -2.29990597924863e-06 2.97166779167481e-05 7.43253353828659e-05 1.59144911032116e-05 0.000326076612035426 -8.87836759347339e-05 0.000194037144450447 4.50776801313984e-05 5.2810716238477e-05
"190" -5.3089569053962e-05 0.000119181930702062 0.000192202289596586 0.000306050245558124 0.000244014447836889 0.000146777130400044 0.000179663689954675 5.20919413876113e-06 2.46713254038065e-05 7.41136068536409e-05 1.12942982607114e-05 0.00032156131759555 -8.73934451472306e-05 0.000198367238020781 4.24999703383639e-05 5.46309586196507e-05
"191" -4.84493954024099e-05 0.000133560236810075 0.000199371955452243 0.000314745080967211 0.000241998663238338 0.00014120590382505 0.00017931926969252 1.22632784911435e-05 1.93451267901634e-05 7.3416927690141e-05 6.39584027202702e-06 0.000315863752820608 -8.65780212116937e-05 0.000202011025938225 3.94932238994541e-05 5.626854785472e-05
"192" -4.3815169012477e-05 0.000147290065480803 0.000206144337939701 0.000323004881170398 0.000239386097429487 0.00013512468399386 0.000178341362317803 1.8807462747544e-05 1.37416221505906e-05 7.22036525876582e-05 1.20996682826653e-06 0.000308977858088495 -8.63644448365011e-05 0.000204902299899143 3.60253837924164e-05 5.76934096674518e-05
"193" -3.92771354486457e-05 0.000160231197390516 0.000212440072023115 0.000330688258047191 0.000236130694812441 0.000128511304484618 0.000176645007693126 2.47997454068186e-05 7.86954537014203e-06 7.0456995293694e-05 -4.26380258175325e-06 0.000300923971878642 -8.67595734000281e-05 0.000206981707994134 3.20704989518538e-05 5.88721415976481e-05
"194" -3.49186682959638e-05 0.000172253872705672 0.000218189983684655 0.000337667440392809 0.000232204569533833 0.00012135234193696 0.000174165340250673 3.01990678700052e-05 1.73023522767657e-06 6.81544003758516e-05 -1.0034745388015e-05 0.000291717719347537 -8.77763335107138e-05 0.000208193206744 2.76054841276549e-05 5.97764564830068e-05
"195" -3.08208174173566e-05 0.000183239368911514 0.000223329941130051 0.000343817793945739 0.000227579219264597 0.000113649182341843 0.000170850724052643 3.49699901125975e-05 -4.66612435743015e-06 6.52858726022118e-05 -1.60957469415116e-05 0.000281395141282718 -8.94032153116965e-05 0.000208492820717217 2.26185315643043e-05 6.03851867895797e-05
"196" -2.7065463509452e-05 0.000193081067115476 0.00022779625787166 0.000349026153609739 0.000222241487674275 0.0001054034873484 0.00016665486623483 3.90917264912458e-05 -1.13045463983015e-05 6.18461100533992e-05 -2.24377407422799e-05 0.0002700132458084 -9.16322401841834e-05 0.000207845959009007 1.7103586566817e-05 6.06797526536716e-05
"197" -2.37232752388683e-05 0.000201684700289098 0.000231532189964123 0.000353194116763397 0.000216180719809821 9.66388058520785e-05 0.000161550852913142 4.25454987453893e-05 -1.81634124660531e-05 5.78338819488888e-05 -2.90479362983953e-05 0.000257637939643168 -9.44348242127746e-05 0.000206232625390484 1.10623170810262e-05 6.0646486722071e-05
"198" -2.0859161520968e-05 0.000208971212345922 0.000234491753155645 0.000356228395041396 0.000209397996434686 8.73762927974909e-05 0.000155515155703304 4.53246814227584e-05 -2.52240490744812e-05 5.32637290745537e-05 -3.5907089231966e-05 0.000244342791852947 -9.77780232531861e-05 0.000203636577636767 4.50524271408046e-06 6.02776297066622e-05
"199" -1.85355905200903e-05 0.000214874188938249 0.00023663305050518 0.000358054583837561 0.000201904961776472 7.76520450149231e-05 0.000148545303738198 4.74287907943253e-05 -3.24602046422541e-05 4.81408894993669e-05 -4.29920021026363e-05 0.000230220386436635 -0.000101622173959748 0.000200056914588991 -2.55199467542798e-06 5.95709004153811e-05
"200" -1.68061562570163e-05 0.0002193507192826 0.000237918187813576 0.000358610249568654 0.000193723479381772 6.75140723966043e-05 0.000140651986310022 4.8866671241123e-05 -3.9839072806733e-05 4.24921929666225e-05 -5.02756750959584e-05 0.000215370463110154 -0.000105917243719009 0.000195501726058733 -1.00824224145471e-05 5.8525664452143e-05
"201" -1.57100684442815e-05 0.000222368237332764 0.000238328363163674 0.00035784861335835 0.000184876043499619 5.70113357788215e-05 0.000131844181985154 4.96545499533511e-05 -4.73327344451037e-05 3.63461259836473e-05 -5.7725641666848e-05 0.000199903042857214 -0.000110599526865577 0.000189996288706975 -1.80560340127945e-05 5.71562799403501e-05
"202" -1.52890651737807e-05 0.000223915179158222 0.000237842457377624 0.000355734472802463 0.000175404549459516 4.62080097131757e-05 0.000122167619580601 4.98125102654823e-05 -5.49092992839407e-05 2.97277903672867e-05 -6.53046462987129e-05 0.000183936057871719 -0.00011561228513413 0.000183565484707136 -2.64360402316387e-05 5.54699693219117e-05
"203" -1.5559923543061e-05 0.000223990003626737 0.000236456812812964 0.00035225899910544 0.000165349052831897 3.51673439939104e-05 0.000111661758025154 4.93678940205864e-05 -6.25241638693498e-05 2.26789860415437e-05 -7.29715299326273e-05 0.000167595212944733 -0.000120881987536768 0.00017625277143992 -3.51689265346619e-05 5.34896138581889e-05
"204" -1.65458659370362e-05 0.000222616736532201 0.000234172248004465 0.000347422129891637 0.000154766675687643 2.39656735103605e-05 0.000100386853290131 4.83619488365454e-05 -7.01437212389913e-05 1.52444043611882e-05 -8.06860916117494e-05 0.000151012353095371 -0.000126335943308191 0.000168112315813926 -4.42088258174962e-05 5.12372848666275e-05
"205" -1.8246238786335e-05 0.000219834919099918 0.000231002354017799 0.000341241724361933 0.00014371492596077 1.26809326714857e-05 8.84107408338043e-05 4.68294299756351e-05 -7.77275932276852e-05 7.47352063390536e-06 -8.83964625966543e-05 0.000134322961842474 -0.000131893958287979 0.000159200703720004 -5.34953742602491e-05 4.87413908958959e-05
"206" -2.06619553737263e-05 0.000215694033993343 0.0002269614255053 0.000333747553894918 0.000132258023490821 1.39433547495854e-06 7.58120036607951e-05 4.4826861373391e-05 -8.52324810037037e-05 -5.86205688486095e-07 -9.60577204288629e-05 0.000117665027613887 -0.000137472440863254 0.000149588850137623 -6.29699308759934e-05 4.60339007554871e-05
"207" -2.37750169582197e-05 0.000210267870455413 0.000222082144762697 0.000324993910248726 0.000120469811452926 -9.80926006857772e-06 6.26814575921704e-05 4.23986991962104e-05 -9.26157162239045e-05 -8.87962113920226e-06 -0.000103618063837253 0.000101177470072081 -0.00014299278198114 0.00013934938684977 -7.25621705480623e-05 4.31472535774911e-05
"208" -2.75613795700942e-05 0.000203635328266777 0.000216400115654884 0.000315039799295687 0.000108423764130361 -2.08408260604066e-05 4.91100065949596e-05 3.96116737061775e-05 -9.98382503566985e-05 -1.73466284218199e-05 -0.00011102538173518 8.49982664275804e-05 -0.000148365440768085 0.000128570879316755 -8.22064365909389e-05 4.01200837543181e-05
"209" -3.19870949738132e-05 0.00019589378185812 0.000209965036610378 0.000303968451717106 9.62025595925272e-05 -3.16129437519092e-05 3.52062778810426e-05 3.6511290607664e-05 -0.000106852649031199 -2.59230636743192e-05 -0.000118227516343236 6.92645413729729e-05 -0.000153511060582069 0.000117339916975158 -9.18241790856404e-05 3.69966229367235e-05
"210" -3.70111367783908e-05 0.000187154207389681 0.000202825234859296 0.000291866808525768 8.38872367787967e-05 -4.20387381885646e-05 2.10739619331043e-05 3.31678215664495e-05 -0.00011362193256127 -3.45555348279528e-05 -0.000125173700924629 5.410744886084e-05 -0.000158347359338094 0.000105750664513159 -0.000101346274094202 3.38197260000939e-05
"211" -4.25797129558081e-05 0.00017753076265581 0.00019504722146403 0.000278840221100375 7.1562102948397e-05 -5.20327253540536e-05 6.8342453530335e-06 2.96376669411191e-05 -0.000120105164280288 -4.31768358889251e-05 -0.000131809157483996 3.96555844884668e-05 -0.000162793820070296 9.39022231235648e-05 -0.000110697613230608 3.06338467920795e-05
"212" -4.86344349636596e-05 0.000167154513330781 0.000186689754187775 0.000265000025515438 5.9314021305447e-05 -6.15125108253717e-05 -7.40289975724414e-06 2.59905293164559e-05 -0.000126262733500166 -5.17245124269712e-05 -0.000138085212636369 2.60294260113082e-05 -0.000166776199570662 8.18924178230513e-05 -0.000119804403190712 2.74810904594368e-05
"213" -5.51097751966329e-05 0.000156158315178871 0.000177834400067466 0.000250467115201903 4.72285794880322e-05 -7.04001388895966e-05 -2.15206488373686e-05 2.22892014785452e-05 -0.000132057938979759 -6.01385177030553e-05 -0.000143955112255747 1.33394941396344e-05 -0.000170224488609048 6.98251047371856e-05 -0.000128589236930952 2.44106552044665e-05
"214" -6.19374151970915e-05 0.000144681050476202 0.000168550244886506 0.000235371876033392 3.53886558184201e-05 -7.86161755689163e-05 -3.53992117899717e-05 1.85980847423545e-05 -0.00013745822903682 -6.83576101170548e-05 -0.000149370178450155 1.69277660488573e-06 -0.000173069162219415 5.78045248357544e-05 -0.000136986071736132 2.14683394230908e-05
"215" -6.90285026319224e-05 0.000132871343792533 0.000158929082674136 0.00021985703730849 2.38798186550044e-05 -8.60951690530006e-05 -4.89251550274212e-05 1.4973439050449e-05 -0.000142425879720835 -7.63167831138769e-05 -0.000154284976353841 -8.81221856181199e-06 -0.000175253529506807 4.59374217934234e-05 -0.000144919835081183 1.86953843387994e-05
"216" -7.63122563728539e-05 0.000120870417793317 0.000149048865962169 0.000204054252913973 1.27789496805228e-05 -9.2773822577396e-05 -6.19856704566512e-05 1.14787313204725e-05 -0.000146942786088737 -8.39663329707767e-05 -0.000158663543983828 -1.81014348239405e-05 -0.000176727780942369 3.43143021171655e-05 -0.000152329321731855 1.61365642375346e-05
"217" -8.36968247282943e-05 0.000108826228697155 0.000138999390345539 0.000188109967015714 2.16197717455905e-06 -9.85969778811876e-05 -7.44711851698215e-05 8.17437459257316e-06 -0.000150972198328999 -9.12469457653133e-05 -0.000162469835728415 -2.60950725330351e-05 -0.000177438755782869 2.30435900339081e-05 -0.000159145620644043 1.38348457883384e-05
"218" -9.10947026961939e-05 9.68801977939591e-05 0.000128869309587777 0.000172172592061005 -7.89659631106794e-06 -0.000103518536832976 -8.62820104971638e-05 5.10588397360557e-06 -0.000154499380023221 -9.81122418995056e-05 -0.000165669255449781 -3.27411351208141e-05 -0.000177360234422984 1.22184762528609e-05 -0.000165319688302269 1.18235115296861e-05
"219" -9.84197938497719e-05 8.51786602260368e-05 0.000118752706709615 0.00015638055979412 -1.73363290310737e-05 -0.000107495001936418 -9.73214503355825e-05 2.33601348369234e-06 -0.000157504117391096 -0.000104516207562901 -0.000168238731792017 -3.79872279635817e-05 -0.000176453061909013 1.92230732297559e-06 -0.000170799324410521 1.01413635533206e-05
"220" -0.000105575444365948 7.38603560963876e-05 0.000108735654305943 0.000140879651082295 -2.60926123452885e-05 -0.000110503086455724 -0.000107501749968585 -1.02458638492749e-07 -0.000159970434946215 -0.000110411427325984 -0.000170152249042134 -4.18029047515171e-05 -0.000174704322812003 -7.74616741381205e-06 -0.000175530527103943 8.81686359217069e-06
"221" -0.000112478167364285 6.3048350152547e-05 9.89074626647061e-05 0.000125807656756844 -3.41126729156472e-05 -0.000112519777148451 -0.000116741726184651 -2.16328500145808e-06 -0.000161888768395192 -0.000115764444443001 -0.000171394860463005 -4.41691796385332e-05 -0.000172101595403544 -1.67158481369351e-05 -0.00017948557243562 7.88204934823578e-06
"222" -0.000119034103127508 5.28734257795117e-05 8.93565417988197e-05 0.000111298297438953 -4.13541561498598e-05 -0.000113531652963875 -0.000124978893194279 -3.80720913476075e-06 -0.000163254235948013 -0.00012054013152782 -0.00017195698949933 -4.50781365291982e-05 -0.000168638349805741 -2.49084749345314e-05 -0.000182625527445181 7.35643144197237e-06
"223" -0.000125165655802441 4.34469144577365e-05 8.01667078915713e-05 9.74773813760879e-05 -4.77776894060947e-05 -0.000113543236050833 -0.000132157600191263 -4.99958858961952e-06 -0.000164060013572081 -0.000124715088177502 -0.000171830066643443 -4.45386450922581e-05 -0.000164326971677221 -3.22613141945354e-05 -0.000184923683381613 7.25811002042702e-06
"224" -0.000130781218132219 3.48747609073069e-05 7.14204044814488e-05 8.4466165753564e-05 -5.33523940379366e-05 -0.000112559410123897 -0.000138222851484958 -5.72661184366211e-06 -0.000164313087735502 -0.000128262105733244 -0.000171017031782276 -4.25759989244045e-05 -0.000159180671213078 -3.87192334265377e-05 -0.000186366195693202 7.6029918505641e-06
"225" -0.000135809128535622 2.7250121430629e-05 6.31917613472103e-05 7.2375946872585e-05 -5.80555182166924e-05 -0.000110601742699868 -0.000143149790356987 -5.95495019993976e-06 -0.000164014160535573 -0.000131169840638309 -0.000169522418803032 -3.92189525063596e-05 -0.000153224865992832 -4.422824300663e-05 -0.000186947395774726 8.40022728603437e-06
"226" -0.000140171884812133 2.06558310879255e-05 5.55536642531679e-05 6.13070375075848e-05 -6.18769497076664e-05 -0.000107699085972605 -0.000146914744762941 -5.67974535253768e-06 -0.00016317608197386 -0.000133423642684239 -0.000167358635677717 -3.45210338258668e-05 -0.000146490493283689 -4.87499642779483e-05 -0.000186657567693086 9.65252414235654e-06
"227" -0.000143801945180591 1.51610788304373e-05 4.85733508551934e-05 5.13536642739278e-05 -6.48089550690147e-05 -0.000103888636287862 -0.000149505946910464 -4.88582199647163e-06 -0.000161808072923695 -0.000135017339814793 -0.000164540480349237 -2.85409762466268e-05 -0.000139022317112604 -5.22513374148628e-05 -0.000185504185910964 1.13570669627877e-05
"228" -0.000146640118427989 1.08224803041238e-05 4.23075628345162e-05 4.25866908548932e-05 -6.68594274868231e-05 -9.92184258823718e-05 -0.000150928710903864 -3.56461507650819e-06 -0.000159934003850721 -0.000135959912272971 -0.000161092710631628 -2.13511442138553e-05 -0.000130862604716532 -5.47150814293906e-05 -0.00018350406960394 1.35090272559905e-05
"229" -0.000148630007490477 7.68337695527748e-06 3.6812362228697e-05 3.50784472572947e-05 -6.80393323702489e-05 -9.37488925277431e-05 -0.000151200805996128 -1.72756643805255e-06 -0.000157568814300294 -0.00013624806386863 -0.000157043851901063 -1.30375076925067e-05 -0.000122070837935052 -5.61242181238497e-05 -0.00018068209513961 1.60948244943075e-05
"230" -0.000149724741327838 5.77324047440588e-06 3.21354500399223e-05 2.88774787737962e-05 -6.8367706527225e-05 -8.75411405161189e-05 -0.000150357238293988 6.27381280648962e-07 -0.000154738267152095 -0.000135901088678512 -0.000152423937897036 -3.69206145356563e-06 -0.00011271072032986 -5.64790886483791e-05 -0.000177059044238456 1.90991828456722e-05
"231" -0.000149880977757699 5.10611047855402e-06 2.83171649944588e-05 2.40295175453473e-05 -6.78778562612512e-05 -8.06677644010269e-05 -0.000148430129719005 3.47983013214211e-06 -0.00015146993621051 -0.000134929830271892 -0.000147275346080963 6.57915659228075e-06 -0.000102846390460328 -5.57841939975938e-05 -0.000172674723170977 2.25031947991823e-05
"232" -0.000149072410325184 5.68844162987047e-06 2.53874181069372e-05 2.05581060963656e-05 -6.66012782203833e-05 -7.32105799836295e-05 -0.000145475149696379 6.82583770663482e-06 -0.00014779418928322 -0.000133362175129199 -0.000141636776309517 1.76614799421225e-05 -9.25488452475121e-05 -5.40632753124175e-05 -0.000167573671484407 2.62754748337326e-05
"233" -0.000147269919091712 7.50682985696375e-06 2.33697283285013e-05 1.84749492159563e-05 -6.45883736819707e-05 -6.52532121635409e-05 -0.000141561556485249 1.06355512954745e-05 -0.00014374087769428 -0.000131217551464541 -0.000135553716805932 2.94407795810049e-05 -8.18975896882611e-05 -5.13271020714941e-05 -0.000161801151487685 3.03880721340015e-05
"234" -0.000144463259689039 1.05342190467927e-05 2.22792104861655e-05 1.7779666542433e-05 -6.18854520424828e-05 -5.68816006429179e-05 -0.00013676143079384 1.48956265925637e-05 -0.000139345020688877 -0.000128531102742937 -0.000129075273572186 4.17900895380781e-05 -7.09698397310187e-05 -4.76222050238375e-05 -0.000155417072244704 3.48113184376345e-05
"235" -0.00014063910582434 1.47341625965703e-05 2.2127223062139e-05 1.84589253131442e-05 -5.85490325793234e-05 -4.81961147441498e-05 -0.00013115474850171 1.95670153748674e-05 -0.000134643267475696 -0.00012533375502934 -0.000122254930593448 5.45737431824122e-05 -5.98475195272546e-05 -4.29880573978648e-05 -0.000148476892403985 3.95021629323006e-05
"236" -0.000135807706798688 2.00572622999813e-05 2.29103165074991e-05 2.04826682132788e-05 -5.46449956960811e-05 -3.9291545145963e-05 -0.000124839244299244 2.46281019820734e-05 -0.000129672277073942 -0.00012166801637842 -0.00011514589358634 6.76624872575356e-05 -4.8615095063084e-05 -3.74684498486307e-05 -0.000141045871691257 4.44248846508049e-05
"237" -0.000129970044683209 2.6446019281033e-05 2.46264315453498e-05 2.38135871888321e-05 -5.02375713792151e-05 -3.02671574365245e-05 -0.000117910516583247 3.00425168527043e-05 -0.000124472576006258 -0.000117574236017955 -0.000107806042847695 8.09162952614904e-05 -3.73556623512188e-05 -3.11306773529412e-05 -0.000133194751058096 4.95353719005454e-05
"238" -0.000123148483866995 3.3821854988269e-05 2.72609790539533e-05 2.83928690701081e-05 -4.53968685370551e-05 -2.12201820746232e-05 -0.000110477655336093 3.57741474966411e-05 -0.000119081509417602 -0.000113091561465133 -0.000100291264811559 9.4200933499884e-05 -2.61465314950025e-05 -2.40293833731872e-05 -0.000124993425382303 5.47886868865372e-05
"239" -0.000115365447531604 4.21100426056788e-05 3.07878335281617e-05 3.41614697854848e-05 -4.01995236367998e-05 -1.22518985792514e-05 -0.000102647850366559 4.17918811672421e-05 -0.000113538414492156 -0.000108267258267921 -9.26582404986491e-05 0.000107379064748102 -1.50738051438943e-05 -1.62365231764915e-05 -0.000116513166442618 6.01412353455488e-05
"240" -0.000106658160557773 5.12196418740117e-05 3.51773036054513e-05 4.10372775001889e-05 -3.47192220552697e-05 -3.45746405996661e-06 -9.45425251707628e-05 4.80588469638074e-05 -0.000107878772075663 -0.000103146457383924 -8.49674635266312e-05 0.000120319413678558 -4.21236111351026e-06 -7.82645400466139e-06 -0.000107832787747269 6.55436106559026e-05
"241" -9.70663074270311e-05 6.10515879878902e-05 4.03940969545689e-05 4.89367850582714e-05 -2.90342213069489e-05 5.06364824740855e-06 -8.62718670942615e-05 5.45353185067222e-05 -0.000102150048625714 -9.77809028986371e-05 -7.727457944125e-05 0.000132886714336056 6.35721910960594e-06 1.11966428002303e-06 -9.90259765863387e-05 7.09501933302305e-05
"242" -8.6632840500956e-05 7.15038270370751e-05 4.64031479659347e-05 5.77668731084808e-05 -2.32218795396661e-05 1.32263804617626e-05 -7.7956111478849e-05 6.11822700828737e-05 -9.63820330916478e-05 -9.22132255942454e-05 -6.96370029367199e-05 0.000144961896673069 1.6571133926887e-05 1.0527330207256e-05 -9.01650518927802e-05 7.63173232066485e-05
"243" -7.54113429241345e-05 8.24718554013439e-05 5.31502073981709e-05 6.74217604301343e-05 -1.73581318262197e-05 2.09435112431691e-05 -6.97125490326545e-05 6.7961753264093e-05 -9.06130523255832e-05 -8.64900563574597e-05 -6.21066082081022e-05 0.000156421665722162 2.63647523289061e-05 2.03067643112586e-05 -8.13297800404743e-05 8.15978286666406e-05
"244" -6.34621272807938e-05 9.38378703165847e-05 6.05837383001275e-05 7.77918977280985e-05 -1.15214840298783e-05 2.81354000258542e-05 -6.16539752165039e-05 7.48451392527518e-05 -8.48762716728435e-05 -8.06587982085844e-05 -5.47381240560356e-05 0.000167160678126001 3.5673673769289e-05 3.0378809023593e-05 -7.25869189770267e-05 8.67459523623337e-05
"245" -5.08479410195193e-05 0.000105493722835973 6.86507561731623e-05 8.87593778838704e-05 -5.77962679845929e-06 3.4728412505746e-05 -5.39006907917463e-05 8.17934483916826e-05 -7.92073956951106e-05 -7.47707597607979e-05 -4.75800217720857e-05 0.00017706930346147 4.44503696896689e-05 4.06482060077694e-05 -6.4012807386319e-05 9.17207076932432e-05
"246" -3.76333069621017e-05 0.000117324046156151 7.72834831378253e-05 0.000100209258963581 -2.07764028057097e-07 4.066148512966e-05 -4.65496624292958e-05 8.87689422377903e-05 -7.36323513495011e-05 -6.88608407726268e-05 -4.06753266151e-05 0.00018606502598547 5.26476350519601e-05 5.10418054915785e-05 -5.56675095208192e-05 9.64821851210961e-05
"247" -2.38916467105063e-05 0.000129213907725345 8.64233969550048e-05 0.000112009749801324 5.13076402815531e-06 4.58757406974874e-05 -3.97116502946188e-05 9.57509817313457e-05 -6.81789847968972e-05 -6.2974750696693e-05 -3.40681918036348e-05 0.000194066765006471 6.02290153142923e-05 6.14714628327124e-05 -4.76171095859576e-05 0.000100992363210578
"248" -9.691560548871e-06 0.00014105316145994 9.60041794039425e-05 0.000124046476032589 1.01754591107033e-05 5.03296645642564e-05 -3.34766697787558e-05 0.000102702579947097 -6.28700595663843e-05 -5.71457179078393e-05 -2.77946296691915e-05 0.000201010296796085 6.71659193962362e-05 7.18594228957146e-05 -3.99130614246597e-05 0.000105222184852521
"249" 4.88812796592313e-06 0.000152728674768417 0.000105950569763691 0.000136185625797325 1.48679950069144e-05 5.39830262696316e-05 -2.79333409951972e-05 0.000109600742159137 -5.77335321053789e-05 -5.1413892430792e-05 -2.18893506440449e-05 0.000206830976712306 7.34361847343692e-05 8.21203845879478e-05 -3.26163819933581e-05 0.000109134661138953
"250" 1.97712881008251e-05 0.000164139915231229 0.000116196037485819 0.000148303991339643 1.91618173644602e-05 5.68133998906704e-05 -2.3162477514141e-05 0.000116423227852885 -5.27794306966957e-05 -4.58097771851172e-05 -1.63789937224252e-05 0.000211497914291499 7.9032117369363e-05 9.21864024073932e-05 -2.5769243945235e-05 0.000112710246878567
"251" 3.48851429485916e-05 0.000175183890982778 0.000126675700590633 0.000160282576425636 2.30136264707098e-05 5.88050292756787e-05 -1.92276395776511e-05 0.000123145776214569 -4.80270872814042e-05 -4.03605782460367e-05 -1.128671292487e-05 0.000214979590123867 8.3942635175084e-05 0.000101986587189954 -1.94071030721546e-05 0.000115921617148284
"252" 5.01463052057909e-05 0.000185773142652796 0.000137307795507258 0.000171995850738361 2.63844271160957e-05 5.9953039240689e-05 -1.61885420572834e-05 0.000129760057171957 -4.34860728378778e-05 -3.50921870044871e-05 -6.62767117021868e-06 0.000217265015781206 8.81812755216754e-05 0.000111458060478416 -1.35715740134253e-05 0.000118755572435367
"253" 6.5484923978533e-05 0.00019581938517222 0.000148031634913612 0.000183338754698934 2.92470138607775e-05 6.02621896351493e-05 -1.40939293511154e-05 0.000136240145673222 -3.91645065251271e-05 -3.00220644228342e-05 -2.41932934308366e-06 0.000218353604614308 9.17513880377201e-05 0.000120543153631908 -8.2861033964274e-06 0.000121195211023161
"254" 8.08290415534623e-05 0.000205244719653736 0.000158774116472486 0.000194197937793609 3.15836611475826e-05 5.97509398683656e-05 -1.29767512675049e-05 0.000142575557998794 -3.50654656866967e-05 -2.51703748804576e-05 1.33885551157567e-06 0.000218260145881797 9.46817370745661e-05 0.000129190221237288 -3.56719505442387e-06 0.000123236671589926
"255" 9.60985877383681e-05 0.00021398267226488 0.000169468985685897 0.000204473738620794 3.3376378548625e-05 5.84446756585333e-05 -1.28592888434732e-05 0.000148767439801939 -3.11929147808635e-05 -2.05444777971325e-05 4.63882663828693e-06 0.000217014878942747 9.69965429666547e-05 0.00013734981775982 5.70366146266637e-07 0.000124872948795194
"256" 0.000111233571702541 0.000221978817724409 0.000180052034101345 0.000214072558667885 3.46198990964178e-05 5.63768187207647e-05 -1.37530613601148e-05 0.000154795753779777 -2.75473571332272e-05 -1.61595384574469e-05 7.48348597548119e-06 0.000214653796472749 9.87264417106033e-05 0.000144984595909522 4.11149533869495e-06 0.000126103435184402
"257" 0.000126162904314761 0.000229177609167029 0.000190461936293341 0.000222911474197173 3.53193629952075e-05 5.35960180844927e-05 -1.56558282429516e-05 0.000160660681798922 -2.41186701212198e-05 -1.20106507756848e-05 9.88533349331247e-06 0.000211235807333125 9.99203821853872e-05 0.000152070089890013 7.07082322118974e-06 0.000126934109570367
"258" 0.000140827630515497 0.000235547357512988 0.000200638133091254 0.000230911443185672 3.54844414196124e-05 5.01528288085528e-05 -1.85523847597404e-05 0.000166359746864011 -2.09059629063933e-05 -8.10751727049237e-06 1.18558342692912e-05 0.000206816457230445 0.000100615439635451 0.000158573571649556 9.44492575788872e-06 0.000127375241101186
"259" 0.000155170829258062 0.000241058830352223 0.000210532528073962 0.000238012742456756 3.51300789944038e-05 4.61066091910109e-05 -2.24160956657942e-05 0.000171887000197415 -1.78941290531158e-05 -4.44094838070427e-06 1.34104664237331e-05 0.00020147664513263 0.00010086751433304 0.000164480738484332 1.12493762047998e-05 0.000127439321358435
"260" 0.000169139351672675 0.000245696397645738 0.000220089312806073 0.000244159689803669 3.42813919661342e-05 4.15239525184264e-05 -2.72175411356429e-05 0.000177246107060846 -1.50747714146466e-05 -1.00789922446079e-06 1.45718796835797e-05 0.000195293987429658 0.000100725391562223 0.000169778399723113 1.25052218338919e-05 0.000127143372645532
"261" 0.000182685843274431 0.000249455125315946 0.000229265379841438 0.000249310649669934 3.29686850016662e-05 3.64746524596303e-05 -3.28974438036196e-05 0.000182434699635771 -1.24381745156294e-05 2.20321526507127e-06 1.53635857905499e-05 0.000188363754348755 0.000100248903739106 0.000174471738891046 1.32324464903386e-05 0.000126504121061322
"262" 0.000195768584154963 0.000252335513137952 0.000238020440828549 0.000253435178096212 3.1225657619333e-05 3.1035323432928e-05 -3.94033646380479e-05 0.000187455327463555 -9.96430377537793e-06 5.20267031461357e-06 1.5814229292892e-05 0.000180774942988109 9.94900733569363e-05 0.000178552012505712 1.34595640732518e-05 0.000125548113402741
"263" 0.000208349310145727 0.000254354544228764 0.000246316682154362 0.00025650717194706 2.90995932741024e-05 2.52793582883994e-05 -4.6667576788261e-05 0.000192307071109298 -7.6434320846434e-06 8.00205362664387e-06 1.59507408814317e-05 0.000172630937195874 9.85060679371007e-05 0.0001820308100746 1.32200659894028e-05 0.000124296637274996
"264" 0.000220396183381305 0.000255536063516623 0.00025412337442965 0.000258523226282758 2.66291989223005e-05 1.9291072222127e-05 -5.46107264277393e-05 0.000196983634063929 -5.45859482458088e-06 1.06215829088674e-05 1.58066991510755e-05 0.000164034385006862 9.73583752187631e-05 0.000184927400342448 1.25485417264931e-05 0.000122781033979567
"265" 0.000231885841408512 0.000255910883784397 0.000261417446321403 0.000259484879285255 2.38708182683921e-05 1.3150797509216e-05 -6.31476214146433e-05 0.000201492058212641 -3.39178709329141e-06 1.30739374330606e-05 1.54170220394572e-05 0.000155094708460697 9.60971940258392e-05 0.000187257465340799 1.14848413696578e-05 0.000121029768945239
"266" 0.000242792936492043 0.000255516562483326 0.000268175002265304 0.000259400863636115 2.08763682080998e-05 6.93327606085274e-06 -7.21946387434716e-05 0.000205826776566118 -1.42834940748168e-06 1.5379900342951e-05 1.48124536737823e-05 0.00014591388195085 9.47799829162848e-05 0.000189042018671499 1.00678444045528e-05 0.000119069680070801
"267" 0.00025310581908426 0.000254405745874984 0.000274383659911809 0.000258298277392604 1.76984378049015e-05 7.21030639560109e-07 -8.16450256771104e-05 0.000209986088894203 4.46002100301198e-07 1.7555908218814e-05 1.40297058015914e-05 0.000136598646364052 9.34561699210927e-05 0.000190312754578867 8.33732741484638e-06 0.000116933582617288
"268" 0.000262811042913456 0.000252625336609102 0.000280027473355499 0.000256205457152545 1.43978154585994e-05 -5.40965380942143e-06 -9.14071648975188e-05 0.000213965557150908 2.24661320095705e-06 1.96201968584443e-05 1.31008264420985e-05 0.000127249670664531 9.21659059649917e-05 0.000191099178053066 6.33604782714316e-06 0.000114652969284494
"269" 0.000271902334259558 0.00025023632367585 0.000285105922246625 0.000253166666046236 1.10290647450329e-05 -1.13881622195286e-05 -0.000101374823911615 0.000217751159657622 3.98894449181094e-06 2.15946296941395e-05 1.20575517210221e-05 0.000117968011319167 9.0959452014292e-05 0.000191438638891565 4.11143056470296e-06 0.000112261600790373
"270" 0.000280379967365483 0.000247305365145935 0.00028961447495526 0.000249231778964171 7.65230578665244e-06 -1.71499354885414e-05 -0.000111434860017112 0.00022133986749476 5.67403601803803e-06 2.34899722030223e-05 1.09346782929677e-05 0.000108839936617268 8.98658302501238e-05 0.000191356156222273 1.69873406095728e-06 0.000109783736662984
"271" 0.000288247136486834 0.000243895708556515 0.000293557932551882 0.000244454765609157 4.32361243222658e-06 -2.262650304396e-05 -0.000121488987196359 0.000224720764636481 7.32486360483887e-06 2.53265162679854e-05 9.76455462826642e-06 9.99628547979862e-05 8.89175848998734e-05 0.000190897795805163 -8.60650444174937e-07 0.000107252071711871
"272" 0.000295506334050059 0.000240073144554722 0.000296941649466735 0.000238899153872071 1.09892807439638e-06 -2.77665648899719e-05 -0.00013142953529886 0.000227879888363634 8.94300073656711e-06 2.71171663421744e-05 8.57066094835263e-06 9.14118113651803e-05 8.81376249286352e-05 0.000190098008134882 -3.53001042690006e-06 0.000104694886379042
"273" 0.000302169782087921 0.000235913950632922 0.000299775036456565 0.000232637462519615 -1.96850282331685e-06 -3.2517738047204e-05 -0.000141150271910055 0.0002308044048061 1.0536312580014e-05 2.88725307992688e-05 7.38075360567732e-06 8.32648871256356e-05 8.75481116355621e-05 0.00018899408320102 -6.26606211900741e-06 0.000102138513399201
"274" 0.000308253765401094 0.000231485694770063 0.000302075368000739 0.000225740609779158 -4.82930181064631e-06 -3.68387084058892e-05 -0.000150551620704392 0.000233467414740054 1.21099535175637e-05 3.06068417240982e-05 6.21520194815332e-06 7.55813266941281e-05 8.71540615404733e-05 0.000187626357328164 -9.04521737894977e-06 9.96025483949497e-05
"275" 0.000313772017712152 0.000226854854192913 0.000303856706392978 0.000218286557399459 -7.43794149804483e-06 -4.0692319624518e-05 -0.000159531594869825 0.000235856444095059 1.36639833115411e-05 3.23261284077855e-05 5.10084575268175e-06 6.84198041509531e-05 8.69649781149426e-05 0.000186027778823726 -1.18326590674165e-05 9.71145309272654e-05
"276" 0.000318736770559217 0.000222094997978195 0.000305140583786969 0.000210351924288943 -9.75087186996467e-06 -4.40554200854764e-05 -0.000168006056828571 0.000237952816265108 1.51942726584692e-05 3.40314489213426e-05 4.04390381997772e-06 6.18237696892798e-05 8.69758525200393e-05 0.000184232973871846 -1.46048762147091e-05 9.46895136033904e-05
"277" 0.000323174338378139 0.00021727152585397 0.000305948800858536 0.000202020502092907 -1.17310631454044e-05 -4.69057650144498e-05 -0.000175882144281694 0.000239729258317934 1.67007583425106e-05 3.57295724440784e-05 3.06473828886022e-06 5.58331514375005e-05 8.7174954263981e-05 0.000182273155205086 -1.73367761520985e-05 9.23466835152617e-05
"278" 0.000327100441793475 0.000212447183137285 0.000306303510690067 0.000193374087879119 -1.33480099154611e-05 -4.92362586204997e-05 -0.000183084396490117 0.000241164471272513 1.817993306743e-05 3.74159387139918e-05 2.16702288824744e-06 5.04736692108001e-05 8.75563134310399e-05 0.000180182769381423 -2.00164324750595e-05 9.00962742026554e-05
"279" 0.000330540946042338 0.000207680274450456 0.000306228636648434 0.00018448940557763 -1.45729789411914e-05 -5.10384188521018e-05 -0.000189540867964932 0.000242233085111318 1.96165795510467e-05 3.90880979485763e-05 1.36057548197703e-06 4.57600762206002e-05 8.80906891928919e-05 0.000177983169886145 -2.26250930614978e-05 8.79514015452532e-05
"280" 0.000333513433931037 0.000203023797488346 0.000305755698615962 0.000175454408938145 -1.53855609191367e-05 -5.23247319447773e-05 -0.000195185566781656 0.00024290736434785 2.10076803970245e-05 4.07433648510055e-05 6.44935993413614e-07 4.17016987175692e-05 8.87507396046336e-05 0.000175702603593235 -2.51549689496802e-05 8.59189537580436e-05
"281" 0.000336041706483143 0.000198532243535609 0.000304904049817731 0.000166340091549975 -1.57769927039373e-05 -5.31045061122946e-05 -0.000199966441282703 0.00024316820558807 2.23363123375458e-05 4.23634175582772e-05 1.60569456332672e-08 3.82926418576718e-05 8.95094603534687e-05 0.00017335960352073 -2.76030203397263e-05 8.39984487305631e-05
"282" 0.000338150961433379 0.000194247254617614 0.000303706420710481 0.000157222167356124 -1.57299900012056e-05 -5.34008165575918e-05 -0.000203841120585826 0.000242982368214882 2.35865018167717e-05 4.39385914300995e-05 -5.30127786061403e-07 3.55189818261965e-05 9.03226740155228e-05 0.000170966729329005 -2.99721018666986e-05 8.21985970542401e-05
"283" 0.000339858751464677 0.000190211214795664 0.000302188025048258 0.000148177090875841 -1.52524053042939e-05 -5.32424290558004e-05 -0.000206767872977233 0.000242328742958186 2.47439341460159e-05 4.54557170051804e-05 -1.002184905241e-06 3.33651002684369e-05 9.11562996205733e-05 0.000168545343843076 -3.22598103526965e-05 8.0510571267713e-05
"284" 0.000341184958527893 0.000186450482686771 0.000300375557384408 0.000139265875286532 -1.43452838655655e-05 -5.26630916741349e-05 -0.000208728418474 0.000241186186737234 2.57863537131095e-05 4.68927480769826e-05 -1.41692991591738e-06 3.17950604559084e-05 9.19605650907552e-05 0.000166097306778506 -3.44823316072878e-05 7.89366319402382e-05
"285" 0.000342148755970329 0.000182996322322056 0.000298294676152927 0.000130553193480477 -1.30197282396025e-05 -5.17044543998199e-05 -0.000209710664741413 0.000239532800127067 2.67030474515062e-05 4.82325896120931e-05 -1.78587566791584e-06 3.07791044080888e-05 9.26952269059628e-05 0.000163635045587867 -3.66470626789518e-05 7.74652102237176e-05
"286" 0.000342769724925251 0.000179867108703241 0.000295970455974531 0.0001220958477549 -1.12939169875704e-05 -5.0410998747446e-05 -0.000209704125407384 0.00023734756596779 2.74634306015842e-05 4.94462704700162e-05 -2.12678488712024e-06 3.02675033487691e-05 9.33076107588416e-05 0.000161154780554658 -3.87720871118626e-05 7.6088772737695e-05
"287" 0.000343062754091354 0.000177075295602925 0.000293422579726109 0.000113941284812217 -9.18962514846346e-06 -4.88378761949096e-05 -0.000208719137105861 0.000234615291101604 2.80485120095044e-05 5.05117926485744e-05 -2.46596818866546e-06 3.02078965628843e-05 9.3746265156464e-05 0.000158653474299826 -4.08775536498004e-05 7.4792597300207e-05
"288" 0.000343045136727026 0.00017462916645584 0.000290680991970055 0.000106135573463696 -6.73822182006945e-06 -4.70392044830619e-05 -0.000206773138153984 0.00023131929277134 2.84377048545603e-05 5.14010146488998e-05 -2.81966841662097e-06 3.05479422419173e-05 9.39672533703142e-05 0.000156130396382758 -4.29808674764838e-05 7.35690578502576e-05
"289" 0.000342726028606982 0.000172532478502844 0.000287759314050924 9.87191710007891e-05 -3.97467515137694e-06 -4.50730562521583e-05 -0.000203889702692369 0.000227452138668577 2.86031645670656e-05 5.20860700423782e-05 -3.21711356354438e-06 3.12253251042442e-05 9.39123030237487e-05 0.000153573090966643 -4.51159361760271e-05 7.23961556175341e-05
"290" 0.000342118661530345 0.000170774573678033 0.000284676007943116 9.17181705566046e-05 -9.33242264679489e-07 -4.29987355920947e-05 -0.000200107619813744 0.00022300725707106 2.85283726430107e-05 5.25405910514847e-05 -3.68422556708117e-06 3.21759663654153e-05 9.35382449471474e-05 0.000150971393701365 -4.72982807808137e-05 7.12646555477885e-05
"291" 0.000341230730899806 0.000169348171239679 0.000281455058045617 8.51593362638794e-05 2.33609352260731e-06 -4.08777653548622e-05 -0.000195466873558848 0.000217986157900665 2.81863608501192e-05 5.27349388218355e-05 -4.24384957038112e-06 3.33328049601744e-05 9.28007730430325e-05 0.00014830960399904 -4.95631793103645e-05 7.01532460222388e-05
"292" 0.000340072174019245 0.000168237782730864 0.000278102126229369 7.90632515347511e-05 5.79037970291876e-06 -3.87764894649942e-05 -0.000190021181057763 0.000212383449085261 2.75582109735297e-05 5.26332629853402e-05 -4.92807586371073e-06 3.46264400484565e-05 9.16504546861209e-05 0.000145572876324076 -5.19402066612666e-05 6.90459399404906e-05
"293" 0.000338646810326974 0.000167423000580301 0.00027463797038654 7.34341785374454e-05 9.38114987588943e-06 -3.67520461542268e-05 -0.000183827585745096 0.000206212353106261 2.66224206510703e-05 5.22154319186806e-05 -5.75803393722935e-06 3.59900552274455e-05 9.00541420039611e-05 0.000142742759400473 -5.44517310406537e-05 6.79282615714112e-05
"294" 0.000336957999958292 0.000166878170037286 0.000271065129038299 6.82805140135464e-05 1.30525227306531e-05 -3.48666929537902e-05 -0.000176960311307404 0.000199483349446653 2.53573579219661e-05 5.1443602481108e-05 -6.76607989266451e-06 3.73489244268729e-05 8.79723459637884e-05 0.000139795862531418 -5.71338407252861e-05 6.67768227912849e-05
"295" 0.000335011537647937 0.00016657395615676 0.000267399397260569 6.3601343973547e-05 1.67487064012063e-05 -3.31803254009111e-05 -0.000169482485506738 0.000192214720443986 2.37520176666828e-05 5.02998862964638e-05 -7.97374206816697e-06 3.86438569648462e-05 8.53769043216196e-05 0.000136716750257296 -6.00106104658506e-05 6.55772860487048e-05
"296" 0.000332802756643619 0.000166479438708837 0.000263643123145103 5.93837497832616e-05 2.04195388275649e-05 -3.17476169490282e-05 -0.000161471821686293 0.000184436267996696 2.17830838380908e-05 4.87508713746542e-05 -9.40613909529165e-06 3.98025005313917e-05 8.22413001990785e-05 0.000133482079370365 -6.31070053547631e-05 6.43174789156796e-05
"297" 0.000330339461050569 0.000166556794542864 0.000259805267726383 5.56226850208348e-05 2.40050019685985e-05 -3.06169804631385e-05 -0.000153011648413984 0.000176161894004604 1.94445896684783e-05 4.6781067221999e-05 -1.10843988873678e-05 4.07658498832529e-05 7.85510928555086e-05 0.000130072052202783 -6.64526864209674e-05 6.29777186831079e-05
"298" 0.000327614334832528 0.000166773902863111 0.000255883086314065 5.22877817205453e-05 2.74479400888419e-05 -2.98388191444861e-05 -0.000144185344121849 0.000167437398115349 1.67230984201526e-05 4.43676572764288e-05 -1.3028381604351e-05 4.14759069641424e-05 7.42903825687127e-05 0.000126467476419988 -7.00635961625896e-05 6.15479294939017e-05
"299" 0.000324625809658465 0.000167089960620889 0.000251882654186331 4.93625590750657e-05 3.06986862052108e-05 -2.94531925878669e-05 -0.000135071164318915 0.00015829640126974 1.36139705999518e-05 4.14898507974719e-05 -1.52529348984654e-05 4.18784391945441e-05 6.94542605964403e-05 0.000122648003377095 -7.39610554304952e-05 6.00159241474638e-05
"300" 0.000321375725640893 0.000167463897691109 0.000247802433538293 4.68163620166526e-05 3.36984427788042e-05 -2.94951947638716e-05 -0.000125761944228133 0.000148784278378355 1.0111140614841e-05 3.81363609480246e-05 -1.77775865884803e-05 4.19260360398441e-05 6.40444463989607e-05 0.000118592863285985 -7.81657820147525e-05 5.83750515514356e-05
"301" 0.000317856935260007 0.000167858038886677 0.000243639267859598 4.4619218284888e-05 3.64000792258451e-05 -2.99944990969163e-05 -0.00011634024217306 0.00013894979850257 6.21605173056043e-06 3.42973910861359e-05 -2.06064527103767e-05 4.15766330310102e-05 5.80686094586401e-05 0.000114291135132559 -8.26841170909254e-05 5.66131504677147e-05
"302" 0.000314063991150633 0.000168235145636095 0.000239389949841726 4.27272591349206e-05 3.87542854697381e-05 -3.0974301984624e-05 -0.000106889251845881 0.00012884879664278 1.92503395616409e-06 2.99610231233989e-05 -2.37546401218457e-05 4.07944439551036e-05 5.15441099239967e-05 0.000109728171190931 -8.75251418476453e-05 5.47301943293139e-05
"303" 0.000309998311440079 0.00016855359379537 0.000235054066469026 4.1109736457717e-05 4.0717747501686e-05 -3.24477895618907e-05 -9.74962253108721e-05 0.000118537973382675 -2.74697992869984e-06 2.51263126913251e-05 -2.7217939461309e-05 3.95546803219303e-05 4.44913874698644e-05 0.000104891190313212 -9.26948092359901e-05 5.2720481117535e-05
"304" 0.000305658175502528 0.000168777532645301 0.000230626863202733 3.97257432732967e-05 4.22517172036684e-05 -3.44214803220253e-05 -8.82335353086927e-05 0.000108070190219176 -7.79345961951716e-06 1.979505578978e-05 -3.0998567780107e-05 3.78346343174809e-05 3.69416978575787e-05 9.97758057943916e-05 -9.81884109040646e-05 5.0590737082872e-05
"305" 0.000301036171996341 0.000168871306398005 0.000226102879708854 3.85304965571923e-05 4.3315507232752e-05 -3.69001025581025e-05 -7.9181369654e-05 9.75178793589678e-05 -1.32005751707432e-05 1.39767457061885e-05 -3.50904703094958e-05 3.56280590915156e-05 2.89384938970679e-05 9.43797522174511e-05 -0.000103998817362794 4.83418059364924e-05
"306" 0.000296133472690819 0.000168803740004373 0.000221477794636575 3.74809655514809e-05 4.38828866753054e-05 -3.98695998499728e-05 -7.04075165233349e-05 8.69436871790683e-05 -1.89486394593658e-05 7.67783081731769e-06 -3.94864320067858e-05 3.29278708231624e-05 2.05165264334757e-05 8.87027596260297e-05 -0.000110114212927948 4.59768211569116e-05
"307" 0.00029094702023133 0.000168545757009429 0.000216743894850967 3.65332457015384e-05 4.39274823664154e-05 -4.33196439968927e-05 -6.19824005880858e-05 7.64163784094915e-05 -2.50173569170322e-05 9.12890377937656e-07 -4.41761436784617e-05 2.97335203443295e-05 1.17277126002451e-05 8.27429385925252e-05 -0.000116524391806301 4.35078369587979e-05
"308" 0.000285477407773326 0.000168067154063812 0.000211900871140961 3.56433432831129e-05 4.34303619575103e-05 -4.72260662930543e-05 -5.39624682393099e-05 6.6007229362126e-05 -3.13831639696417e-05 -6.29501124724473e-06 -4.91385440052668e-05 2.60689220431666e-05 2.63077390828277e-06 7.65177019107613e-05 -0.000123200715074556 4.0948729259343e-05
"309" 0.000279729450437377 0.000167349203816482 0.000206940692039237 3.47714140792942e-05 4.23804331164051e-05 -5.15601177496271e-05 -4.64034590085873e-05 5.57855832315592e-05 -3.80124498639148e-05 -1.39269738607178e-05 -5.43534362204154e-05 2.1947965265569e-05 -6.71419510014026e-06 7.00355760058142e-05 -0.000130117720809536 3.83104414015593e-05
"310" 0.000273699490985693 0.000166366719055565 0.000201859079525209 3.38726142509271e-05 4.07659923052711e-05 -5.62882292073959e-05 -3.93498524617345e-05 4.58153437772881e-05 -4.48792266573693e-05 -2.19514605508861e-05 -5.97981526340043e-05 1.73989805152683e-05 -1.62505251901864e-05 6.33096553909014e-05 -0.000137248689302999 3.56119356635494e-05
"311" 0.000267397232868726 0.000165108448612832 0.00019665514668016 3.29072012445671e-05 3.85868703078558e-05 -6.136407781936e-05 -3.28424186918434e-05 3.61737065797809e-05 -5.19464471735829e-05 -3.03348202016571e-05 -6.5442543563081e-05 1.24618198787044e-05 -2.58983152286766e-05 5.63647306769144e-05 -0.000144553156116541 3.28715740390857e-05
"312" 0.000260823512994346 0.000163558470667811 0.000191322051256181 3.18359684154606e-05 3.58483298933253e-05 -6.67421573090932e-05 -2.69149022655612e-05 2.69202571969466e-05 -5.91744276044502e-05 -3.90447264685318e-05 -7.12544773158991e-05 7.17701334048461e-06 -3.55926787966537e-05 4.92245995760461e-05 -0.000151991261264375 3.01101110717168e-05
"313" 0.00025398852764918 0.000161713532246542 0.000185863849966198 3.06249336236387e-05 3.25670294525466e-05 -7.23729409320154e-05 -2.1591440463866e-05 1.81260340544951e-05 -6.65265703227928e-05 -4.80406010271092e-05 -7.72039376514176e-05 1.5928804188041e-06 -4.52602495704749e-05 4.19170616171664e-05 -0.000159521179638036 2.73492192381464e-05
"314" 0.000246903980041723 0.000159564710280933 0.000180278984988756 2.92431573447102e-05 2.87524760974091e-05 -7.81954492958794e-05 -1.68928496201427e-05 9.84510866288862e-06 -7.39554274647574e-05 -5.72738180577942e-05 -8.32473900716763e-05 -4.23276449867337e-06 -5.48217480210389e-05 3.44770758935845e-05 -0.000167090105863343 2.46178056667886e-05
"315" 0.000239573435721784 0.000157114249097835 0.000174564829612984 2.76577726805688e-05 2.44352927077775e-05 -8.41511761947769e-05 -1.28268159084293e-05 2.14369893695166e-06 -8.14185263060194e-05 -6.67007410965533e-05 -8.93492809510657e-05 -1.02367369598615e-05 -6.42020313060611e-05 2.6939311182287e-05 -0.000174650474982761 2.19366348263019e-05
"316" 0.000232014107520265 0.00015436745121966 0.000168725754996308 2.58441600926422e-05 1.96385116805876e-05 -9.01791618089092e-05 -9.39510602409663e-06 -4.93419504836262e-06 -8.88741974265103e-05 -7.62722843743898e-05 -9.54649001679416e-05 -1.63633382270534e-05 -7.33317085368867e-05 1.93369344285399e-05 -0.000182148528690946 1.93312318909565e-05
"317" 0.000224237048146325 0.000151325357526185 0.00016276800731651 2.37791777470111e-05 1.43973436636983e-05 -9.62127044376989e-05 -6.59898323814124e-06 -1.13361581636718e-05 -9.62727854190492e-05 -8.59375056574404e-05 -0.000101556345898657 -2.25373493368118e-05 -8.21315278660503e-05 1.17205806255557e-05 -0.00018953036194904 1.68321211329328e-05
"318" 0.000216260406440127 0.00014800619259585 0.000156692963757622 2.14431540275584e-05 8.75160054369615e-06 -0.000102187357944598 -4.42313381213762e-06 -1.70241264494113e-05 -0.000103566334313414 -9.5643317130188e-05 -0.000107574753899641 -2.86915727920899e-05 -9.05309024941213e-05 4.12290295334471e-06 -0.00019674122212092 1.44638402697032e-05
"319" 0.000208100536642859 0.000144418433911965 0.000150513021002283 1.8826780694369e-05 2.745303618591e-06 -0.000108038901860778 -2.85180636402438e-06 -2.19609287709806e-05 -0.000110708402999071 -0.000105332184726026 -0.000113477176985176 -3.47521762849788e-05 -9.84561307181317e-05 -3.40131658366455e-06 -0.000203714674998145 1.22532334273346e-05
"320" 0.000199776299856779 0.000140581648778578 0.000144230545043405 1.59178919495176e-05 -3.57621228853438e-06 -0.000113697290371252 -1.86408125951271e-06 -2.61175044393032e-05 -0.000117648287296462 -0.00011494584832127 -0.000119212956321294 -4.06398484704934e-05 -0.000105844769490689 -1.08033593169836e-05 -0.000210400847508969 1.02299860953732e-05
"321" 0.000191306346109256 0.000136511969822068 0.000137858700883451 1.27057519332767e-05 -1.01623997643151e-05 -0.000119104051071213 -1.43195270657707e-06 -2.94731867912309e-05 -0.000124343858205921 -0.000124437479423611 -0.000124746974852893 -4.62928945775698e-05 -0.000112637084894018 -1.80503710562052e-05 -0.00021673979877218 8.41363736889528e-06
"322" 0.000182713189080184 0.000132232561375654 0.000131409000909926 9.19171520452793e-06 -1.69551858130883e-05 -0.000124194043085417 -1.52292965602903e-06 -3.2012608327914e-05 -0.000130746506754707 -0.000133740543061596 -0.000130030050377412 -5.16296709378422e-05 -0.000118770277968054 -2.50806752894253e-05 -0.000222670976778729 6.82873735623224e-06
"323" 0.000174023817811952 0.000127766693372942 0.000124893817260097 5.37884922319247e-06 -2.39071858888296e-05 -0.000128910638829638 -2.09666951632993e-06 -3.37347007834414e-05 -0.000136813021773328 -0.000142805517927214 -0.000135016162942664 -5.6581051248428e-05 -0.000124196461693991 -3.18515494946117e-05 -0.00022814323164051 5.50296974032311e-06
"324" 0.000165253291643693 0.000123134417431865 0.000118324105888381 1.27017622874121e-06 -3.09554082732788e-05 -0.00013319680383716 -3.11563181223417e-06 -3.46327241532081e-05 -0.000142500335057269 -0.000151574876992111 -0.000139667852556103 -6.10806648314969e-05 -0.000128865005983284 -3.83199511080263e-05 -0.000233104223549441 4.44962118773405e-06
"325" 0.000156433357466279 0.000118369369626815 0.0001117227767663 -3.12173485781991e-06 -3.80405856310651e-05 -0.00013700291328007 -4.53193324268347e-06 -3.47252203169971e-05 -0.000147767470555449 -0.000159991215507245 -0.000143943513285826 -6.50602215879396e-05 -0.000132742621087215 -4.44322241201099e-05 -0.000237498594572271 3.69379503196719e-06
"326" 0.00014759073179291 0.000113490350214594 0.000105100016310203 -7.78087822030168e-06 -4.51077726177114e-05 -0.000140281725351708 -6.30230530941818e-06 -3.40278380024299e-05 -0.000152579714404948 -0.000168010688514974 -0.000147806086156916 -6.84613001661165e-05 -0.000135794390276189 -5.01508924731069e-05 -0.000241286781235014 3.24724712960496e-06
"327" 0.000138747444104102 0.000108529378233905 9.84742870246235e-05 -1.26940505825446e-05 -5.20958671659776e-05 -0.000142993573709324 -8.3762128080877e-06 -3.25661921671842e-05 -0.000156897857789971 -0.000175577576573156 -0.000151219948720309 -7.12251965374854e-05 -0.0001379934582994 -5.54323897966537e-05 -0.000244418341101148 3.12452162758005e-06
"328" 0.000129931527120108 0.000103511013568963 9.18661678700345e-05 -1.78405606123076e-05 -5.89487956928217e-05 -0.000145101893894846 -1.07066327390331e-05 -3.0365569555067e-05 -0.000160694664568445 -0.000182644761806113 -0.000154155649349389 -7.33023890708234e-05 -0.000139323282448425 -6.02370964180423e-05 -0.000246860632671806 3.33158357189003e-06
"329" 0.000121171565849014 9.84621586590648e-05 8.52920179804e-05 -2.3196208900815e-05 -6.56033952914094e-05 -0.000146579682517238 -1.3240328421191e-05 -2.74753310821294e-05 -0.000163937700325218 -0.000189172888115375 -0.000156581079537506 -7.46479370251999e-05 -0.000139771127382283 -6.45300444041032e-05 -0.000248570834678842 3.88342478668451e-06
"330" 0.00011249603569711 9.34092045225238e-05 7.87753027222738e-05 -2.87318998343031e-05 -7.20102763062478e-05 -0.000147403889549158 -1.59292199424526e-05 -2.39364707718751e-05 -0.000166606087598175 -0.000195118344863341 -0.000158476632413503 -7.52240330082819e-05 -0.000139337678727269 -6.82812535242861e-05 -0.000249527319507026 4.78198321036439e-06
"331" 0.00010392823188896 8.83769273011739e-05 7.23321810078263e-05 -3.44236721167672e-05 -7.81157163332162e-05 -0.000147555716878 -1.87217138605059e-05 -1.98008029448021e-05 -0.00016867774322692 -0.000200443311263641 -0.000159815381422742 -7.50002978421032e-05 -0.000138026137078486 -7.14624845957127e-05 -0.000249704038411362 6.02183754372897e-06
"332" 9.55033639571604e-05 8.33883722380686e-05 6.59879339788925e-05 -4.02366097451675e-05 -8.38656091850413e-05 -0.000147029549486636 -2.15688575770745e-05 -1.51280395823798e-05 -0.000170136618168027 -0.000205119633019641 -0.000160584025640336 -7.39508256456143e-05 -0.000135846229161529 -7.40478581703103e-05 -0.000249081176349553 7.60907043614691e-06
"333" 8.72410112124526e-05 7.84705216762172e-05 5.97584528529056e-05 -4.61357290635012e-05 -8.92193377730634e-05 -0.000145821959330507 -2.44199386996502e-05 -9.98079499893284e-06 -0.000170972289799306 -0.000209115292012486 -0.000160769610391536 -7.20608067749045e-05 -0.000132821166725629 -7.60168729815734e-05 -0.0002476509736885 9.53144150280463e-06
"334" 7.91710430772032e-05 7.36413454354767e-05 5.36666773662392e-05 -5.20933869689151e-05 -9.41257946244157e-05 -0.000143937359971006 -2.72346970225825e-05 -4.42826795095953e-06 -0.000171178705838131 -0.000212410156137149 -0.000160365984493376 -6.93261051541709e-05 -0.000128980176175795 -7.73640936864947e-05 -0.000245403876500139 1.17803566471132e-05
"335" 7.13186493944885e-05 6.89244591492745e-05 4.77326687734078e-05 -5.80707581728977e-05 -9.85509087205692e-05 -0.000141385022879028 -2.99714213680979e-05 1.46634195713868e-06 -0.000170749705193537 -0.000214984066623581 -0.000159365256820372 -6.57422524666828e-05 -0.000124348762838985 -7.80723616192701e-05 -0.000242340375516377 1.43467599896407e-05
"336" 6.37117503599666e-05 6.4334379252089e-05 4.19773180279651e-05 -6.40287022402619e-05 -0.000102456115731305 -0.000138184811009718 -3.25823634755889e-05 7.62007489022415e-06 -0.000169688147728258 -0.000216822446083966 -0.000157766283488976 -6.13198533192173e-05 -0.00011897832016476 -7.814028658829e-05 -0.000238468940305249 1.72107799359746e-05
"337" 5.63748271383817e-05 5.98937717163775e-05 3.64169555470937e-05 -6.99343252898486e-05 -0.000105812348176798 -0.000134358566874498 -3.50346386560335e-05 1.39688452491715e-05 -0.000168002120938367 -0.000217916447004245 -0.000155577427619669 -5.60722028653218e-05 -0.000112906370101187 -7.75704878768602e-05 -0.000233803787736223 2.03567727988169e-05
"338" 4.93284072681338e-05 5.56112158329823e-05 3.10706009956736e-05 -7.57511519599361e-05 -0.000108593887652904 -0.000129939849218285 -3.72953055592668e-05 2.0432504074503e-05 -0.000165701417433754 -0.00021826760518395 -0.000152808522721432 -5.00300893188297e-05 -0.000106187703154584 -7.63689944649957e-05 -0.000228364103550988 2.37590638006431e-05
"339" 4.25960837077531e-05 5.15065880506173e-05 2.59577622829332e-05 -8.14363634837948e-05 -0.0001107782849471 -0.000124958689644193 -3.93298167974481e-05 2.69370316611396e-05 -0.00016280628908322 -0.000217874401636313 -0.000149470925432306 -4.32263895312671e-05 -9.88845311072731e-05 -7.4550791820699e-05 -0.000222172904690025 2.73953692456226e-05
"340" 3.62020316102426e-05 4.75880311781374e-05 2.10950325965255e-05 -8.69582987139433e-05 -0.000112351007495564 -0.000119461310166607 -4.11140160573333e-05 3.34038733945972e-05 -0.000159330487710039 -0.000216741917495123 -0.000145583829691614 -3.56994269308012e-05 -9.10514484184038e-05 -7.21276679742587e-05 -0.000215262015419386 3.12363384109309e-05
"341" 3.01638797921825e-05 4.38673155595472e-05 1.64965816999204e-05 -9.22795218456701e-05 -0.000113299931675728 -0.000113489901909381 -4.2626100606043e-05 3.97645547741263e-05 -0.000155303748225964 -0.000214888538115076 -0.000141170298922935 -2.74978908991157e-05 -8.27617189932772e-05 -6.91314848537009e-05 -0.000207670705084584 3.52531752181809e-05
"342" 2.45006127360838e-05 4.03542186559085e-05 1.21752968657623e-05 -9.73656970413195e-05 -0.000113618511056586 -0.000107091982445333 -4.38422823329921e-05 4.59532599515909e-05 -0.000150753309412815 -0.00021232584894558 -0.000136253263298684 -1.86764682446487e-05 -7.40799750830013e-05 -6.5584768463689e-05 -0.000199444656146701 3.9415118152038e-05
"343" 1.92310597645773e-05 3.70580019058587e-05 8.14468690965371e-06 -0.00010218291963506 -0.000113305611357685 -0.000100322001154824 -4.47512060469841e-05 5.18979443387684e-05 -0.000145711896740107 -0.000209080444612104 -0.000130863531907814 -9.29811417621845e-06 -6.50779623840655e-05 -6.15183768432688e-05 -0.000190624239876997 4.36880923138056e-05
"344" 1.43667725955999e-05 3.39824282905373e-05 4.41638359762143e-06 -0.000106699388174685 -0.00011236700923443 -9.32357626008104e-05 -4.53425582482506e-05 5.75398395131213e-05 -0.00014021392525839 -0.000205178206856807 -0.000125033316898086 5.68279151614336e-07 -5.58312050808964e-05 -5.69717801163997e-05 -0.000181268171713355 4.80361673309601e-05
