"V1" "V2" "V4" "V5" "V7" "V8" "V10" "V11" "V13" "V14" "V15" "V17" "V18" "V20" "V21" "V23"
"1" -0.000260607942417014 -0.00043736935182183 -0.000253416613541295 -0.000186955591432096 -0.000209777406715583 -0.000184211489561645 -0.000313781317286122 -0.000322428037811418 2.7005832167036e-05 -3.50061188041416e-05 -7.91144911428111e-05 -0.000121320751285275 -0.000109164210853528 1.46422662590532e-05 -0.000115194119300361 -8.32545239410811e-05
"2" -0.00025658420932998 -0.000438123321514056 -0.000253661934969667 -0.000186108667619195 -0.000202386508214134 -0.000178179724007165 -0.000313376908321677 -0.000326792609831167 3.26015920347365e-05 -2.65952372086317e-05 -7.44194834255848e-05 -0.000116167412614153 -0.000102086977784738 1.56080559194761e-05 -0.000112230047405002 -8.07682915478443e-05
"3" -0.000251919363841182 -0.000439026826892851 -0.000253526744046567 -0.000184872591489714 -0.000194753965254787 -0.000171701328021771 -0.000312991735575365 -0.000330770585856479 3.83501322882093e-05 -1.79076644864697e-05 -6.95442096097302e-05 -0.000110960272291025 -9.52187743032451e-05 1.66665814839161e-05 -0.000108966297745466 -7.81838252484059e-05
"4" -0.000246628606556256 -0.000440091929406154 -0.00025301436025039 -0.000183258528442131 -0.000186915042193177 -0.000164819315591738 -0.0003126351955865 -0.000334375880469555 4.42241402349057e-05 -8.99305031222161e-06 -6.45062266260795e-05 -0.000105725318487937 -8.8586738394372e-05 1.78054485097025e-05 -0.000105404386092561 -7.55106451156929e-05
"5" -0.000240737072297566 -0.000441326513691726 -0.000252130567620721 -0.000181300055438941 -0.000178898048291452 -0.000157586998620901 -0.000312311116532595 -0.00033761115923548 5.0189362814018e-05 8.80489070681321e-08 -5.93238945151458e-05 -0.000100491833515958 -8.22115614978215e-05 1.8996074129602e-05 -0.000101561923273563 -7.27626982064633e-05
"6" -0.000234261081066789 -0.000442737343635665 -0.000250884608451619 -0.000179020155569803 -0.00017074093229292 -0.000150053220061602 -0.000312022429024971 -0.000340502657459325 5.62255258942561e-05 9.28842096367733e-06 -5.40093146313494e-05 -9.52892198126975e-05 -7.61182953489622e-05 2.02372086879796e-05 -9.74397517619827e-05 -6.9942515146791e-05
"7" -0.000227240568099276 -0.000444321445175567 -0.000249294726690144 -0.000176446704063148 -0.000162473340546865 -0.000142273964471875 -0.000311770325955241 -0.000343063074479049 6.22973836795556e-05 1.8544471239271e-05 -4.85866256095378e-05 -9.014813253361e-05 -7.03310215043425e-05 2.14960535937972e-05 -9.30633015432445e-05 -6.70710846820328e-05
"8" -0.000219701966377729 -0.000446062223910607 -0.000247365433106841 -0.00017360881135658 -0.000154118834288545 -0.000134297771772982 -0.000311548188130266 -0.000345294648381853 6.83744500560708e-05 2.7795658078217e-05 -4.30748087510118e-05 -8.50914901489483e-05 -6.48601637416218e-05 2.27616264232495e-05 -8.84404897906756e-05 -6.41572715563757e-05
"9" -0.000211687709464016 -0.000447953926375782 -0.000245130598565462 -0.000170537231296537 -0.000145714401063494 -0.000126187959136186 -0.000311356579027978 -0.00034722974950838 7.44321030151171e-05 3.69888954718603e-05 -3.74943666993427e-05 -8.01579767837995e-05 -5.97281439417161e-05 2.4017051094381e-05 -8.35930567637111e-05 -6.12190101718223e-05
"10" -0.000203241817381576 -0.000449974616683335 -0.00024260244246437 -0.000167260110424527 -0.000137285124716484 -0.000118000161172249 -0.000311180578935897 -0.000348875062854893 8.04338935626061e-05 4.60567243682608e-05 -3.18683106021779e-05 -7.53710255106086e-05 -5.49464787500878e-05 2.52451824782609e-05 -7.85480404061838e-05 -5.82693101171011e-05
"11" -0.000194404908865475 -0.000452108971700273 -0.000239806739195618 -0.000163812460368924 -0.000128852168043603 -0.000109787034344818 -0.000311017900127132 -0.000350253685065464 8.63594862182401e-05 5.49437206811697e-05 -2.6214692594785e-05 -7.07572133481744e-05 -5.05226257249248e-05 2.64267270825031e-05 -7.33210841492634e-05 -5.53306093132529e-05
"12" -0.000185230754109466 -0.000454324009069584 -0.000236777564380211 -0.000160221645480902 -0.00012044156763204 -0.00010160502935305 -0.000310846155981472 -0.000351375355351347 9.21734381041982e-05 6.35949262610628e-05 -2.05593811141509e-05 -6.63457657507287e-05 -4.64684786397656e-05 2.75499887968e-05 -6.79442148696265e-05 -5.24170722490228e-05
"13" -0.000175766801546151 -0.000456596196876748 -0.000233536011575823 -0.000156522813144406 -0.000112080203369882 -9.3509119227317e-05 -0.000310658331374142 -0.00035226790378331 9.7862047477349e-05 7.19511790339647e-05 -1.49199415462374e-05 -6.21576491233624e-05 -4.27824047280771e-05 2.86098068131279e-05 -6.24361610526708e-05 -4.95465676030432e-05
"14" -0.00016606688731598 -0.000458883697165022 -0.000230115637028006 -0.000152739813045445 -0.000103777123586585 -8.5545558917958e-05 -0.000310429550875003 -0.000352940943004575 0.000103399782567696 7.99669768592858e-05 -9.31744152138868e-06 -5.82153911412746e-05 -3.94662820347611e-05 2.95939239007953e-05 -5.68286939925682e-05 -4.67327667304799e-05
"15" -0.00015619250981501 -0.000461156841342889 -0.000226556186022566 -0.0001489064534984 -9.55735672099841e-05 -7.7771222035086e-05 -0.000310147067483956 -0.000353413632836339 0.000108759355089683 8.75833365551194e-05 -3.77648992919028e-06 -5.45430751174097e-05 -3.65161098997853e-05 3.04876858568046e-05 -5.11544296952344e-05 -4.40002008736651e-05
"16" -0.000146189241653615 -0.0004633715891171 -0.000222882772078886 -0.000145043553588708 -8.74632877638502e-05 -7.02278526425173e-05 -0.000309784225980742 -0.000353702761899124 0.000113927475701669 9.47601417646295e-05 1.68736943926054e-06 -5.11578527394668e-05 -3.39298842467839e-05 3.12947131170353e-05 -4.54310952353079e-05 -4.13580871730154e-05
"17" -0.000136120313429903 -0.000465494897489671 -0.000219131837585868 -0.000141182259433972 -7.94827594451372e-05 -6.29622794267407e-05 -0.000309324497236402 -0.000353831591270729 0.000118889147553971 0.00010145764825005 7.05721152816817e-06 -4.80714980761775e-05 -3.16911069582886e-05 3.20137772824522e-05 -3.96942829647008e-05 -3.88239498064272e-05
"18" -0.000126034283857761 -0.000467482771029216 -0.00021533382781387 -0.000137340347688861 -7.16328987640774e-05 -5.60030816167041e-05 -0.000308738735487513 -0.00035381168153522 0.000123629262840859 0.000107639890722596 1.23137411313003e-05 -4.52965787175216e-05 -2.97889042030981e-05 3.2641374889601e-05 -3.39705772144577e-05 -3.64112313358605e-05
"19" -0.000115993748138035 -0.000469278152832931 -0.000211527379580694 -0.000133538282745123 -6.39355113767666e-05 -4.93911712304728e-05 -0.000308000206350002 -0.0003536499304628 0.00012813037819182 0.000113266662893281 1.74363232386059e-05 -4.28430398353299e-05 -2.82082044424673e-05 3.31804668025969e-05 -2.82934659033946e-05 -3.41373695732258e-05
"20" -0.00010604490639321 -0.000470858624884428 -0.000207740778992029 -0.000129795030407294 -5.64039584039261e-05 -4.31533993688712e-05 -0.000307089047996573 -0.000353371557521581 0.00013239068910204 0.000118323211141009 2.24206705222034e-05 -4.071709172793e-05 -2.69227968397179e-05 3.36369228941488e-05 -2.26832716741884e-05 -3.20079011908431e-05
"21" -9.62463274208078e-05 -0.000472172687287476 -0.000204013322373911 -0.000126128173446048 -4.90491349118319e-05 -3.7317938185761e-05 -0.000305981485094342 -0.000352991983507687 0.000136399083325216 0.000122784180115253 2.72461816826264e-05 -3.89259565923837e-05 -2.59149639983436e-05 3.40167849236735e-05 -1.71716992063351e-05 -3.00349155172353e-05
"22" -8.66469943718964e-05 -0.000473178370270149 -0.000200368461378806 -0.000122547051746759 -4.18839276710545e-05 -3.19029524903889e-05 -0.000304646099779619 -0.000352521653583819 0.000140146375828488 0.000126631036284766 3.18987907245678e-05 -3.74649470034924e-05 -2.51588767992176e-05 3.43335993736275e-05 -1.17846688661273e-05 -2.82253592968308e-05
"23" -7.72866504297516e-05 -0.000473833006078261 -0.000196836639556641 -0.000119062089613519 -3.49122048087991e-05 -2.69189190276219e-05 -0.000303064741675764 -0.000351969318043389 0.000143640610903662 0.000129863011121775 3.63775167334988e-05 -3.63290965699417e-05 -2.46207489098279e-05 3.45949634539871e-05 -6.54250582029039e-06 -2.65875529252014e-05
"24" -6.82228633621749e-05 -0.000474098310689506 -0.000193450866705147 -0.00011568220312006 -2.81576351562478e-05 -2.23834049426312e-05 -0.000301210152913848 -0.000351357461748514 0.000146864875006309 0.000132466884032665 4.0663830339864e-05 -3.55235209518014e-05 -2.4278961227721e-05 3.48104826360414e-05 -1.47584008864006e-06 -2.51238847504002e-05
"25" -5.94875058602413e-05 -0.000473942395316603 -0.000190227736095885 -0.000112409533586561 -2.1621469615248e-05 -1.82946935891843e-05 -0.000299061159010727 -0.000350680090978303 0.000149834148278935 0.000134453375109696 4.47555787615553e-05 -3.5025868420005e-05 -2.40929057895193e-05 3.5004017225094e-05 3.40055246763785e-06 -2.38355248003085e-05
"26" -5.11218986257944e-05 -0.000473323905493276 -0.000187202346375325 -0.000109247226619714 -1.53210537732153e-05 -1.46556185234304e-05 -0.000296600406157094 -0.000349957906304435 0.000152537744404788 0.000135822905497598 4.86463322815566e-05 -3.48345457683041e-05 -2.40305733718816e-05 3.51805097312131e-05 8.0605357243204e-06 -2.27235539487819e-05
"27" -4.31578034899482e-05 -0.000472217785577402 -0.000184383056462154 -0.000106188457291582 -9.25657773502943e-06 -1.14588543975035e-05 -0.000293806693592894 -0.000349194794372967 0.00015498715848805 0.00013659486911482 5.23324166345416e-05 -3.4929082675563e-05 -2.40597204439466e-05 3.53675453477257e-05 1.24919195644712e-05 -2.17807066988436e-05
"28" -3.56283040881642e-05 -0.000470589612717433 -0.000181802120576175 -0.00010324110535816 -3.44689881817356e-06 -8.69722646456436e-06 -0.000290665831795909 -0.000348397477175476 0.000157184141431506 0.000136786210981418 5.58133403832032e-05 -3.52937782776388e-05 -2.41370112905746e-05 3.55765597952292e-05 1.6679103284085e-05 -2.10057918421187e-05
"29" -2.85653089356048e-05 -0.000468415525589998 -0.000179473292694284 -0.000100388664248097 2.09719505247594e-06 -6.35807622690102e-06 -0.0002871665619182 -0.00034757178844775 0.000159124675025131 0.000136411808623693 5.90774645064002e-05 -3.59155811666613e-05 -2.42359022555641e-05 3.58185070063937e-05 2.05963455187236e-05 -2.03965996619613e-05
"30" -2.19809894190846e-05 -0.000465685912989886 -0.000177400659247729 -9.76288336989806e-05 7.36850196363266e-06 -4.42198351778797e-06 -0.000283297587034004 -0.000346723780866196 0.000160821977790664 0.000135511791465972 6.2134837439358e-05 -3.67708833861132e-05 -2.43171401122568e-05 3.61148085265172e-05 2.42444224429825e-05 -1.99392660890124e-05
"31" -1.59034263249833e-05 -0.000462375690968633 -0.000175611040390865 -9.49518065092276e-05 1.23511587565628e-05 -2.86607021104379e-06 -0.000279057672580878 -0.000345852127591111 0.00016228253557808 0.000134109516325106 6.497986303575e-05 -3.78345586925642e-05 -2.43420404093749e-05 3.64827357816047e-05 2.76055317527097e-05 -1.96241256037416e-05
"32" -1.03435060761623e-05 -0.0004584741087929 -0.000174106702091151 -9.23473370043612e-05 1.70384835448548e-05 -1.67068240192112e-06 -0.00027443869468147 -0.000344960710424141 0.000163505791991479 0.000132240568286556 6.76166529790093e-05 -3.90927277824802e-05 -2.42792523139231e-05 3.69330257027018e-05 3.06710796182255e-05 -1.94428593786883e-05
"33" -5.30938592713182e-06 -0.000453974250362884 -0.000172894277724915 -8.97989425595246e-05 2.14204724716789e-05 -7.98373027236572e-07 -0.000269443142667745 -0.00034404018099629 0.000164503233206544 0.000129948318810098 7.00490354947051e-05 -4.0506720150112e-05 -2.40910079231102e-05 3.74865962270692e-05 3.34429573778548e-05 -1.93781379891051e-05
"34" -8.10958494422695e-07 -0.000448881003282699 -0.000171980969078952 -8.72981623411709e-05 2.54737085744003e-05 -2.27791449154221e-07 -0.000264082561706301 -0.000343105294187347 0.000165276433409672 0.000127268339809618 7.22774061537101e-05 -4.20641161052937e-05 -2.37499522698137e-05 3.8150872915525e-05 3.59122077369932e-05 -1.94147387933879e-05
"35" 3.14820804497279e-06 -0.000443181440965308 -0.000171365699916137 -8.48261317511821e-05 2.92039474322884e-05 7.98818496669634e-08 -0.000258352500916386 -0.000342131252995328 0.000165829642990217 0.000124244414617305 7.43068224607392e-05 -4.37335393650708e-05 -2.32211397604683e-05 3.8937379618928e-05 3.80764022073876e-05 -1.95389806665066e-05
"36" 6.56979861836392e-06 -0.000436899146138754 -0.00017105378920181 -8.23710040820324e-05 3.25797987209884e-05 1.52245236212564e-07 -0.000252281436954089 -0.000341130399301531 0.000166167492339401 0.000120926350146934 7.61392708824845e-05 -4.54922961173464e-05 -2.24866343349454e-05 3.9857230398943e-05 3.99346603479498e-05 -1.97380819464282e-05
"37" 9.45725021689339e-06 -0.000430032817123244 -0.000171044164652952 -7.99185353791608e-05 3.56035017061477e-05 3.17506336472869e-08 -0.000245877751259794 -0.000340085149840303 0.000166295836605689 0.000117352700232339 7.77810383922665e-05 -4.73120369719647e-05 -2.15076847023232e-05 4.09126345618747e-05 4.14926803116467e-05 -1.99878988890872e-05
"38" 1.18175783910236e-05 -0.000422608352198534 -0.000171338772332632 -7.74584461778343e-05 3.82626852096458e-05 -2.47548515843432e-07 -0.000239165210376288 -0.000338994628849051 0.000166223695702878 0.000113577004758123 7.92415387048472e-05 -4.91694683795698e-05 -2.02740051853066e-05 4.2119797263391e-05 4.27558844025572e-05 -2.02728277437482e-05
"39" 1.3656786733096e-05 -0.000414639088483569 -0.000171926062053759 -7.4972108891374e-05 4.05399886284423e-05 -6.51790150842212e-07 -0.000232169205258949 -0.000337840112175689 0.000165941995169618 0.000109638334387693 8.05169141849127e-05 -5.1040314689928e-05 -1.87640881267103e-05 4.34688220664433e-05 4.37241760460011e-05 -2.05780328781506e-05
"40" 1.49905615865819e-05 -0.000406149415389322 -0.000172800279355928 -7.24425810399779e-05 4.24313248284543e-05 -1.13722212605814e-06 -0.000224917919942761 -0.000336618124957391 0.000165458828104577 0.000105587152830023 8.16174188156617e-05 -5.29020305827569e-05 -1.696354521353e-05 4.49664585886077e-05 4.44079773048455e-05 -2.08849511736933e-05
"41" 1.58292433440058e-05 -0.00039717762490293 -0.000173963678500933 -6.98711745309822e-05 4.39283839451151e-05 -1.67171488623559e-06 -0.000217448696403281 -0.000335312316174076 0.000164780400930691 0.000101468735442969 8.25487149599134e-05 -5.47337891296758e-05 -1.48606488878896e-05 4.66111411583568e-05 4.48163906270122e-05 -2.11726707790948e-05
"42" 1.618689058886e-05 -0.000387745551125888 -0.000175407425198431 -6.72392947021332e-05 4.50150373728863e-05 -2.22414485497098e-06 -0.000209792319235825 -0.000333912222297658 0.000163897884934887 9.73195601683564e-05 8.33106138106074e-05 -5.65187686863289e-05 -1.24516321083881e-05 4.83940558707082e-05 4.49571573997555e-05 -2.14300202299487e-05
"43" 1.60831635520168e-05 -0.000377897115104931 -0.000177117644637231 -6.45369823000796e-05 4.56943153457028e-05 -2.75239279600098e-06 -0.000201990409681011 -0.000332401425660437 0.000162819444239408 9.31890135574436e-05 8.39126657515567e-05 -5.82340011600129e-05 -9.73282727786909e-06 5.03176204639068e-05 4.48477444762214e-05 -2.16342120828893e-05
"44" 1.55366866614795e-05 -0.000367671310099423 -0.000179094757603063 -6.1769466657463e-05 4.59486602972554e-05 -3.22996652035456e-06 -0.000194089600125164 -0.000330766137707905 0.000161540033329627 8.91101505257639e-05 8.43600208842252e-05 -5.98664592043846e-05 -6.70427910866026e-06 5.23607991418802e-05 4.44941246727794e-05 -2.17775533821141e-05
"45" 1.45594165249918e-05 -0.000357108455996267 -0.000181328071353095 -5.89200204154154e-05 4.57872450671657e-05 -3.62325316393201e-06 -0.000186128644208629 -0.00032898485312414 0.000160064567183075 8.51218270780629e-05 8.46514385521727e-05 -6.14011304049633e-05 -3.37336663493546e-06 5.45255558449394e-05 4.39177574481248e-05 -2.18378336698062e-05
"46" 1.31759916594267e-05 -0.000346257517235319 -0.000183809783387278 -5.59949881093731e-05 4.5204026487951e-05 -3.90510970210232e-06 -0.000178155068362544 -0.000327045095377492 0.000158388889605585 8.12547066206937e-05 8.47992501233015e-05 -6.28316095988944e-05 2.50892121969278e-07 5.67897228000831e-05 4.31287135030756e-05 -2.18072435893237e-05
"47" 1.14000021007018e-05 -0.000335157884902211 -0.000186528241166253 -5.2990654644232e-05 4.42036234468924e-05 -4.04892892775596e-06 -0.000170217279599625 -0.000324923369036854 0.000156507975307613 7.75386875892583e-05 8.47967030640627e-05 -6.4142885463978e-05 4.15167982001462e-06 5.91396957284526e-05 4.21416649820841e-05 -2.16738836846733e-05
"48" 9.25017640988236e-06 -0.000323877143193636 -0.00018947965061328 -4.99170214268861e-05 4.2779379241963e-05 -4.03477336120366e-06 -0.000162370091103887 -0.000322612622934437 0.000154430694782246 7.39966111728806e-05 8.46554567317679e-05 -6.5337308622016e-05 8.31241375216035e-06 6.1558075214035e-05 4.09773077310817e-05 -2.14276640335451e-05
"49" 6.74619371734065e-06 -0.000312453949847401 -0.000192655709361419 -4.67735118378737e-05 4.09393386610292e-05 -3.84055910614997e-06 -0.00015466492403635 -0.000320086613657985 0.000152148070786414 7.06529300423375e-05 8.43761454993486e-05 -6.64056989988219e-05 1.27090752202124e-05 6.40292286201698e-05 3.96493193311085e-05 -2.10621377664439e-05
"50" 3.90033653675802e-06 -0.000300946373555514 -0.00019604995812765 -4.35720188189008e-05 3.86955256335656e-05 -3.45434660213518e-06 -0.000147144944094315 -0.000317333701250157 0.000149661118327307 6.7518030233444e-05 8.39574615809575e-05 -6.73546328163263e-05 1.73115554275164e-05 6.65315728424472e-05 3.81757251405767e-05 -2.0569405544528e-05
"51" 7.31516614008004e-07 -0.000289413192344855 -0.000199657036518457 -4.03232261017032e-05 3.60543202168628e-05 -2.85693088946353e-06 -0.000139868317929816 -0.000314331239323161 0.000146975190090877 6.46171093803567e-05 8.34085307085417e-05 -6.81763329348149e-05 2.20998573739913e-05 6.90451741137551e-05 3.65781623255031e-05 -1.99463774834028e-05
"52" -2.7437579102197e-06 -0.000277904991376941 -0.000203467824190377 -3.70442972078156e-05 3.30281939962751e-05 -2.03986314571969e-06 -0.000132876996599278 -0.000311068849039142 0.000144089703279017 6.19475810822823e-05 8.2733616184352e-05 -6.88859549462391e-05 2.70369433996612e-05 7.15526733748424e-05 3.48723935718061e-05 -1.91875581741791e-05
"53" -6.51741218848439e-06 -0.000266481199226917 -0.00020747877349402 -3.37459458967577e-05 2.96351072656809e-05 -9.99711590313578e-07 -0.000126227608481334 -0.000307526447215857 0.000141002595537171 5.95136333264509e-05 8.19282010133024e-05 -6.94850446831144e-05 3.20854152769939e-05 7.40235959840073e-05 3.30748712247098e-05 -1.82983503951125e-05
"54" -1.05817855988493e-05 -0.000255197511903302 -0.000211683813893583 -3.04510571391393e-05 2.589011868613e-05 2.65678148567944e-07 -0.000119960896443263 -0.000303695940538033 0.000137717829442607 5.73184661279774e-05 8.09959800295332e-05 -6.99906992884714e-05 3.72063240102725e-05 7.64409781596105e-05 3.12049954344834e-05 -1.72793624753998e-05
"55" -1.49214497132447e-05 -0.00024410883678385 -0.000216074706035153 -2.71730946245708e-05 2.18172025270611e-05 1.75982629636132e-06 -0.000114123269961611 -0.000299556402197697 0.000134238348144729 5.53559535091809e-05 7.99398909770722e-05 -7.04056407605989e-05 4.23598231356697e-05 7.8780013034798e-05 2.92779876209459e-05 -1.6134032622961e-05
"56" -1.95290176923012e-05 -0.00023326789321753 -0.000220656071149518 -2.39382626245974e-05 1.74337966962053e-05 3.47987400880993e-06 -0.000108752681031241 -0.000295099672697682 0.000130574004907136 5.36154330470411e-05 7.87665690456572e-05 -7.07498940065615e-05 4.75104963898509e-05 8.10222885756128e-05 2.73169169734361e-05 -1.48675251206406e-05
"57" -2.43974372833601e-05 -0.000222736801687701 -0.000225415913365764 -2.07711526017133e-05 1.27692241258196e-05 5.41306892462272e-06 -0.000103894115801559 -0.000290323371801147 0.000126728519345375 5.20855488073883e-05 7.74771282420274e-05 -7.10396532855384e-05 5.26094666604618e-05 8.31501710808546e-05 2.53377716530261e-05 -1.34844943182836e-05
"58" -2.95236262788607e-05 -0.000212566267123578 -0.000230354202892284 -1.76985503878156e-05 7.85011803878482e-06 7.55432459262315e-06 -9.95700381517817e-05 -0.000285216410214698 0.000122710048210394 5.0746220754408e-05 7.60736978870193e-05 -7.12916918113427e-05 5.76158420995195e-05 8.51314998128661e-05 2.33564971340842e-05 -1.20022065039164e-05
"59" -3.49053044303732e-05 -0.000202799906536446 -0.000235463056702767 -1.47356181922037e-05 2.70538406628374e-06 9.89141901099365e-06 -9.58161478567156e-05 -0.000279767863097403 0.000118523052810326 4.9580233378087e-05 7.45556524298771e-05 -7.15235219183365e-05 6.24848003129685e-05 8.69519596236475e-05 2.13841723641805e-05 -1.0429909551763e-05
"60" -4.05433656055354e-05 -0.000193498460731445 -0.000240746019152403 -1.19172319664727e-05 -2.64428009418189e-06 1.24041497153022e-05 -9.26580240319435e-05 -0.000273995282639949 0.000114184458154806 4.85600078739871e-05 7.29327658054841e-05 -7.1759761000629e-05 6.71735650437304e-05 8.86012958093524e-05 1.94445122438331e-05 -8.77895459871153e-06
"61" -4.64290434630433e-05 -0.000184699338082022 -0.000246193948586078 -9.26789938835848e-06 -8.15070101545193e-06 1.50826787825891e-05 -9.01056006662973e-05 -0.000267877845056806 0.000109706819028346 4.766222907445e-05 7.12084644824604e-05 -7.20159237183317e-05 7.16423123343968e-05 9.00511761201697e-05 1.75451554412838e-05 -7.06393960056678e-06
"62" -5.25708053234787e-05 -0.000176454527197996 -0.000251804187892618 -6.80773324156029e-06 -1.3796734100266e-05 1.78982358816532e-05 -8.81844338432127e-05 -0.000261440384660677 0.00010510110354887 4.68564017582733e-05 6.93831588504846e-05 -7.23168656827703e-05 7.58457112269488e-05 9.12978664239255e-05 1.57045209124464e-05 -5.30244009557267e-06
"63" -5.8960580110471e-05 -0.000168803631756457 -0.000257569083476726 -4.56243294568366e-06 -1.95366946472831e-05 2.08388645613248e-05 -8.68927794099627e-05 -0.000254678142824714 0.000100384469286092 4.6115408694558e-05 6.74692307967935e-05 -7.26792154949582e-05 7.97547819562696e-05 9.23265952284607e-05 1.39372713511773e-05 -3.50775617379268e-06
"64" -6.56101739127684e-05 -0.000161779969120524 -0.000263487552891613 -2.55594094169033e-06 -2.53504294285132e-05 2.38781090684172e-05 -8.62344475870834e-05 -0.000247606862068825 9.55693050714367e-05 4.53976352999516e-05 6.54632929434107e-05 -7.31288213233053e-05 8.33213982697124e-05 9.31185921938937e-05 1.22445604474701e-05 -1.70446792110865e-06
"65" -7.2509712257924e-05 -0.000155422526231905 -0.000269548410774348 -8.08886251406226e-07 -3.11923113632215e-05 2.69947463280181e-05 -8.62056927956258e-05 -0.000240238037110832 9.06837325948452e-05 4.46772892972035e-05 6.33796940975945e-05 -7.36762488412252e-05 8.65250193607547e-05 9.36773928406447e-05 1.06481461989219e-05 9.69842957456826e-08
"66" -7.96671363722958e-05 -0.000149772430568315 -0.000275748588822411 6.57211863682542e-07 -3.70415561985482e-05 3.0161957244751e-05 -8.67971928102378e-05 -0.00023259942072855 8.57393689686229e-05 4.3915968595142e-05 6.12223490830954e-05 -7.43512160060627e-05 8.93299262416009e-05 9.39947411421819e-05 9.15297723609477e-06 1.87437955622877e-06
"67" -8.70779279854725e-05 -0.00014484404868894 -0.000282076252175943 1.82838404018561e-06 -4.28563354620224e-05 3.33578910104222e-05 -8.79896305298784e-05 -0.000224701864029568 8.07586321881447e-05 4.30816529575454e-05 5.89971337663337e-05 -7.5160752699801e-05 9.17137032095675e-05 9.40650493421864e-05 7.76582110511281e-06 3.60770789012191e-06
"68" -9.47457021186403e-05 -0.000140673430511691 -0.0002885274247752 2.68835613366468e-06 -4.86144949174301e-05 3.65572042188532e-05 -8.97633024040558e-05 -0.000216581091932568 7.57681124290008e-05 4.21376830750021e-05 5.67168785977293e-05 -7.61260367824645e-05 9.36540043084693e-05 9.38961072502498e-05 6.49799547873134e-06 5.28149423236177e-06
"69" -0.000102668633338431 -0.000137267059448939 -0.000295091083306939 3.22832809584363e-06 -5.42827365593835e-05 3.97385875951674e-05 -9.2081306708947e-05 -0.000208248211065854 7.07787163667466e-05 4.10510563506776e-05 5.43857817590658e-05 -7.725649526676e-05 9.51352752503716e-05 9.34789947363953e-05 5.34573073661532e-06 6.87327297015191e-06
"70" -0.000110842793384545 -0.00013466012362362 -0.000301754633015268 3.4340673918744e-06 -5.98441064665692e-05 4.28701539371084e-05 -9.4921722262727e-05 -0.000199761862474403 6.58251248702671e-05 3.97880047603079e-05 5.20160347851117e-05 -7.85705333888039e-05 9.61437506740487e-05 9.2830356188847e-05 4.32410707705958e-06 8.36931643974903e-06
"71" -0.000119268164035246 -0.000132850671635592 -0.000308505932896115 3.30513642988181e-06 -6.52720069931274e-05 4.59356291850295e-05 -9.8238975144493e-05 -0.00019114269878071 6.09230755341741e-05 3.83182310650125e-05 4.96154479496603e-05 -8.00732029414448e-05 9.6677244049438e-05 9.19529018820192e-05 3.42787201985461e-06 9.75120334368202e-06
"72" -0.000127928380816325 -0.000131855157506553 -0.000315331157386084 2.84064959028685e-06 -7.05421891914438e-05 4.89114372221252e-05 -0.000101985830708882 -0.000182429182734232 5.6102204575439e-05 3.66134890687348e-05 4.71964685359731e-05 -8.17690726785661e-05 9.67347672694604e-05 9.08537725598056e-05 2.66023661696232e-06 1.10043402321297e-05
"73" -0.000136823235030436 -0.000131681947181893 -0.000322218119765911 2.03795526812163e-06 -7.56480765604321e-05 5.17729017555199e-05 -0.000106125423596002 -0.000173673560620599 5.13827667882609e-05 3.4649963595968e-05 4.47719828273622e-05 -8.3668748516929e-05 9.63152300432736e-05 8.95607226712576e-05 2.02779866167612e-06 1.21191302646855e-05
"74" -0.000145933333050412 -0.000132320067926829 -0.00032914962771575 9.08845847342914e-07 -8.05630491590321e-05 5.45071761920289e-05 -0.00011059039871579 -0.000164907307530467 4.67896601230257e-05 3.23994147771481e-05 4.23501507890841e-05 -8.57635276967241e-05 9.54380992827218e-05 8.80745055770083e-05 1.52090873481331e-06 1.30759620470593e-05
"75" -0.000155251806938844 -0.000133775782789566 -0.000336110524259346 -5.40189367973706e-07 -8.52897217139588e-05 5.70907714375369e-05 -0.000115339149088377 -0.000156187771935525 4.23350865394261e-05 2.98402541662068e-05 3.99402424853099e-05 -8.8063270155326e-05 9.41073732332425e-05 8.64125240171471e-05 1.13545604572339e-06 1.38639363572242e-05
"76" -0.000164759168939986 -0.00013603790143317 -0.000343082485178343 -2.29900232772112e-06 -8.98173124018204e-05 5.95063436602369e-05 -0.000120305359957001 -0.000147563663099679 3.80561349374382e-05 2.69619942083418e-05 3.75606691893563e-05 -9.05546113557484e-05 9.23506251309888e-05 8.46051816701139e-05 8.76833229915811e-07 1.4482999185406e-05
"77" -0.000174425826211561 -0.000139093583909821 -0.000350040403547121 -4.34567267500094e-06 -9.41383828578344e-05 6.17460899539394e-05 -0.000125430516645537 -0.000139078710121442 3.39640111068413e-05 2.37478164754546e-05 3.52191948347567e-05 -9.32321375223343e-05 9.01923689730171e-05 8.26651919960244e-05 7.34127692174661e-07 1.49178751776855e-05
"78" -0.000184243159651993 -0.000142930492196772 -0.000356982454507347 -6.66330281330193e-06 -9.82689997979899e-05 6.37834748202818e-05 -0.000130655383034968 -0.000130795030279137 3.00716117620141e-05 2.01825832574619e-05 3.29236942471313e-05 -9.60947415010893e-05 8.76535666338668e-05 8.06152432206731e-05 7.00210169932871e-07 1.51657027766028e-05
"79" -0.000194176092526311 -0.00014753067241381 -0.000363878923048661 -9.23024958706567e-06 -0.000102213463544002 6.5613163119976e-05 -0.000135920836822112 -0.000122762613387543 2.64066504294863e-05 1.62659369004055e-05 3.06919215301855e-05 -9.91247127679011e-05 8.47736808100839e-05 7.84795067564165e-05 7.70040633650524e-07 1.52280074833651e-05
"80" -0.000204197937558039 -0.000152868703228736 -0.00037071225122349 -1.20232645275048e-05 -0.000105978549925476 6.72213553796009e-05 -0.000141162622065093 -0.000115036347659031 2.29784816926952e-05 1.19924188574949e-05 2.85319679979528e-05 -0.00010231153404499 8.15886741572138e-05 7.62777870847514e-05 9.33619491730479e-07 1.51010189054631e-05
"81" -0.000214273017868432 -0.000158919941215608 -0.000377464485300419 -1.50090204955573e-05 -0.000109577115746661 6.85998343391327e-05 -0.000146321887422109 -0.000107671064329153 1.98027202529633e-05 7.36463274819277e-06 2.64541319646202e-05 -0.000105635777213322 7.81359631906999e-05 7.40389289835924e-05 1.18288627720595e-06 1.4786367636689e-05
"82" -0.000224364914868472 -0.000165654301023765 -0.000384114686050671 -1.8160837384361e-05 -0.000113028009415914 6.97427912165075e-05 -0.000151337264631771 -0.000100713467391649 1.68872723369204e-05 2.39019412576774e-06 2.44708476088376e-05 -0.000109079992962034 7.44595938280206e-05 7.17828283176136e-05 1.50951195231632e-06 1.42902603511875e-05
"83" -0.000234444246204136 -0.00017303618743484 -0.000390648615380668 -2.14392976373091e-05 -0.000116360549341852 7.06386431194466e-05 -0.00015615518262734 -9.42232294947181e-05 1.42373927761134e-05 -2.92499529622349e-06 2.25850435361402e-05 -0.00011262844394644 7.05997086491293e-05 6.95335021156982e-05 1.89855668549582e-06 1.36165700097625e-05
"84" -0.000244459159050223 -0.000181037222394068 -0.000397045114883916 -2.48205207772382e-05 -0.000119588738710223 7.12812845125343e-05 -0.000160722325118679 -8.82485210431455e-05 1.18688927828334e-05 -8.56389926172526e-06 2.08112480906181e-05 -0.000116260243364384 6.66033995837437e-05 6.73135451224484e-05 2.34161273323342e-06 1.27752566856931e-05
"85" -0.000254370340293975 -0.000189610828625127 -0.000403293859453663 -2.82708312083162e-05 -0.000122746930236265 7.16638817034561e-05 -0.000164987545462147 -8.28404380810978e-05 9.77547810624603e-06 -1.45121726077391e-05 1.91565993903978e-05 -0.000119954698389634 6.25179720619997e-05 6.51409119088341e-05 2.82488917296759e-06 1.17725013008034e-05
"86" -0.00026413996305272 -0.000198728047900276 -0.000409375988783245 -3.17521454142958e-05 -0.00012586479015136 7.17807812348101e-05 -0.00016891171934628 -7.80491587613649e-05 7.96370533386813e-06 -2.07490185165102e-05 1.76256047564025e-05 -0.000123689084982115 5.83837476635874e-05 6.30379774708378e-05 3.33784707460883e-06 1.06208253534609e-05
"87" -0.000273712851715099 -0.000208331444103991 -0.000415271052399094 -3.52228076738627e-05 -0.000128970378837894 7.16306198848093e-05 -0.000172448732062578 -7.39074980126731e-05 6.42410615813526e-06 -2.72495145092281e-05 1.62212033245009e-05 -0.000127441845312202 5.4245799252401e-05 6.10217283718307e-05 3.86524390804251e-06 9.33247785427058e-06
"88" -0.000283046175617171 -0.000218385236273908 -0.000420978146205004 -3.86594740528922e-05 -0.000132101508440477 7.12012616912686e-05 -0.000175572447092878 -7.0469350295069e-05 5.15257642289519e-06 -3.39911664232394e-05 1.49488540264922e-05 -0.00013119704674674 5.01465162098183e-05 5.91031027805927e-05 4.39626905911356e-06 7.91946034809735e-06
"89" -0.000292096399769024 -0.000228836731970747 -0.000426479766618895 -4.20229476412274e-05 -0.000135285983266903 7.04938163459827e-05 -0.000178245529408709 -6.77578257046615e-05 4.13971937803979e-06 -4.09443368701255e-05 1.38081878491633e-05 -0.000134926802317004 4.61265539668587e-05 5.72919795765265e-05 4.91107464103995e-06 6.39416485738218e-06
"90" -0.000300799428445551 -0.000239635447625333 -0.00043176592425602 -4.5281314633477e-05 -0.000138558906951762 6.95044897626406e-05 -0.000180447101210042 -6.58035836739544e-05 3.38677073735381e-06 -4.80710859128981e-05 1.28076950029917e-05 -0.000138607475375482 4.22308471238059e-05 5.56114436354635e-05 5.40746231805779e-06 4.77675659447572e-06
"91" -0.000309129905716988 -0.00025073543604071 -0.000436834641830333 -4.840342752191e-05 -0.000141962207278445 6.82188811671396e-05 -0.000182164657534733 -6.46474453144854e-05 2.86285342435039e-06 -5.5348037920645e-05 1.19367161564882e-05 -0.000142230088959789 3.84797778583807e-05 5.40592288130939e-05 5.86386770520019e-06 3.07611143640668e-06
"92" -0.000317024126046344 -0.000262088482255478 -0.00044167520677444 -5.1367065705515e-05 -0.000145517544553885 6.66393635964177e-05 -0.000183394052769194 -6.43037045600544e-05 2.56497917058182e-06 -6.27339203880761e-05 1.11999212243073e-05 -0.000145768200975252 3.49114002508789e-05 5.26379033388127e-05 6.26973114616702e-06 1.30727238280415e-06
"93" -0.000324447551009833 -0.000273636969316212 -0.000446296191049069 -5.41382603297151e-05 -0.000149271948760827 6.47525166270451e-05 -0.000184127909270673 -6.47917681338649e-05 2.467109094624e-06 -7.01959526935082e-05 1.05881865656747e-05 -0.000149210534977051 3.15486621874816e-05 5.13490499801627e-05 6.60867524152197e-06 -5.15865105766665e-07
"94" -0.000331345931720619 -0.000285324450851211 -0.000450682608848959 -5.66966461142433e-05 -0.000153236085538935 6.25602015558882e-05 -0.000184371836289669 -6.61134516396728e-05 2.55476755801236e-06 -7.76959749034316e-05 1.01007750595552e-05 -0.00015253245058867 2.84183193950134e-05 5.01907323981403e-05 6.87298322821101e-06 -2.37698677678213e-06
"95" -0.000337686988302047 -0.000297107233651363 -0.000454853979822361 -5.90269104045574e-05 -0.000157453990225233 6.00468966509484e-05 -0.000184140419543606 -6.82864622876544e-05 2.79916208671068e-06 -8.51981723864899e-05 9.72374148330877e-06 -0.000155731738651312 2.55265118210099e-05 4.91557083764183e-05 7.04225256043455e-06 -4.27085146540703e-06
"96" -0.000343418276326337 -0.00030892091460602 -0.0004588005585088 -6.11026884906403e-05 -0.000161940499067736 5.7209550491884e-05 -0.000183451988888554 -7.12985523564869e-05 3.18077940606183e-06 -9.26587709264147e-05 9.45571217659054e-06 -0.000158789344868525 2.28935994672039e-05 4.82398118443854e-05 7.11524610050249e-06 -6.17704628020778e-06
"97" -0.000348516533659182 -0.000320718588500983 -0.00046253589625165 -6.29159676520993e-05 -0.000166720458796542 5.40414625921317e-05 -0.000182330751780613 -7.51447493748661e-05 3.67711272759667e-06 -0.000100045956067723 9.28240817900642e-06 -0.000161691011852626 2.0524126356077e-05 4.74290401602307e-05 7.07627858978652e-06 -8.08910746987849e-06
"98" -0.000352943820576005 -0.000332445392871479 -0.000466068105355959 -6.44568170018468e-05 -0.000171809302789143 5.05308232312119e-05 -0.000180814356207202 -7.98148634981085e-05 4.25401846488285e-06 -0.000107319486835087 9.19339851006446e-06 -0.000164440805240589 1.84119118542095e-05 4.67044350610004e-05 6.91065020650667e-06 -9.99949916444214e-06
"99" -0.000356673598380488 -0.000344049316951821 -0.0004694092465269 -6.57193001373814e-05 -0.000177220817828867 4.66693226904398e-05 -0.000178936621315356 -8.52863385220469e-05 4.8931456367677e-06 -0.000114445095985633 9.17521196903197e-06 -0.000167025718685904 1.65567359235246e-05 4.6051888216953e-05 6.61316468249688e-06 -1.18977772313018e-05
"100" -0.000359674679301838 -0.000355476985256657 -0.000472570806128427 -6.6699279591564e-05 -0.000182957349599479 4.24536807353825e-05 -0.000176744233780616 -9.15309638289235e-05 5.56370260543384e-06 -0.000121384560162048 9.21545021524888e-06 -0.000169439573696142 1.49485951885945e-05 4.54572486928587e-05 6.17722175416983e-06 -1.37792302427975e-05
"101" -0.000361925160668911 -0.000366680077113092 -0.000475569487957051 -6.74040995270901e-05 -0.000189030104196475 3.78727121028425e-05 -0.000174285824128922 -9.85181608913722e-05 6.24217407105924e-06 -0.000128099882173548 9.30390239669087e-06 -0.000171682754777865 1.35757340691726e-05 4.48891377112837e-05 5.5930830280513e-06 -1.56386861685655e-05
"102" -0.000363421868076605 -0.000377611598369582 -0.000478424472126797 -6.78354255583221e-05 -0.000195431867742804 3.29139909952149e-05 -0.000171615800032236 -0.000106212584011442 6.89705797910981e-06 -0.000134561323525544 9.41893180098466e-06 -0.000173758939236241 1.24107200692494e-05 4.4328780908278e-05 4.85198350723206e-06 -1.74743942051757e-05
"103" -0.000364140074040538 -0.000388223758424298 -0.000481144254212301 -6.79992309561869e-05 -0.000202147094879002 2.7581295527136e-05 -0.000168795034719756 -0.000114567769099192 7.50541854456742e-06 -0.000140731912348039 9.54844732077317e-06 -0.000175663443678033 1.14328629757931e-05 4.37566418097788e-05 3.95602497253103e-06 -1.92814152542776e-05
"104" -0.000364076612530032 -0.000398474246456489 -0.00048375717611489 -6.79166468074541e-05 -0.000209169743282585 2.18638611917771e-05 -0.000165879130999894 -0.000123528944887951 8.04763950079691e-06 -0.000146583532093466 9.67838801184326e-06 -0.000177398482739922 1.06223763426704e-05 4.31391685368691e-05 2.89668503087831e-06 -2.1061090926249e-05
"105" -0.000363233878557739 -0.000408313841925699 -0.000486276863105539 -6.75961093195261e-05 -0.000216477086431708 1.57597589646555e-05 -0.000162934670120112 -0.000133050269663087 8.49247964526639e-06 -0.000152087148758064 9.79032057718836e-06 -0.000178973867697668 9.93863593813788e-06 4.2455159186786e-05 1.67797388148172e-06 -2.28125983512537e-05
"106" -0.000361614126301085 -0.000417708750615283 -0.000488726036953968 -6.70636804224559e-05 -0.000224042417157807 9.26383092731879e-06 -0.000160031994944148 -0.00014307216458555 8.82312920652331e-06 -0.000157212584046504 9.87232051005824e-06 -0.000180390720585021 9.35265070507891e-06 4.16813926477752e-05 2.96010444563922e-07 -2.45398834056784e-05
"107" -0.000359225885193369 -0.000426627537933066 -0.000491119907306027 -6.63408550744544e-05 -0.000231831345998472 2.38233188823456e-06 -0.000157229540567686 -0.000153528476837955 9.02324330761981e-06 -0.000161933183018202 9.90901172549148e-06 -0.000181655996913478 8.82933661526772e-06 4.07830870643745e-05 -1.24601831921793e-06 -2.62458838119704e-05
"108" -0.000356093585118798 -0.000435028377336282 -0.00049348017238798 -6.54468458644064e-05 -0.000239807858034649 -4.88860535336272e-06 -0.000154600909881649 -0.000164358910934545 9.06770948318063e-06 -0.000166229101750632 9.88118386386499e-06 -0.000182780557881138 8.32776434902989e-06 3.97407176644602e-05 -2.94619974831998e-06 -2.7933365806117e-05
"109" -0.000352216802790653 -0.000442890760385929 -0.00049582623870293 -6.44167579188875e-05 -0.000247922736983949 -1.25348671266892e-05 -0.000152205557253172 -0.000175489019741028 8.95953918006391e-06 -0.000170067600334767 9.79067363671739e-06 -0.000183760494967479 7.82153122562123e-06 3.85380104980042e-05 -4.78765674561522e-06 -2.96024356847196e-05
"110" -0.000347640675346964 -0.000450183555139141 -0.000498167741536414 -6.327495650661e-05 -0.000256126735689701 -2.05533469916638e-05 -0.000150115075740452 -0.000186851220460889 8.66997343952887e-06 -0.000173439568821983 9.6114771739608e-06 -0.000184616159735086 7.25670101178488e-06 3.71386307149873e-05 -6.77763315717439e-06 -3.126635012656e-05
"111" -0.00034238184901144 -0.000456886029447442 -0.000500526046050508 -6.20527011031336e-05 -0.000264373862595059 -2.89270470140398e-05 -0.000148380995320762 -0.000198369894125436 8.20330411751997e-06 -0.000176318495603856 9.34050377320637e-06 -0.000185342348131149 6.61310164800051e-06 3.55353715569445e-05 -8.89246408961961e-06 -3.2920129078881e-05
"112" -0.000336485611374139 -0.00046298517904793 -0.000502910219823738 -6.07839824384557e-05 -0.000272596171957314 -3.76415569750841e-05 -0.000147073730677895 -0.000209977864366373 7.55421676226909e-06 -0.00017869011508663 8.97047199973694e-06 -0.000185951668513538 5.84691756477113e-06 3.3704113213856e-05 -1.11288236883717e-05 -3.45725752858148e-05
"113" -0.000329988552061666 -0.000468459063806867 -0.000505328432347692 -5.94963264474146e-05 -0.000280737157178403 -4.6674569127695e-05 -0.000146231932015111 -0.000221592155396972 6.71138924983459e-06 -0.000180541777272611 8.4914208655936e-06 -0.000186448353464205 4.92655809525827e-06 3.16299392268812e-05 -1.34673516358424e-05 -3.62274342693967e-05
"114" -0.000322928461702435 -0.000473306769766908 -0.000507793674914202 -5.82245831053677e-05 -0.000288724667150666 -5.59984141754191e-05 -0.000145909947359796 -0.000233147408523482 5.68894686357307e-06 -0.000181855525383598 7.90273096572696e-06 -0.0001868360684321 3.82587807153375e-06 2.93014273212911e-05 -1.5891868195256e-05 -3.78864152510076e-05
"115" -0.00031536173210491 -0.000477526594571131 -0.00051030237409055 -5.69982673944938e-05 -0.000296500525080851 -6.55879782689506e-05 -0.000146153439877735 -0.000244578482603111 4.4890412390836e-06 -0.000182619578269029 7.20156105400563e-06 -0.000187118141820166 2.51719762354952e-06 2.67116984810623e-05 -1.8384345391805e-05 -3.95535540864094e-05
"116" -0.000307339151023417 -0.000481113677018567 -0.00051285621610815 -5.58464812212501e-05 -0.000303985617496923 -7.54044932572705e-05 -0.000146997529176912 -0.000255805456387692 3.11465907253933e-06 -0.00018282726910202 6.3867714423329e-06 -0.000187296808924403 9.74541548435566e-07 2.38548824145429e-05 -2.09287843867742e-05 -4.12287760750983e-05
"117" -0.000298909196282176 -0.000484078784977821 -0.000515454579227274 -5.4806895260758e-05 -0.000311113794729961 -8.54086953015739e-05 -0.000148463589829889 -0.000266770158948831 1.5895765188977e-06 -0.000182468854577229 5.46455196509372e-06 -0.000187369653155308 -8.08930388546279e-07 2.07262633710224e-05 -2.34940939382015e-05 -4.29118402441614e-05
"118" -0.000290141672904946 -0.00048642512971136 -0.000518086861135342 -5.38927077817961e-05 -0.000317813708832265 -9.55559373310334e-05 -0.000150572015329498 -0.000277404183916585 -7.97009617127197e-08 -0.00018153879079512 4.43596909959034e-06 -0.000187334103397494 -2.85167140315407e-06 1.73251149253228e-05 -2.60662542811386e-05 -4.45996023804396e-05
"119" -0.000281088166822654 -0.000488178473703771 -0.000520740647882265 -5.31384142763177e-05 -0.000324016909077656 -0.000105795535584444 -0.00015334075646254 -0.000287660689003428 -1.86943555742062e-06 -0.000180032347839038 3.31266449351189e-06 -0.000187187856943055 -5.15413554836882e-06 1.36615730846802e-05 -2.86179904068846e-05 -4.62939866251324e-05
"120" -0.000271816334721087 -0.000489346769042169 -0.000523400977599476 -5.25561405884218e-05 -0.000329653449000074 -0.000116074157486737 -0.00015676183384387 -0.000297473027105366 -3.76348996037247e-06 -0.000177944650699461 2.10231161519419e-06 -0.000186920595350596 -7.71335478887346e-06 9.74191495133974e-06 -3.11203322211429e-05 -4.79823727616476e-05
"121" -0.000262387320172612 -0.000489959561894086 -0.000526047387120312 -5.21701737810138e-05 -0.000334660927207824 -0.000126330997252563 -0.000160827257533448 -0.000306803940595997 -5.7351093956132e-06 -0.00017528008634401 8.17563675768591e-07 -0.000186525610008495 -1.05212786443859e-05 5.57543102377415e-06 -3.35492171094201e-05 -4.96621802911638e-05
"122" -0.0002528689047294 -0.000490049555249896 -0.000528648419584396 -5.19887759813865e-05 -0.000338977259784006 -0.000136499322835146 -0.000165525850021665 -0.00031561197508937 -7.75980558836854e-06 -0.000172035654936937 -5.24031698740813e-07 -0.000185988280330203 -1.35599539711476e-05 1.18226892762033e-06 -3.58773600483341e-05 -5.13215376513608e-05
"123" -0.000243319968298454 -0.000489643462996819 -0.00053117889762961 -5.20172436622699e-05 -0.000342543328187268 -0.000146512792891401 -0.000170822289583958 -0.00032386015528978 -9.81029958768723e-06 -0.000168214215437074 -1.90924977025899e-06 -0.000185292047509617 -1.68042054464253e-05 -3.42113587557388e-06 -3.80763664364959e-05 -5.29505463737446e-05
"124" -0.00023381238884966 -0.000488780134299811 -0.000533601206972773 -5.22620254148922e-05 -0.00034530919364167 -0.000156293463402072 -0.000176681668600683 -0.000331521345050772 -1.18608331195648e-05 -0.000163817554055475 -3.31781995247987e-06 -0.000184419832528745 -2.02243403295784e-05 -8.21555788274735e-06 -4.01235006514169e-05 -5.45339721286077e-05
"125" -0.000224403113087836 -0.000487502365755141 -0.00053588042887965 -5.27256602150772e-05 -0.000347235525602857 -0.000165770869931253 -0.000183060512670791 -0.000338588401946229 -1.38733093396738e-05 -0.000158853919771324 -4.72307333025124e-06 -0.000183351767075596 -2.37763440336081e-05 -1.31711424611952e-05 -4.19812283767356e-05 -5.60553023428428e-05
"126" -0.000215161016522756 -0.000485848504999988 -0.000537977730815371 -5.33988089274101e-05 -0.000348281346020079 -0.000174864146384952 -0.000189895780928918 -0.000345041480165823 -1.58267807059923e-05 -0.000153335654294818 -6.10998124307443e-06 -0.000182070358194347 -2.7416843391838e-05 -1.82680698075147e-05 -4.36339351617109e-05 -5.7496909897753e-05
"127" -0.000206135467471367 -0.000483865997038025 -0.000539841326601396 -5.42615160613068e-05 -0.000348421061374561 -0.000183485401016037 -0.000197119818105574 -0.000350875469503534 -1.76896007821023e-05 -0.000147263544568085 -7.45183437256614e-06 -0.000180540422813358 -3.1082932593618e-05 -2.34718324050185e-05 -4.50517190410835e-05 -5.88391490165827e-05
"128" -0.000197387195657611 -0.000481602977856543 -0.000541422919668661 -5.53049926655043e-05 -0.000347629254856453 -0.000191550020609188 -0.000204657235991782 -0.000356098570653677 -1.94318465848537e-05 -0.000140655870590544 -8.72179704691993e-06 -0.000178734537394544 -3.47160867466821e-05 -2.87573362287711e-05 -4.62123350684015e-05 -6.00621442334836e-05
"129" -0.00018896211171387 -0.000479108028465448 -0.000542672363180044 -5.6499924370879e-05 -0.000345895630779085 -0.000198970447875398 -0.000212418828133135 -0.000360728131544347 -2.10197110120039e-05 -0.000133524070521133 -9.89196360370536e-06 -0.000176628195300845 -3.82434663926095e-05 -3.40845767502849e-05 -4.70877138689245e-05 -6.11341774332786e-05
"130" -0.000180908297494652 -0.000476431577411759 -0.00054353773398827 -5.78155464686821e-05 -0.00034321755656683 -0.000205662380503925 -0.000220323684722175 -0.000364780145950187 -2.24368431972057e-05 -0.000125882212101881 -1.09406701450952e-05 -0.000174186468004817 -4.15903814990724e-05 -3.94232562868311e-05 -4.76624384277436e-05 -6.20331738870502e-05
"131" -0.000173265628562083 -0.000473634912311038 -0.000543957547227083 -5.92203992049693e-05 -0.000339605667788509 -0.000211533267955052 -0.000228266224693162 -0.000368290140425002 -2.36476756503858e-05 -0.000117748849790006 -1.183514840734e-05 -0.0001713765575213 -4.4674274117516e-05 -4.47428727551314e-05 -4.79178748584406e-05 -6.27318779108077e-05
"132" -0.00016606718935854 -0.000470754751812326 -0.000543881281376524 -6.06688436983571e-05 -0.00033507310555827 -0.000216493518582752 -0.00023613684190483 -0.00037129166152096 -2.46346209929805e-05 -0.000109145560015842 -1.25503598146093e-05 -0.00016816537240828 -4.74089983744491e-05 -5.00097444322635e-05 -4.78382101085606e-05 -6.32019638026655e-05
"133" -0.000159345196707713 -0.000467853050995706 -0.00054324688783901 -6.21162051183608e-05 -0.00032965178837027 -0.000220462583037186 -0.000243832010815926 -0.000373830564536886 -2.53812658905693e-05 -0.000100088769175997 -1.30622516642725e-05 -0.000164516024003491 -4.97018517357151e-05 -5.51835754648159e-05 -4.74099824852073e-05 -6.34100233489591e-05
"134" -0.000153111074050758 -0.000464977885964509 -0.000541999412443487 -6.35166559090955e-05 -0.000323370732432983 -0.0002233524916238 -0.00025123599143007 -0.000375955067782444 -2.58590693183621e-05 -9.06047535982494e-05 -1.33377064609763e-05 -0.000160390418058126 -5.14534359862968e-05 -6.02331208307029e-05 -4.6618043330051e-05 -6.3325893804068e-05
"135" -0.000147387360679024 -0.000462180169018063 -0.000540084432124654 -6.48107086995261e-05 -0.000316284406577547 -0.00022508439184786 -0.000258233461313437 -0.000377730447798542 -2.60594847958703e-05 -8.07188040044289e-05 -1.33571065389018e-05 -0.000155763036829901 -5.25771168876259e-05 -6.51236281092584e-05 -4.54636410800856e-05 -6.29206407993007e-05
"136" -0.000142167409787125 -0.000459509177009063 -0.000537436140115626 -6.5943523025289e-05 -0.000308439937698257 -0.000225577802709275 -0.000264704917274484 -0.000379210267655774 -2.5969005613775e-05 -7.04564764321834e-05 -1.30934158456874e-05 -0.000150584964480276 -5.29649392679809e-05 -6.98238249354333e-05 -4.39354743758054e-05 -6.21592865788327e-05
"137" -0.000137455446868 -0.000457006170567483 -0.000534009679753476 -6.68511795924413e-05 -0.000299906896950333 -0.000224766330061395 -0.000270531557048734 -0.00038047239021247 -2.55859131064749e-05 -5.98493824679859e-05 -1.252758070459e-05 -0.00014483720473826 -5.25285509368074e-05 -7.43054243794371e-05 -4.20391276540421e-05 -6.10130508157891e-05
"138" -0.000133240626310918 -0.000454713455112417 -0.000529749649095157 -6.74736097906102e-05 -0.000290753574123108 -0.000222581631014491 -0.00027559574822992 -0.000381574807920189 -2.49075120836092e-05 -4.89284586806839e-05 -1.16401046765092e-05 -0.000138481302288937 -5.11657120022152e-05 -7.85436726344298e-05 -3.97788304480602e-05 -5.94543226330764e-05
"139" -0.000129500042751605 -0.000452670616953151 -0.000524603056642025 -6.77443044985994e-05 -0.000281056034357784 -0.000218963614976638 -0.000279784509351093 -0.000382603003663655 -2.39252249804482e-05 -3.7727598409589e-05 -1.04090351261942e-05 -0.000131491499294261 -4.878806295317e-05 -8.2505238751079e-05 -3.71562882315372e-05 -5.74498755687628e-05
"140" -0.000126204599518631 -0.00045091661720559 -0.000518529857594938 -6.75969637714554e-05 -0.000270905069532337 -0.00021386167517348 -0.000282982728136159 -0.000383630995838573 -2.26520416688684e-05 -2.62774885899079e-05 -8.82255670837766e-06 -0.000123842506809881 -4.53064932814275e-05 -8.61672452049155e-05 -3.41843260473029e-05 -5.49725262161885e-05
"141" -0.000123323038742865 -0.000449474552550805 -0.000511486566109194 -6.69710960282338e-05 -0.000260389048687113 -0.000207240560298659 -0.000285084505684524 -0.000384739187149682 -2.10957581924365e-05 -1.46248556204551e-05 -6.86884774836583e-06 -0.000115516614672337 -4.06370358524894e-05 -8.95181738805837e-05 -3.08799715261753e-05 -5.20008916400264e-05
"142" -0.000120811028966859 -0.000448373303673778 -0.000503431129110136 -6.57963125636731e-05 -0.000249600812570279 -0.000199058729835838 -0.000285989646836543 -0.000386004423888455 -1.92686224047027e-05 -2.80224495649196e-06 -4.54153620104806e-06 -0.000106489766572309 -3.47061099360712e-05 -9.25302435351761e-05 -2.72580520635587e-05 -4.85078809740416e-05
"143" -0.000118612694340089 -0.000447634639939693 -0.000494336555279393 -6.40131444073777e-05 -0.000238635548701424 -0.000189296051092249 -0.000285599905517665 -0.000387501645068604 -1.71838325876856e-05 9.1490422235291e-06 -1.82878322164867e-06 -9.67513057190778e-05 -2.74415816076683e-05 -9.5195227536206e-05 -2.33400783789641e-05 -4.44732020936863e-05
"144" -0.00011668223284724 -0.000447264366619188 -0.000484171558238495 -6.15638250426269e-05 -0.000227601867489652 -0.000177943577492564 -0.000283831577256929 -0.000389305892281431 -1.48694886068774e-05 2.11812605950233e-05 1.26375513037538e-06 -8.62979101721767e-05 -1.87883818267542e-05 -9.74997825234583e-05 -1.91537785498513e-05 -3.98825498125352e-05
"145" -0.000114949376228797 -0.000447278261713698 -0.000472916706532932 -5.83903269526786e-05 -0.000216590804887484 -0.000164996210071595 -0.000280603711402296 -0.00039149417808524 -1.23441762106872e-05 3.32564206696392e-05 4.73926145339334e-06 -7.51241177079767e-05 -8.69704869093439e-06 -9.9439771960858e-05 -1.472292827083e-05 -3.4721765835534e-05
"146" -0.000113349511729792 -0.000447673778735167 -0.000460557723439542 -5.44374673819228e-05 -0.000205715509640566 -0.000150467529442784 -0.000275852188061834 -0.000394134554504392 -9.64297926063162e-06 4.53209075076205e-05 8.58967624838797e-06 -6.32370216823282e-05 2.86905023043926e-06 -0.00010100856489594 -1.00802712091175e-05 -2.8977881759234e-05
"147" -0.000111816222337344 -0.00044844982112535 -0.000447086657213682 -4.96637426570973e-05 -0.000195070188177133 -0.000134384034940817 -0.000269515135646664 -0.000397294227501094 -6.79000473279303e-06 5.73347060315757e-05 1.28044127138283e-05 -5.06474556679899e-05 1.59334909248811e-05 -0.000102205087619871 -5.25954925519043e-06 -2.26512265340221e-05
"148" -0.000110268758633449 -0.000449596457529005 -0.00043249791758575 -4.40254693220102e-05 -0.000184760308714674 -0.000116775310472165 -0.000261552303631069 -0.000401033944516906 -3.81759652489376e-06 6.92449898693727e-05 1.73737716295193e-05 -3.73708296796298e-05 3.05083755523284e-05 -0.000103038955033325 -2.93786974419956e-07 -1.57375362669589e-05
"149" -0.000108632536774512 -0.000451091349388522 -0.000416793358206835 -3.7486872320805e-05 -0.000174878700423988 -9.76940083407418e-05 -0.000251927479337287 -0.000405397166837802 -7.67165048216343e-07 8.10066674525045e-05 2.22773238503001e-05 -2.34323852944747e-05 4.65941388144743e-05 -0.000103509227220389 4.77889646463923e-06 -8.24002441435637e-06
"150" -0.000106832126284507 -0.000452919406355557 -0.000399993959671227 -3.00194494080535e-05 -0.000165517476383649 -7.71990719104934e-05 -0.000240620187113542 -0.000410443380861467 2.32884837012367e-06 9.25657087995379e-05 2.74967402116665e-05 -8.86474704723468e-06 6.41666195430542e-05 -0.000103630986955404 9.91648024439084e-06 -1.72512085689884e-07
"151" -0.000104787152768302 -0.000455045131459286 -0.000382114584402913 -2.16046812443965e-05 -0.000156770482979218 -5.53674941197171e-05 -0.000227616751193245 -0.000416200365910172 5.42488644928594e-06 0.000103869694933582 3.30027435665633e-05 6.292622900791e-06 8.32011981586446e-05 -0.000103417790753043 1.50793059947905e-05 8.45860930176831e-06
"152" -0.000102415317321304 -0.00045743358528758 -0.000363179117126967 -1.22269819258568e-05 -0.00014871172571805 -3.22754835885925e-05 -0.000212932008738724 -0.000422701005254183 8.4871790576149e-06 0.000114877616282049 3.87747385862229e-05 2.20018394902004e-05 0.000103651612736313 -0.000102878983914978 2.02286175218453e-05 1.76317185767951e-05
"153" -9.96465698585408e-05 -0.000460043550389166 -0.000343223343361115 -1.87866207327838e-06 -0.000141424102188161 -8.02847634899946e-06 -0.000196581802545635 -0.000429970303506646 1.14687064827306e-05 0.000125527399925708 4.4773580078521e-05 3.82003626205754e-05 0.000125452528597689 -0.000102043026294073 2.531873043437e-05 2.73215538959032e-05
"154" -9.64021220130287e-05 -0.000462836198667821 -0.00032229034316902 9.42404567954411e-06 -0.000134980662431794 1.72652381264988e-05 -0.000178596400909017 -0.000438018382535594 1.43363075664612e-05 0.000135781595884366 5.0975039391328e-05 5.48373096001143e-05 0.000148532613841771 -0.000100923703703204 3.03113203226714e-05 3.75016523191078e-05
"155" -9.26103660651038e-05 -0.000465747558331509 -0.000300424484664902 2.16852415517595e-05 -0.000129428204728886 4.34928690292963e-05 -0.000159022927473648 -0.00044683926184448 1.70461409457979e-05 0.000145583507218198 5.7337065989144e-05 7.18484683538823e-05 0.000172802350670641 -9.95437003507e-05 3.5162495426453e-05 4.81394111484543e-05
"156" -8.82032879800743e-05 -0.000468732093000727 -0.000277687959470807 3.48722896327753e-05 -0.0001248383411487 7.051625637174e-05 -0.000137925511031059 -0.000456433852490356 1.95603845953957e-05 0.00015488771895353 6.38220075427581e-05 8.91601968004336e-05 0.000198159182050109 -9.7926397947563e-05 3.98331717783801e-05 5.91970024958356e-05
"157" -8.31184929253376e-05 -0.000471720917070768 -0.000254133624232666 4.8964561879533e-05 -0.00012124005230529 9.82041461628678e-05 -0.000115373900658948 -0.000466781519416947 2.18392880866438e-05 0.000163646061832835 7.03914130366775e-05 0.000106696573274536 0.0002244835956753 -9.61009710102833e-05 4.42799606748441e-05 7.06352410167206e-05
"158" -7.72942222757772e-05 -0.000474647990499332 -0.000229833541535203 6.39204319647213e-05 -0.000118672469830111 0.000126411770075556 -9.14484054257826e-05 -0.000477841084189298 2.3848688801707e-05 0.000171821250516315 7.70024760577528e-05 0.000124378459168311 0.000251654104825322 -9.40865753990001e-05 4.84680700578172e-05 8.24069803130028e-05
"159" -7.06814399151678e-05 -0.000477447840010758 -0.000204862984547413 7.96942267915521e-05 -0.000117156749207924 0.000154978230290096 -6.62578901205843e-05 -0.000489577318446954 2.55506785079335e-05 0.000179364051025851 8.36118095605888e-05 0.000142124181663258 0.000279523686876123 -9.19143779732425e-05 5.23580558461705e-05 9.44612264564984e-05
"160" -6.32315732952798e-05 -0.000480049656331148 -0.00017930411059018 9.62313652596646e-05 -0.0001167055157326 0.000183748398596968 -3.99059970508832e-05 -0.000501943115645956 2.6920864187567e-05 0.000186238081769031 9.01774083795276e-05 0.000159839152803281 0.000307943009934859 -8.96086238552085e-05 5.59204603420301e-05 0.000106748519445468
"161" -5.49066908665836e-05 -0.000482381259997277 -0.000153236436579869 0.000113471110940206 -0.000117324169641623 0.000212552270369278 -1.25211246563511e-05 -0.000514877185766466 2.79296273054699e-05 0.000192409643664559 9.66560392202231e-05 0.000177434957884818 0.000336752617564319 -8.71882599319668e-05 5.91216263317757e-05 0.000119213496864455
"162" -4.5672548066438e-05 -0.000484363775335978 -0.000126752472018274 0.000131338342778719 -0.000118999271169649 0.000241222931751282 1.57703949955349e-05 -0.000528300061750237 2.85509759905626e-05 0.000197841976735002 0.000103002770049403 0.000194813249110781 0.000365783326301478 -8.46841252190837e-05 6.19318635398568e-05 0.000131796874188446
"163" -3.55077616060743e-05 -0.000485922191338392 -9.99450030759294e-05 0.000149765639927641 -0.000121714406682626 0.00026958783613888 4.4828225402659e-05 -0.000542129798559593 2.87629132287439e-05 0.000202506108182627 0.000109173828534842 0.000211879428876435 0.000394859646611498 -8.21106736902123e-05 6.43302907199113e-05 0.000144443439654559
"164" -2.4395993358824e-05 -0.000486979676226946 -7.29147785478096e-05 0.000168661871030456 -0.000125433664057461 0.000297470062298558 7.449043850756e-05 -0.000556282329829001 2.85508950558444e-05 0.000206377683291958 0.000115126922437586 0.000228535221718724 0.000423792163094651 -7.94971462831701e-05 6.62871108121993e-05 0.000157084033859767
"165" -1.23199569325289e-05 -0.000487451127154997 -4.57488532895631e-05 0.000187945760160389 -0.000130103941070019 0.000324707169692847 0.000104612571020143 -0.000570638729845882 2.78990441303749e-05 0.000209435126748169 0.000120823120947855 0.000244687571089517 0.000452409538340975 -7.6854476628497e-05 6.77949591345778e-05 0.000169666403377298
"166" 7.07742564904214e-07 -0.000487276017146256 -1.85618624837535e-05 0.000207511714220742 -0.000135685807920192 0.000351114328117952 0.000135020351947353 -0.000585107543308159 2.68002729419418e-05 0.000211658161588925 0.000126221865769343 0.00026023108761321 0.000480508038516251 -7.42040960270919e-05 6.88300938147395e-05 0.000182117446666309
"167" 1.46906444398497e-05 -0.000486367919645155 8.55811882385375e-06 0.000227267528536215 -0.00014209175439071 0.000376531646271398 0.000165547534406863 -0.000599556958523135 2.52565437055986e-05 0.000213044046674066 0.000131288455826012 0.000275079188864223 0.000507904880738072 -7.15462118456935e-05 6.93939011441656e-05 0.00019438542476862
"168" 2.96028155785485e-05 -0.000484652802653223 3.55049785842839e-05 0.00024710569740034 -0.00014925288156504 0.000400789964154189 0.000196014428413771 -0.000613869984385295 2.32564132210523e-05 0.00021357144567592 0.000135984983488133 0.000289130205780703 0.000534405614965887 -6.89073051714878e-05 6.94692411721423e-05 0.000206401339830342
"169" 4.54196348819744e-05 -0.000482066847711944 6.21740991947361e-05 0.000266920043741481 -0.000157076790943168 0.000423728689291002 0.000226252204782688 -0.000627909234733492 2.08084609843703e-05 0.000213249460232786 0.000140278646753482 0.000302295685560798 0.000559818503694186 -6.62890621871118e-05 6.90579071771004e-05 0.000218101150962902
"170" 6.21098525693401e-05 -0.000478535427533473 8.84792849722667e-05 0.000286596891846358 -0.000165455482482582 0.000445202261231094 0.000256076444110312 -0.00064153917446661 1.79258441463436e-05 0.000212071407735104 0.000144140291067489 0.000314488895334625 0.000583956248187582 -6.36933349241021e-05 6.81649136290575e-05 0.000229431462084466
"171" 7.96267523415046e-05 -0.000474002596906785 0.000114317643834881 0.000306027853380524 -0.000174286352314413 0.000465058668452144 0.000285312100493999 -0.000654621690765784 1.46162790934689e-05 0.00021005056957135 0.000147544587038693 0.000325628034397552 0.000606637700463954 -6.11177960175158e-05 6.67983673540845e-05 0.00024033167643942
"172" 9.79221137086611e-05 -0.000468397870374633 0.000139601233625563 0.000325095559053867 -0.00018343576353407 0.000483174136355301 0.000313787131431856 -0.000667005848874051 1.09022550435736e-05 0.000207194904549413 0.000150467405066034 0.000335635823618298 0.000627684269294099 -5.85707605539299e-05 6.49611498918138e-05 0.000250744196535251
"173" 0.000116933436833225 -0.000461667760674506 0.000164250886679275 0.000343689973495391 -0.000192776541492632 0.000499426002934752 0.000341325600462641 -0.000678545576334506 6.80423687434715e-06 0.000203525540145425 0.00015289312797377 0.000344443505755471 0.000646930462120154 -5.60378570774415e-05 6.2679451947815e-05 0.000260620249937912
"174" 0.000136588928540238 -0.00045376965509117 0.000188173489437349 0.000361687125129899 -0.000202176092137729 0.000513699571643648 0.000367761930124937 -0.00068909445008324 2.34240674268309e-06 0.000199060787135265 0.000154798528684141 0.000351982256105896 0.000664211375576925 -5.35217730752856e-05 5.99603430878594e-05 0.000269901972435413
"175" 0.000156814533372278 -0.000444648429756832 0.000211308240670022 0.000378985902701612 -0.000211483292045857 0.000525902623518475 0.000392934120609913 -0.000698505940300016 -2.45502959321305e-06 0.000193830629187198 0.000156174808955043 0.000358199383203864 0.000679375647968397 -5.10092475080962e-05 5.68276750307881e-05 0.000278548158486092
"176" 0.000177523752789602 -0.00043426634767905 0.000233583875842593 0.000395470612839675 -0.000220551988614846 0.000535958139772686 0.000416705002561707 -0.000706628506493514 -7.54819808463948e-06 0.000187868921325809 0.000157017536654232 0.000363049480083261 0.000692293257606555 -4.8479216579257e-05 5.331486214121e-05 0.000286517095584857
"177" 0.000198622125026253 -0.000422592502323763 0.000254938318697624 0.000411030594430864 -0.00022922825489295 0.000543796838300253 0.000438923132580957 -0.000713326331040624 -1.29102723754195e-05 0.000181203390993437 0.000157313336232268 0.000366485520626312 0.000702833026512973 -4.59370730140594e-05 4.94357501649414e-05 0.000293764903807106
"178" 0.000220013311610112 -0.000409595861868616 0.000275329535823927 0.000425575316638207 -0.00023735079591579 0.000549377641980328 0.000459468256099271 -0.000718449235198647 -1.85003149471128e-05 0.000173883937063085 0.000157068304227962 0.000368487465801398 0.000710886957274498 -4.33506513780243e-05 4.52329721428051e-05 0.000300264383582308
"179" 0.000241588205313367 -0.000395264602016427 0.000294704871158082 0.000438991921748876 -0.000244771442197686 0.000552669737947916 0.000478221672561632 -0.000721871666043114 -2.42747567864099e-05 0.000165953864171246 0.000156285137443583 0.000369037981973341 0.000716366932264914 -4.07105920071316e-05 4.07356991236106e-05 0.000305981858812798
"180" 0.000263241544095745 -0.00037957629280312 0.000313044444582905 0.000451200617434007 -0.000251329858806986 0.00055366237618577 0.000495084331092942 -0.000723463786450887 -3.01989542643074e-05 0.000157462556539379 0.000154968878761847 0.000368123320264311 0.000719190711726578 -3.80004593427029e-05 3.5976073550082e-05 0.000310898135819073
"181" 0.000284851086506282 -0.000362521911684466 0.000330308724134928 0.000462112049775698 -0.000256879258478179 0.000552361018088473 0.000509980720713994 -0.000723103328378894 -3.62297584264602e-05 0.000148453612241959 0.000153130595605528 0.000365745511590864 0.000719306812576708 -3.52037888500357e-05 3.09928935835584e-05 0.000314991090399227
"182" 0.000306300149293119 -0.000344107250578804 0.000346492858924722 0.000471656869468645 -0.000261270889139422 0.000548799360132223 0.000522844602120826 -0.000720681535464909 -4.23243364821039e-05 0.000138993674059747 0.000150782872406099 0.000361927739100061 0.000716671675074263 -3.23014861204281e-05 2.58218651696936e-05 0.000318249946117238
"183" 0.000327463236751615 -0.000324338647011627 0.000361582309814424 0.000479758321123956 -0.000264369942710896 0.000543014548119223 0.000533622757238766 -0.000716099376287084 -4.8435572371205e-05 0.000129136139680786 0.000147947461285581 0.000356690005677449 0.000711273156178658 -2.92750347312976e-05 2.05040798036878e-05 0.000320668271375325
"184" 0.000348220295749474 -0.000303230188511599 0.000375580899926325 0.000486365243503165 -0.000266042177333166 0.000535078037222315 0.000542290458375789 -0.000709267800363384 -5.4520393818307e-05 0.00011894040740573 0.000144644775480753 0.000350076073560241 0.000703113307559883 -2.61063850503975e-05 1.50752741361747e-05 0.000322248322913089
"185" 0.000368443789721098 -0.000280808078751289 0.000388499472251174 0.000491432512380719 -0.000266173033917811 0.000525068701709628 0.000548841912312092 -0.000700109585213075 -6.05373507008293e-05 0.000108473178147011 0.000140898699881455 0.000342130158996938 0.000692214445274641 -2.27812577408466e-05 9.57955446669017e-06 0.000322993864623774
"186" 0.000388003136389318 -0.000257099178708962 0.000400350239793813 0.000494917249617501 -0.000264655446251629 0.000513085384565271 0.000553280662682696 -0.000688567195431735 -6.64409039237356e-05 9.77955138696341e-05 0.000136736181815966 0.000332913753124007 0.0006786222275274 -1.92848057777169e-05 4.05066163130745e-06 0.000322914448913033
"187" 0.000406778335737743 -0.000232131492923337 0.000411155783419069 0.000496803854709594 -0.000261398463906592 0.000499247105411583 0.00055564899498273 -0.000674586759361717 -7.21972376668145e-05 8.69662857353329e-05 0.000132187163040888 0.000322499174133008 0.000662403629391397 -1.56097817645988e-05 -1.47087072576385e-06 0.000322029979921457
"188" 0.000424648768073528 -0.000205960753480125 0.000420951014712281 0.000497079636465404 -0.000256324237014469 0.000483683521385032 0.000555981607019038 -0.000658141031625616 -7.77559188818763e-05 7.60616971325855e-05 0.000127285218915437 0.000310967889963651 0.000643647825490696 -1.17368455144118e-05 -6.94979539963277e-06 0.0003203658632719
"189" 0.000441495125579912 -0.000178633560493306 0.000429759981659103 0.00049573688839654 -0.000249378580049106 0.000466539298555298 0.00055435324176409 -0.000639216439732013 -8.30816940637461e-05 6.51399388189094e-05 0.000122069222222517 0.000298409509777454 0.00062246459514566 -7.65651954608642e-06 -1.23411996587984e-05 0.000317953482484028
"190" 0.000457208609990413 -0.000150200613438476 0.00043762841025698 0.000492795547837419 -0.000240513966147947 0.000447976426672385 0.000550855927236394 -0.000617801876663359 -8.81426297459114e-05 5.42647288332706e-05 0.000116574682471633 0.00028492800071782 0.000598984587161049 -3.37130963805384e-06 -1.7618034817043e-05 0.000314824398327732
"191" 0.000471677446343969 -0.000120728607170034 0.000444593795495052 0.000488279641649892 -0.000229715369338723 0.000428155784336272 0.000545575474394848 -0.000593921165021841 -9.29076301077129e-05 4.35020259179001e-05 0.000110836008401544 0.000270621818571316 0.000573348675120695 1.1283201857463e-06 -2.27468951700905e-05 0.000311017989019068
"192" 0.000484815084444295 -9.02853322655072e-05 0.000450703246387483 0.000482226034779999 -0.000216973291134446 0.00040726547785402 0.00053864686962162 -0.000567599347224632 -9.73328976681443e-05 3.29176870040887e-05 0.000104901034997144 0.00025561822742442 0.000545731810515479 5.84620907024072e-06 -2.76913039509376e-05 0.000306588269745335
"193" 0.000496530203212546 -5.89461297646575e-05 0.000455997950526726 0.000474678385885005 -0.00020231165674187 0.000385483708650241 0.000530189218526703 -0.000538887350234786 -0.000101399366471015 2.25649933066562e-05 9.88128468035643e-05 0.000240030451748201 0.000516312213025111 1.07814119569991e-05 -3.24207950040694e-05 0.000301579137755938
"194" 0.000506747548128436 -2.67837318594671e-05 0.000460532438614038 0.000465703735194553 -0.000185758920272122 0.000363005695498451 0.000520352684667253 -0.000507844506969818 -0.000105082755256434 1.25080956743504e-05 9.26101423588317e-05 0.00022398740729312 0.000485288043386888 1.59289323611637e-05 -3.69106646925381e-05 0.000296048310483164
"195" 0.000515393822235207 6.1213822561965e-06 0.000464344487532494 0.000455372654552377 -0.000167380199268609 0.000340018483974335 0.000509288160445433 -0.000474552021056215 -0.000108361240377753 2.79371600570901e-06 8.63363573326337e-05 0.000207609201153487 0.00045286403020538 2.12791125167176e-05 -4.11371514259232e-05 0.000290050742706132
"196" 0.00052242085665457 3.96726757040308e-05 0.000467478984166604 0.000443756428547478 -0.000147254420817319 0.000316716563346311 0.000497152126542312 -0.000439108964838751 -0.000111213466980634 -6.519532794543e-06 8.00370750457059e-05 0.000191029843967916 0.000419266755889904 2.68318332354581e-05 -4.50731017823101e-05 0.000283650321416092
"197" 0.000527790402211319 7.37882050853586e-05 0.000469986717357992 0.000430958550337919 -0.000125463989967206 0.000293297233909096 0.00048412504753257 -0.000401610275922075 -0.000113625392912412 -1.53879529499536e-05 7.37573330755655e-05 0.000174382586127873 0.000384724778802465 3.25676262641938e-05 -4.86993090129249e-05 0.000276906687306255
"198" 0.000531471578011279 0.000108370955822014 0.000471901331063691 0.000417064138746299 -0.000102132129145797 0.000269943015187602 0.000470369122725081 -0.000362186157835564 -0.000115587825579841 -2.37670715381012e-05 6.75376032170443e-05 0.000157791610095433 0.000349470331268647 3.84768130489058e-05 -5.1998705823122e-05 0.000269888056373286
"199" 0.000533449383475378 0.00014333430230673 0.000473261581350537 0.000402184463603069 -7.73822551472863e-05 0.000246840631473014 0.000456067280145109 -0.000320965862563854 -0.000117092266522386 -3.16192088869197e-05 6.14191730671364e-05 0.000141382041917904 0.000313743530872982 4.45342719526053e-05 -5.49633274974303e-05 0.000262653264470063
"200" 0.000533732064348269 0.000178568076720103 0.000474100367525289 0.000386424607284829 -5.13610215758753e-05 0.000224167922006674 0.000441384836875022 -0.00027809202372371 -0.000118131958034699 -3.8907211913896e-05 5.54478725863354e-05 0.000125281758312072 0.000277787292570846 5.07414760401155e-05 -5.75670335302444e-05 0.000255276316260747
"201" 0.000532322309571744 0.000213984730974999 0.000474444739880894 0.00036989929047911 -2.42281140038963e-05 0.00020208813473754 0.000426498632727659 -0.00023372184283863 -0.000118713079740532 -4.56134162606974e-05 4.96545691217796e-05 0.000109597798811551 0.000241834382273185 5.70508020395305e-05 -5.98130078578306e-05 0.000247811331656016
"202" 0.000529255882214269 0.000249482971698362 0.000474324204399863 0.000352729124905647 3.85098967455511e-06 0.000180764098593985 0.000411584119474076 -0.000188013287335216 -0.000118830722423904 -5.17045364413531e-05 4.40829591984657e-05 9.4451409645811e-05 0.000206127880129817 6.3453504543577e-05 -6.16920672899372e-05 0.000240327072164024
"203" 0.000524572411502655 0.000284963505833182 0.000473755019642107 0.00033502480845023 3.26943115302727e-05 0.000160336081398776 0.000396797761431085 -0.00014113810969115 -0.000118496826572778 -5.71703776809739e-05 3.87642431299336e-05 7.99381380217601e-05 0.000170895898695086 6.99213281867822e-05 -6.32017493087778e-05 0.000232878819890535
"204" 0.000518322072770337 0.000320324936719608 0.000472754096504155 0.000316908755314531 6.21156843201627e-05 0.00014093985319311 0.000382296197643812 -9.32739438455667e-05 -0.000117717700730898 -6.19934047440159e-05 3.3729122758854e-05 6.61562087152025e-05 0.000136357231420632 7.64257935318161e-05 -6.43398600197993e-05 0.000225524341100535
"205" 0.00051056701747848 0.000355477377738946 0.00047132906862843 0.000298501318288825 9.19165089563177e-05 0.000122689860979436 0.000368229257657111 -4.45980273516611e-05 -0.000116516611219395 -6.61793020093146e-05 2.90028664779736e-05 5.31858297985553e-05 0.00010272637562143 8.29305711070336e-05 -6.51189857641288e-05 0.000218314455209621
"206" 0.00050139402740789 0.000390315906975451 0.00046949023690717 0.000279913036967808 0.000121913647042621 0.000105696659020819 0.000354734664696652 4.71138311330305e-06 -0.000114897773180912 -6.97191312318045e-05 2.46167896269512e-05 4.11144628251269e-05 7.02070714665788e-05 8.94122624676321e-05 -6.55359996852575e-05 0.00021129920744557
"207" 0.00049087476729597 0.000424745978243927 0.000467233106619786 0.000261256296729109 0.000151883852206021 9.00397470833943e-05 0.000341928675067918 5.44548986201697e-05 -0.000112886007336508 -7.26244899020046e-05 2.05865175013903e-05 2.99909163066198e-05 3.89797835635382e-05 9.5831657627557e-05 -6.56077092422769e-05 0.000204517973679564
"208" 0.000479106932310285 0.000458683445154225 0.000464562291376539 0.000242649399241084 0.000181646960256786 7.57994082310184e-05 0.00032993906931473 0.000104455728172563 -0.000110505871200648 -7.49106454973883e-05 1.6929900173367e-05 1.98796689009507e-05 9.2173815504378e-06 0.000102159785082979 -6.53443362634551e-05 0.000198011924749733
"209" 0.000466193937719275 0.000492033853354482 0.0004614705858725 0.000224185919292758 0.000210996023474245 6.30311428288958e-05 0.000318858915579756 0.000154531202133441 -0.000107779191324583 -7.65970038352744e-05 1.36596783035294e-05 1.082074389909e-05 -1.89198082418049e-05 0.000108348124347087 -6.47657023222718e-05 0.000191808434104115
"210" 0.000452234353454818 0.000524705046954371 0.000457936315187638 0.000205964456726533 0.000239730530458561 5.1771873932154e-05 0.000308772100761789 0.000204490022046595 -0.000104734592877821 -7.77028747695075e-05 1.07863602254333e-05 2.84363662561314e-06 -4.53016238908079e-05 0.000114373790228297 -6.38870541555841e-05 0.000185933836924594
"211" 0.00043734835816517 0.000556616609300871 0.000453959644630813 0.00018807628493219 0.000267672022624397 4.20561462147125e-05 0.000299758854874698 0.000254163388686069 -0.000101400768865826 -7.8261673959472e-05 8.31522686150253e-06 -4.02671612063227e-06 -6.97996037409008e-05 0.000120192324028724 -6.27305131940445e-05 0.000180409852507134
"212" 0.000421639586098971 0.000587688269135609 0.000449519782225887 0.000170613908379006 0.000294623738555178 3.38880341647235e-05 0.000291868281965375 0.000303360598074605 -9.78132111152881e-05 -7.83114930329762e-05 6.24078888408333e-06 -9.79058319629361e-06 -9.23224631436844e-05 0.000125766406326249 -6.13243383554183e-05 0.000175244487000931
"213" 0.000405230503036869 0.000617840315339618 0.000444604819678337 0.000153648598611548 0.000320427543761269 2.7271559731559e-05 0.000285149545836918 0.000351918719951483 -9.39977646078551e-05 -7.7884621740512e-05 4.56432646936262e-06 -1.44391950479055e-05 -0.000112784756993852 0.000131063902207015 -5.96884498816803e-05 0.000170449790309052
"214" 0.000388232716057993 0.000647000187615741 0.000439193688885097 0.000137247334473451 0.000344909666658065 2.21869678863494e-05 0.000279628683114499 0.000399672438985138 -8.99973644597488e-05 -7.70301622570421e-05 3.27405482236193e-06 -1.79883770132878e-05 -0.000131120622357195 0.000136037776007522 -5.78601424488535e-05 0.000166016349222311
"215" 0.000370762386897113 0.000675093496511992 0.000433264169685284 0.000121470479278117 0.00036791482531322 1.86046196217444e-05 0.000275319562105224 0.00044646229627718 -8.58354087401382e-05 -7.57938969787323e-05 2.36218138090914e-06 -2.0459307411565e-05 -0.000147286619184925 0.000140662934637884 -5.58605373981662e-05 0.000161948220845807
"216" 0.000352931729959985 0.000702056015711094 0.000426804867789499 0.000106380272649515 0.000389308318762058 1.64870332054096e-05 0.000272223348551873 0.000492136774073023 -8.15620135848079e-05 -7.4226313619777e-05 1.80772473497116e-06 -2.18830672505114e-05 -0.000161262340938329 0.00014489769975089 -5.37272432855946e-05 0.000158228434715633
"217" 0.000334850961136106 0.000727823283530024 0.000419797362628238 9.20170691262475e-05 0.000408952953868897 1.57764431821453e-05 0.000270320793429566 0.000536548032171329 -7.72072854082508e-05 -7.23813140475279e-05 1.59324262970424e-06 -2.23013892887547e-05 -0.000173038963367158 0.00014871128733595 -5.14945491888864e-05 0.000154840673071928
"218" 0.000316625750361688 0.000752339475854081 0.000412220152655559 7.84168230028004e-05 0.000426738784861178 1.64162390929489e-05 0.000269595015786669 0.000579563438670565 -7.28059587052536e-05 -7.03117074233841e-05 1.69616410196261e-06 -2.17572858923227e-05 -0.000182626496067587 0.000152071132277796 -4.91928643039706e-05 0.000151762664714543
"219" 0.000298366008360951 0.000775539486838781 0.000404064089777277 6.56131816010218e-05 0.000442564455510909 1.83338059457077e-05 0.000269996141460341 0.000621059798433758 -6.83948963862112e-05 -6.80719561921896e-05 2.09133453717932e-06 -2.03025460939872e-05 -0.000190048096720842 0.000154953470285183 -4.68530102950443e-05 0.000148971307837574
"220" 0.000280158488865158 0.000797381093727871 0.000395314285444888 5.36241372079671e-05 0.000456346503559478 2.14525687612104e-05 0.000271478926946612 0.000660920532704142 -6.40174047019991e-05 -6.57254539537224e-05 2.74918636285732e-06 -1.80015822157976e-05 -0.000195352161345489 0.000157323434407686 -4.45198884346744e-05 0.000146432801773199
"221" 0.000262103781787438 0.000817813788116212 0.00038596915429484 4.24703469830123e-05 0.000468021445610604 2.56930591985904e-05 0.000273980522934407 0.000699040603859218 -5.9697342788159e-05 -6.33216417566534e-05 3.63815313284472e-06 -1.49100291348593e-05 -0.000198590481462557 0.000159169826564228 -4.2217689834573e-05 0.000144116183318213
"222" 0.000244279791095256 0.000836789084847122 0.000376014424503551 3.21524380209821e-05 0.000477522125679204 3.09517790614556e-05 0.000277419732505746 0.000735315173678471 -5.54752626377672e-05 -6.09225535312734e-05 4.72646966110595e-06 -1.11104849251879e-05 -0.000199838791010177 0.000160458865208235 -3.99876219614054e-05 0.000141984437626738
"223" 0.0002267659411008 0.000854272793693059 0.000365450924216548 2.26828743569271e-05 0.000484816612082669 3.71420741153814e-05 0.000281723613473077 0.000769657211792816 -5.13854143213328e-05 -5.8581831964959e-05 5.97815563343814e-06 -6.66827634571957e-06 -0.000199184728073585 0.000161189792385886 -3.78563284515683e-05 0.00014000083326132
"224" 0.000209638649465748 0.000870232246405553 0.000354290433878376 1.40490302172531e-05 0.000489890913029203 4.41700060273969e-05 0.000286803734537721 0.000802004609026145 -4.74584255474674e-05 -5.63549987391488e-05 7.35755804427557e-06 -1.65705895382937e-06 -0.000196709721292714 0.000161337843153636 -3.58620766485517e-05 0.000138124013537445
"225" 0.000192961823766368 0.000884621866591803 0.000342531601769207 6.24241011177049e-06 0.000492724830575767 5.19254456472052e-05 0.000292549086855086 0.000832270273201221 -4.37165392986846e-05 -5.42889610874315e-05 8.83090227278411e-06 3.84392753286983e-06 -0.000192530521603153 0.000160910301936614 -3.40281791107035e-05 0.000136317207490803
"226" 0.00017679119592767 0.000897420892831946 0.000330193456876661 -7.50788405918137e-07 0.0004933363431171 6.0313522416951e-05 0.000298861534030659 0.000860407251706848 -4.01940363828127e-05 -5.2437159245064e-05 1.03619354268618e-05 9.75307422464007e-06 -0.000186758916625536 0.000159893570382837 -3.23856973257377e-05 0.000134540170313403
"227" 0.000161179505772757 0.000908608797314672 0.00031729460400701 -6.95002122420477e-06 0.000491751473387126 6.92297901931254e-05 0.000305638405323663 0.000886370550057516 -3.69121090679825e-05 -5.08389919888714e-05 1.19110666174606e-05 1.59975861317474e-05 -0.000179510075638719 0.000158296465604765 -3.09574266037791e-05 0.000132754052142765
"228" 0.000146173374114597 0.000918162022027085 0.000303864111838212 -1.23788683622622e-05 0.000488008998119093 7.85727331615258e-05 0.000312752498411709 0.000910119447794914 -3.38917604484712e-05 -4.95407226660874e-05 1.344521941324e-05 2.24971414503192e-05 -0.000170917196866087 0.000156128842870259 -2.97673807687286e-05 0.000130920373094037
"229" 0.000131804480780235 0.000926075477270561 0.000289919217997973 -1.70731695155604e-05 0.000482160963139991 8.82348451204832e-05 0.00032009815387361 0.000931632804059933 -3.11585121324673e-05 -4.85818007926442e-05 1.49274869100013e-05 2.9170011552336e-05 -0.00016111122431554 0.000153387830549734 -2.88407480357174e-05 0.000129000158140747
"230" 0.000118106166022074 0.000932325000419961 0.000275510292914689 -2.10542219819277e-05 0.000474277944731976 9.81128398325622e-05 0.000327547435064074 0.000950878621696113 -2.87253481307898e-05 -4.79926512011254e-05 1.63209297469817e-05 3.5937966672582e-05 -0.000150237088095242 0.000150102724821229 -2.81918529100204e-05 0.000126961732660633
"231" 0.000105101621983768 0.00093691765159709 0.000260677859503152 -2.43623751658762e-05 0.000464447366949916 0.000108119558970118 0.000334983933229898 0.000967865524356033 -2.66067850949555e-05 -4.77985593455121e-05 1.75957976768332e-05 4.2734154010214e-05 -0.00013842899693902 0.000146292142405986 -2.78375562341535e-05 0.000124771815881637
"232" 9.28087034540485e-05 0.000939850434243485 0.000245459817307254 -2.70375400323114e-05 0.000452757780753142 0.000118148002749794 0.000342283296096455 0.000982586913185249 -2.48174995178002e-05 -4.8029535139943e-05 1.87205567345269e-05 4.94784656043169e-05 -0.0001258333069969 0.000141981655366066 -2.77863649867583e-05 0.000122403369298682
"233" 8.12393996750712e-05 0.000941140244467378 0.000229922230886851 -2.91182923455545e-05 0.000439326884949629 0.000128112460971162 0.000349332907131989 0.000995067609475484 -2.33690546197979e-05 -4.86991835884393e-05 1.96654532800619e-05 5.61065512215962e-05 -0.000112592279619978 0.000137192295511263 -2.80523217880017e-05 0.000119828620064365
"234" 7.03962582677846e-05 0.00094078619457252 0.000214119324403885 -3.06458955923869e-05 0.000424262802094929 0.000137913902297882 0.00035601138982133 0.00100531424863647 -2.22658833533971e-05 -4.98223698797026e-05 2.0401288431103e-05 6.25466791549524e-05 -9.88522131681695e-05 0.000131962637875294 -2.86408773652095e-05 0.000117025509821277
"235" 6.028123657445e-05 0.000938813149106226 0.000198113543819814 -3.16668775488138e-05 0.000407700072724004 0.000147470217070654 0.000362204212965426 0.00101335628009025 -2.15142237261866e-05 -5.14053280559843e-05 2.09054732733039e-05 6.8734075273012e-05 -8.47633490766817e-05 0.000126331444989938 -2.95512799083432e-05 0.000113975550374346
"236" 5.08843804486792e-05 0.000935257430616243 0.000181979332758639 -3.22259306379487e-05 0.000389780460640176 0.000156704328593298 0.000367812216736008 0.00101924771377493 -2.11208827983308e-05 -5.34566500307796e-05 2.11493102231777e-05 7.46159424521153e-05 -7.04657181324274e-05 0.000120330322917406 -3.07908911035461e-05 0.000110663280378944
"237" 4.22015006048069e-05 0.00093013888384123 0.000165783666627578 -3.23677215261952e-05 0.000370644882150299 0.000165530541735894 0.000372721109471762 0.0010230261347884 -2.10809465927359e-05 -5.59649130001427e-05 2.11178390228802e-05 8.01296516910502e-05 -5.61001425074585e-05 0.000114004407134167 -3.23553151996486e-05 0.00010708114042851
"238" 3.42147579021872e-05 0.000923498809477048 0.000149612491730575 -3.214080162632e-05 0.000350450920085655 0.0001738783699835 0.000376839734690209 0.00102474079348638 -2.13938663452014e-05 -5.89217870283531e-05 2.07962216450944e-05 8.52285518958116e-05 -4.18062197980272e-05 0.000107402383892271 -3.42367853935326e-05 0.000103220856590268
"239" 2.69026648074525e-05 0.000915392823583609 0.000133538542467445 -3.1591980546888e-05 0.000329360423857116 0.000181684179106811 0.000380082835081101 0.00102447227269241 -2.20633432852863e-05 -6.23211994979662e-05 2.01606654646082e-05 8.98613516982239e-05 -2.77219663228035e-05 0.000100557880044535 -3.64332373166743e-05 9.90805797099995e-05
"240" 2.02442038561496e-05 0.000905870224489597 0.000117646711454211 -3.07732545726092e-05 0.000307533734163374 0.000188881120271708 0.000382363872728155 0.00102228440405126 -2.30751939234691e-05 -6.61417239524137e-05 1.92059017244199e-05 9.3989997943253e-05 -1.39733800336684e-05 9.35312340704824e-05 -3.89286331724848e-05 9.46640591715627e-05
"241" 1.42114245181762e-05 0.000894993274945021 0.000102025020508105 -2.97238646199106e-05 0.000285146832215329 0.000195415522536108 0.000383619934421767 0.00101825855016956 -2.44339330121798e-05 -7.03578427411621e-05 1.79197017541123e-05 9.75748641516913e-05 -6.90443536829953e-07 8.63536735388707e-05 -4.17203104594534e-05 8.99701412208399e-05
"242" 8.76986398394042e-06 0.000882830254053572 8.67543806592145e-05 -2.84941519380532e-05 0.000262363435043103 0.000201231817289022 0.000383784022537465 0.00101248127845123 -2.61266853805897e-05 -7.49448071711466e-05 1.62951578713317e-05 0.000100580779412529 1.20050784092285e-05 7.90838700515147e-05 -4.47868596446869e-05 8.50204521948882e-05
"243" 3.88779833849314e-06 0.000869458171765727 7.19205349208184e-05 -2.71326372140408e-05 0.000239352109860627 0.000206286714005224 0.000382811747114558 0.00100504614645548 -2.81488049764395e-05 -7.98734904526755e-05 1.43278954899101e-05 0.000102985024490362 2.40020703162631e-05 7.17613038048781e-05 -4.81198742939629e-05 7.98175969649467e-05
"244" -4.69740561413017e-07 0.000854955660802431 5.76141747325172e-05 -2.56757396285752e-05 0.000216290537362185 0.000210541577755095 0.000380658695551158 0.00099605067937232 -3.04863445441378e-05 -8.51065335375365e-05 1.20204340236026e-05 0.000104764444546797 3.51923586216328e-05 6.44399472191223e-05 -5.16960158405336e-05 7.43886522556651e-05
"245" -4.34004315167857e-06 0.000839411155286392 4.39133172927149e-05 -2.41770798522085e-05 0.00019333937218084 0.000213960588110742 0.000377302929001683 0.000985604289838218 -3.31313401690569e-05 -9.06029016460385e-05 9.37310933552318e-06 0.000105900872123396 4.54771702886157e-05 5.71541477909548e-05 -5.550320865881e-05 6.87467159463702e-05
"246" -7.7596645030062e-06 0.000822919655058466 3.09064165157782e-05 -2.26687572974228e-05 0.000170670248182454 0.000216524413585055 0.00037272793738507 0.000973814909841749 -3.60672175936198e-05 -9.63237938406154e-05 6.39084292339466e-06 0.000106388506717627 5.47697815961855e-05 4.99530664956888e-05 -5.95161314933558e-05 6.29225638579285e-05
"247" -1.07799518673399e-05 0.000805589749939832 1.86641343492947e-05 -2.11893359672532e-05 0.000148437099339071 0.000218204926445134 0.000366932772728628 0.000960798598576059 -3.92938992034681e-05 -0.000102228822539843 3.07562379706372e-06 0.000106211889363777 6.29782045176676e-05 4.28746743119489e-05 -6.37187819773467e-05 5.69390680619861e-05
"248" -1.34311230900635e-05 0.000787508785909364 7.26571934695359e-06 -1.9778531602377e-05 0.000126797790410728 0.000218991368327125 0.000359924399301368 0.00094666962217658 -4.27865189283604e-05 -0.000108267157097286 -5.56029760074288e-07 0.000105376664871999 7.00377858558247e-05 3.59529135615456e-05 -6.80882189728493e-05 5.08234255825717e-05
"249" -1.57644672586175e-05 0.000768805376710191 -3.2228423305983e-06 -1.8466983556712e-05 0.000105891992193502 0.000218874738609112 0.000351727746989335 0.000931560881084548 -4.65414838583709e-05 -0.000114399725436138 -4.49913654598561e-06 0.000103886396240368 7.58847272062375e-05 2.922903429868e-05 -7.26051132617604e-05 4.46121847792517e-05
"250" -1.78134490073682e-05 0.000749564639156254 -1.27306432814688e-05 -1.72895871529899e-05 8.58656933185561e-05 0.000217856895987849 0.000342368323714191 0.000915578722373854 -5.05375023982262e-05 -0.000120568728087815 -8.73260002095743e-06 0.000101751855719104 8.0466170563767e-05 2.27290221195642e-05 -7.72434946815337e-05 3.83340287758734e-05
"251" -1.96265512685272e-05 0.000729919363152231 -2.12148795296569e-05 -1.62741493972439e-05 6.68349746492242e-05 0.000215937113767848 0.000331895384557422 0.000898857025635112 -5.47629696092902e-05 -0.000126732243364036 -1.32437821758824e-05 9.89896955822068e-05 8.37407820763425e-05 1.64840536343895e-05 -8.19811255860288e-05 3.20256072711676e-05
"252" -2.12390586158813e-05 0.000709979519703685 -2.8613952440489e-05 -1.54414569985092e-05 4.89259880680641e-05 0.000213130845768255 0.000320367090952206 0.00088152272091813 -5.92044475751315e-05 -0.000132838891495241 -1.80144277192374e-05 9.56169325396299e-05 8.5678292474109e-05 1.05161621945427e-05 -8.6796822004122e-05 2.57225772422861e-05
"253" -2.26942962189185e-05 0.000689858426034457 -3.48934782092914e-05 -1.48159044787218e-05 3.22414765467013e-05 0.000209454887505116 0.000307842886297517 0.000863691062561929 -6.38406869998984e-05 -0.000138843504947598 -2.30237397060228e-05 9.1661154661616e-05 8.62585878946112e-05 4.84806627011815e-06 -9.16638263459053e-05 1.94594797037655e-05
"254" -2.40243534538973e-05 0.000669663800938174 -4.00173348285177e-05 -1.44191563534113e-05 1.68701835840338e-05 0.000204931319375871 0.000294397427649796 0.000845488387296902 -6.86596939119834e-05 -0.000144698711424977 -2.82475530415047e-05 8.71532339700868e-05 8.54776363894778e-05 -5.0518105342176e-07 -9.65629629970527e-05 1.32700094958052e-05
"255" -2.52680599128954e-05 0.000649522277283955 -4.39564137170985e-05 -1.42614991351444e-05 2.89972328524937e-06 0.000199587301624462 0.000280120228411282 0.00082704253893809 -7.36441631777359e-05 -0.000150355824580157 -3.36652037280445e-05 8.21261631634954e-05 8.33415259877058e-05 -5.53325624669062e-06 -0.000101467367117854 7.19532972850652e-06
"256" -2.64543494156038e-05 0.000629527483667505 -4.67032105317341e-05 -1.43566113535964e-05 -9.61315320465441e-06 0.000193458055973479 0.000265091631052199 0.000808452263413653 -7.87712745043805e-05 -0.000155772813390154 -3.92499119697254e-05 7.66190422201771e-05 7.98620246236663e-05 -1.0219359900233e-05 -0.000106356136031153 1.26781449011615e-06
"257" -2.76195424588581e-05 0.000609794616857055 -4.82501781480657e-05 -1.47161662799825e-05 -2.06102949403763e-05 0.000186578145087157 0.000249413834447967 0.000789847079032606 -8.40313831789182e-05 -0.000160911243674249 -4.49791033319945e-05 7.06687071667003e-05 7.5065880595924e-05 -1.457200964012e-05 -0.000111209358449592 -4.4864417410251e-06
"258" -2.87877267006457e-05 0.000590424673527528 -4.85984037459305e-05 -1.53454091520834e-05 -3.00532498321914e-05 0.000178991186346028 0.000233187104940474 0.000771325025744096 -8.94011033318947e-05 -0.000165733923005687 -5.08222215545853e-05 6.43253390180113e-05 6.89955357154589e-05 -1.85828674830788e-05 -0.000116004019026881 -1.00270262945524e-05
"259" -2.99804482840724e-05 0.000571514047489698 -4.77676837258608e-05 -1.62479442967321e-05 -3.79190861044455e-05 0.000170745324848822 0.000216516049142374 0.000752986862844879 -9.48587654246711e-05 -0.000170198845128424 -5.67506366940428e-05 5.76364406788746e-05 6.16997129200644e-05 -2.22549488239305e-05 -0.000120710406607181 -1.53257298360002e-05
"260" -3.12258694146225e-05 0.000553150529601883 -4.5772997406069e-05 -1.74176087011685e-05 -4.41992370228479e-05 0.000161886676436187 0.000199510504017481 0.000734933905968586 -0.000100391995853497 -0.000174280438233831 -6.27431697532442e-05 5.06466311686465e-05 5.32344333622903e-05 -2.55984162468356e-05 -0.000125324025972022 -2.03604824821007e-05
"261" -3.25400551164401e-05 0.000535414076981478 -4.26585579797598e-05 -1.8858560623297e-05 -4.89015328668472e-05 0.000152461117577718 0.000182275340243527 0.000717237662277898 -0.000105977806049406 -0.000177951878823214 -6.87669891388645e-05 4.34062405365748e-05 4.36656088836499e-05 -2.86240587101108e-05 -0.000129814433765532 -2.51035755631229e-05
"262" -3.39344530735234e-05 0.000518381497481136 -3.84645445582095e-05 -2.05667147366619e-05 -5.20372853206818e-05 0.000142527810004699 0.000164920706078916 0.000699991301248734 -0.000111593858291148 -0.000181186063771589 -7.47927461519396e-05 3.59721625657975e-05 3.30793883067825e-05 -3.1343388348478e-05 -0.000134166190471596 -2.95329188942478e-05
"263" -3.54229852240174e-05 0.0005021215590318 -3.32327002144486e-05 -2.25265232162548e-05 -5.36325652639885e-05 0.000132145308723048 0.000147560664755998 0.000683262170268282 -0.000117218225670028 -0.00018396394721487 -8.07939794091952e-05 2.83965587782646e-05 2.15543376094149e-05 -3.37767184200101e-05 -0.000138361611059968 -3.36322245336462e-05
"264" -3.70153465203033e-05 0.000486685562668558 -2.70376515572914e-05 -2.47395688716343e-05 -5.37439705136552e-05 0.000121362401630769 0.000130296843722181 0.00066710321546533 -0.000122836291870659 -0.000186275937937853 -8.67432650395997e-05 2.07276846676858e-05 9.18664619902683e-06 -3.59444176796424e-05 -0.000142387031595247 -3.73875150650237e-05
"265" -3.87237644009184e-05 0.000472122669570872 -1.99462969717117e-05 -2.71884728638961e-05 -5.24225536583764e-05 0.000110231128744091 0.000113229813662919 0.000651570039608856 -0.000128427747103269 -0.000188106275778846 -9.2615491497574e-05 1.30156775320727e-05 -3.93176970816281e-06 -3.78685333341581e-05 -0.000146228550168112 -4.0789878582979e-05
"266" -4.05445831829622e-05 0.000458467480673267 -1.20282514702974e-05 -2.98654658286794e-05 -4.97278868216232e-05 9.88145166293711e-05 9.64582197447139e-05 0.000636701679851686 -0.000133964545988213 -0.000189450016013826 -9.83796316877238e-05 5.31968206977959e-06 -1.76903174104233e-05 -3.95695636561869e-05 -0.000149867668638999 -4.38277989722006e-05
"267" -4.24814250093869e-05 0.000445761871635992 -3.36945567858621e-06 -3.2749703440096e-05 -4.57438592977103e-05 8.71680766589307e-05 8.00887908507136e-05 0.000622539483959155 -0.000139436522376328 -0.000190307982713811 -0.000104018881730511 -2.32006060055068e-06 -3.19828292463299e-05 -4.10887857196465e-05 -0.000153300007936386 -4.65001701952861e-05
"268" -4.45328590396944e-05 0.000434013016159217 5.94047849062381e-06 -3.58299590880586e-05 -4.05533168051268e-05 7.53449186341675e-05 6.41936158247193e-05 0.000609096802129353 -0.000144817327866427 -0.000190684132282053 -0.000109501429181457 -9.84975679303708e-06 -4.67017037555938e-05 -4.24424891808172e-05 -0.000156514284881917 -4.88109470840688e-05
"269" -4.67017004627449e-05 0.000423229807008545 1.58070218227246e-05 -3.90895373373432e-05 -3.42528087861179e-05 6.33945024056911e-05 4.88617822929197e-05 0.000596390249896759 -0.000150092926416919 -0.000190583080730134 -0.000114812515647397 -1.72255389250823e-05 -6.17323581298057e-05 -4.36668713620159e-05 -0.00015950264697683 -5.07615433298628e-05
"270" -4.89803249892147e-05 0.000413413463757253 2.6134601442737e-05 -4.25117993425671e-05 -2.69444208106764e-05 5.1369192470198e-05 3.41619603118123e-05 0.000584418257542222 -0.000155242889030364 -0.000190022764945893 -0.000119927726292526 -2.44093132875936e-05 -7.69654389828052e-05 -4.47936674472546e-05 -0.000162258772953799 -5.23618578950925e-05
"271" -5.13536009244733e-05 0.000404550815724635 3.68241446989752e-05 -4.6077519215706e-05 -1.87266184763278e-05 3.93266048301034e-05 2.01701132085929e-05 0.000573186485938849 -0.000160242582142733 -0.000189008920101679 -0.00012482332885752 -3.13465434944756e-05 -9.2276401438814e-05 -4.58489335966604e-05 -0.000164773993444102 -5.36205490813783e-05
"272" -5.38321599635243e-05 0.000396624437119353 4.77616287517187e-05 -4.97701628182299e-05 -9.73201990814851e-06 2.73029485528268e-05 6.93226616254907e-06 0.000562663918411178 -0.000165086441767782 -0.000187573814793201 -0.000129490101549946 -3.8018400193475e-05 -0.000107565005671407 -4.6869042080286e-05 -0.000167053373252879 -5.45542794483975e-05
"273" -5.63984920444785e-05 0.000389605208689871 5.88544678100065e-05 -5.3569519455935e-05 -6.40013233380273e-08 1.5349456116785e-05 -5.49257977957026e-06 0.000552841659552378 -0.000169754337849383 -0.000185735040749357 -0.000133910547211766 -4.43806781546671e-05 -0.000122716116403197 -4.78867005320141e-05 -0.000169093419109608 -5.51839201639613e-05
"274" -5.90439593829618e-05 0.000383456260278664 6.99857122791001e-05 -5.74595232518427e-05 1.015597974892e-05 3.51017844171703e-06 -1.70686641451053e-05 0.000543683616675447 -0.000174230143924755 -0.000183525237847001 -0.000138067865816875 -5.04058927845583e-05 -0.00013762076649483 -4.89319535571139e-05 -0.000170891140109476 -5.55277336802806e-05
"275" -6.17653217598297e-05 0.000378139150292291 8.10640618069843e-05 -6.14137107456362e-05 2.08012740207404e-05 -8.17514089641859e-06 -2.77562820422673e-05 0.000535157808267275 -0.000178502587515558 -0.000180965947051382 -0.000141956444567091 -5.60609199596921e-05 -0.000152175647356054 -5.00359274558113e-05 -0.00017245353613246 -5.56080388528084e-05
"276" -6.45509343520061e-05 0.000373582386318691 9.19760078173815e-05 -6.54240156514119e-05 3.1749939764275e-05 -1.96713722002951e-05 -3.75470902551661e-05 0.000527209182103156 -0.000182557249642917 -0.000178095415860544 -0.00014556208861717 -6.13297543654719e-05 -0.000166283732382275 -5.12301531698299e-05 -0.000173785718484704 -5.54557977442109e-05
"277" -6.73927897529015e-05 0.000369748444181429 0.000102627511004873 -6.94638040768626e-05 4.28756058725957e-05 -3.09407315054854e-05 -4.64140372977613e-05 0.000519800077846431 -0.00018638313617392 -0.000174945239108355 -0.000148880365159713 -6.61865786356516e-05 -0.000179848400765401 -5.25350969181542e-05 -0.000174888305516739 -5.50925814533029e-05
"278" -7.0283147501754e-05 0.000366559114598779 0.000112920148234972 -7.35181784717898e-05 5.40607793642439e-05 -4.19477259525806e-05 -5.43537425147239e-05 0.00051286586395328 -0.000189968581023395 -0.000171553801064036 -0.000151901640534037 -7.06164513391005e-05 -0.000192779202087344 -5.39783680444044e-05 -0.000175772096639432 -5.45482369308314e-05
"279" -7.32143425801354e-05 0.000363955223246741 0.000122767485625134 -7.75648491698401e-05 6.51831061380421e-05 -5.26606837027854e-05 -6.13687042791746e-05 0.000506356547091923 -0.000193306509872573 -0.000167955003998357 -0.000154624931464627 -7.46008522722512e-05 -0.000204993537974364 -5.55824451979138e-05 -0.000176440782955267 -5.38512123923553e-05
"280" -7.61789625821893e-05 0.00036185625164577 0.000132073845178511 -8.15877622742065e-05 7.61296405113798e-05 -6.30477208573246e-05 -6.74689604327981e-05 0.000500206665789793 -0.000196390702809339 -0.000164193154342897 -0.000157046713488203 -7.81312959519572e-05 -0.000216414446389841 -5.7372050460185e-05 -0.00017690747568599 -5.30362980044282e-05
"281" -7.91746533729692e-05 0.000360191443641592 0.000140764326233529 -8.5566549862756e-05 8.67779816555024e-05 -7.30848641087157e-05 -7.26677428682526e-05 0.000494351730994462 -0.000199210075441846 -0.000160304849329719 -0.000159169629390466 -8.12001608235965e-05 -0.000226975094462657 -5.9358673506098e-05 -0.000177178657726588 -5.21290506771108e-05
"282" -8.21880505565865e-05 0.00035887647037676 0.000148763772686474 -8.94871077288331e-05 9.70290772367197e-05 -8.27429100777041e-05 -7.69939387920724e-05 0.000488724060410891 -0.000201761803972298 -0.000156322924084939 -0.000160987223681914 -8.37944743936928e-05 -0.000236605857007955 -6.15592667999381e-05 -0.000177265345893838 -5.11599261963203e-05
"283" -8.52229082412756e-05 0.000357831455669135 0.000156010051938435 -9.33274490014917e-05 0.000106771640689961 -9.19970158522014e-05 -8.04747435838162e-05 0.000483261391523372 -0.000204044234765919 -0.000152293184955256 -0.000162511183025002 -8.59174276428523e-05 -0.000245255758471609 -6.39876331931535e-05 -0.000177183021438382 -5.01609739815795e-05
"284" -8.82726092756416e-05 0.000356980870918665 0.000162437930019024 -9.7071379563297e-05 0.000115917791943835 -0.000100824521994612 -8.31503895806523e-05 0.000477893504638376 -0.000206049057833755 -0.000148251014811292 -0.000163740922414648 -8.75650716062722e-05 -0.000252877115821106 -6.66446942054154e-05 -0.000176936578557873 -4.91562724928899e-05
"285" -9.13243712981987e-05 0.000356238144818336 0.000168003698740848 -0.000100702727409575 0.000124377637477353 -0.00010919532305233 -8.5056132311939e-05 0.000472560163324827 -0.000207775481169953 -0.000144230415206907 -0.000164679274259191 -8.87342593623629e-05 -0.000259419705687861 -6.95393215808799e-05 -0.000176541508065344 -4.81748970571267e-05
"286" -9.43908431027504e-05 0.000355532228829752 0.000172668316225101 -0.000104204887285892 0.000132062196861065 -0.000117098804734213 -8.62418700981418e-05 0.000467193043980387 -0.000209232456001186 -0.000140273358582567 -0.00016534020288955 -8.94352040373433e-05 -0.000264858669769993 -7.26754478332878e-05 -0.000176011621952781 -4.72431071788631e-05
"287" -9.74564032251989e-05 0.000354774297245937 0.000176395001950845 -0.000107555611591274 0.000138903281331645 -0.000124504352405626 -8.67545343159312e-05 0.000461730850929132 -0.000210405938287491 -0.000136400348053319 -0.000165722068007971 -8.96597077138847e-05 -0.000269159760420197 -7.60404369953895e-05 -0.000175353420126524 -4.63792066623658e-05
"288" -0.000100526076049876 0.000353900405849246 0.000179165667891601 -0.000110744101509381 0.000144835493478622 -0.000131396159974508 -8.66509167853507e-05 0.000456123888038062 -0.000211307150995279 -0.000132654686802641 -0.000165837693553628 -8.94197985752045e-05 -0.000272310523937919 -7.96374300974586e-05 -0.000174585554317415 -4.56096700254981e-05
"289" -0.000103590278652982 0.000352835786303546 0.000180970115847523 -0.000113755408893178 0.000149799970832658 -0.00013775237420433 -8.59823465805293e-05 0.000450309363030353 -0.000211933642031884 -0.000129052985480296 -0.000165694863667672 -8.87210652412017e-05 -0.0002742928474631 -8.34515667295714e-05 -0.00017371046865548 -4.49467984698185e-05
"290" -0.000106653934208283 0.000351505334097299 0.000181798325995184 -0.000116574015443516 0.000153751358679385 -0.000143563177195263 -8.4817491015828e-05 0.000444231000719501 -0.000212289181463647 -0.000125628443617758 -0.000165301311309896 -8.75710399064402e-05 -0.00027510723368627 -8.74748606067945e-05 -0.000172748070293166 -4.44133380009853e-05
"291" -0.000109719506142901 0.000349861341153097 0.000181660801358476 -0.000119186578483225 0.000156652349546987 -0.000148803189730139 -8.32056985619405e-05 0.000437858095726876 -0.000212383930048096 -0.000122402906299059 -0.000164671929820186 -8.59802572426654e-05 -0.000274756150623408 -9.1690065846127e-05 -0.000171705716741872 -4.40159802621922e-05
"292" -0.000112777146581367 0.000347848905998678 0.000180577114446735 -0.000121571874700098 0.000158474382585405 -0.000153459566127061 -8.12085382888494e-05 0.000431146568986741 -0.000212224200720359 -0.000119395914044889 -0.000163816641498216 -8.39565684135417e-05 -0.000273248603271009 -9.60778298035534e-05 -0.000170595660737249 -4.37691233874245e-05
"293" -0.00011582400485766 0.000345404183100219 0.0001785714351345 -0.000123727356791464 0.00015920209077711 -0.00015751704881155 -7.88937388184606e-05 0.000424064379955998 -0.000211806795207057 -0.00011661568524853 -0.000162740476630337 -8.15068586131646e-05 -0.000270597591192219 -0.000100615205663463 -0.000169423115146983 -4.36726359076479e-05
"294" -0.000118861500937134 0.000342505112662323 0.000175674893336869 -0.000125635858021456 0.000158824517808384 -0.000160964817428375 -7.63134156796396e-05 0.000416584294881534 -0.000211150046608065 -0.000114085094714507 -0.000161459973615414 -7.86489551584466e-05 -0.000266829093950901 -0.000105284819670967 -0.000168202657989858 -4.37359824738912e-05
"295" -0.00012188992556336 0.000339101794775543 0.000171928319865906 -0.000127287969535961 0.000157338394152956 -0.000163791824373916 -7.35382678899757e-05 0.00040868021227535 -0.000210263315991225 -0.000111811092815668 -0.000159990325618537 -7.539643908548e-05 -0.000261984238955305 -0.000110060759342153 -0.000166943743607353 -4.39627040192505e-05
"296" -0.000124897428575954 0.000335177797307145 0.000167386418364091 -0.000128674203190411 0.000154764473310161 -0.000165982280874555 -7.0611556855163e-05 0.000400352216001497 -0.000209151201950663 -0.000109797169723414 -0.000158337864361789 -7.1758611357492e-05 -0.000256085398027119 -0.000114914360831508 -0.000165652216898647 -4.43448627696811e-05
"297" -0.000127884885832224 0.00033071360405447 0.000162102349115755 -0.000129784574074473 0.00015111668628648 -0.000167538367828369 -6.76030054384283e-05 0.000391585003104098 -0.000207832397625283 -0.000108045241316942 -0.000156516358186093 -6.77534568368228e-05 -0.000249187466406078 -0.000119821192104096 -0.000164337113501413 -4.4881607734404e-05
"298" -0.000130842782116103 0.000325692889267225 0.000156143046875921 -0.000130612917612248 0.000146428337109865 -0.000168450735525535 -6.4567488213002e-05 0.000382379962862106 -0.000206311120209646 -0.000106555019850463 -0.000154538325018232 -6.33924883833215e-05 -0.000241338903668009 -0.000124749596320826 -0.000163004625629088 -4.55627125285603e-05
"299" -0.000133767910338272 0.000320122447466007 0.000149578519600947 -0.000131153385339003 0.000140736755813781 -0.000168713853748394 -6.15467351360948e-05 0.000372751233510946 -0.000204609370484035 -0.000105324061622916 -0.000152416806924332 -5.86986141916167e-05 -0.000232595953126777 -0.000129668911072046 -0.000161660325321145 -4.63796773806901e-05
"300" -0.000136648371962777 0.000314003927506123 0.000142482930365729 -0.000131404536857851 0.000134086782376035 -0.000168330607204434 -5.85945831229612e-05 0.000362713222759373 -0.000202733286522737 -0.00010433828277922 -0.00015015998845824 -5.36846768077567e-05 -0.000223018641011326 -0.000134548608017048 -0.000160307658827989 -4.73150521674025e-05
"301" -0.000139476781521651 0.000307360299368189 0.00013493923586817 -0.000131356134475484 0.000126539635771818 -0.00016730478271305 -5.57522111938026e-05 0.000352289629050555 -0.000200706008954221 -0.000103595690736912 -0.000147788302904283 -4.83712484846513e-05 -0.000212682953540855 -0.000139366383200436 -0.000158955774962831 -4.83634301828437e-05
"302" -0.00014223995553512 0.000300208305266916 0.000127025921844909 -0.000131015750256088 0.000118153132354133 -0.000165641130626104 -5.30621314978593e-05 0.000341513915972937 -0.000198539397872463 -0.000103070969784285 -0.000145306843158058 -4.27771746442273e-05 -0.000201653117112615 -0.000144087919067719 -0.000157606061428752 -4.95004132283392e-05
"303" -0.000144938566989122 0.000292586391053675 0.000118823384920829 -0.000130379872612469 0.000108988534698806 -0.000163357427758475 -5.05664379656104e-05 0.000330413738625506 -0.000196258536197059 -0.000102762988306214 -0.000142735248916764 -3.69314877694075e-05 -0.000190022258834718 -0.000148687501367273 -0.000156266952371788 -5.07140379779764e-05
"304" -0.000147540557042942 0.000284529134107038 0.000110433976231821 -0.000129450917982365 9.91334014759609e-05 -0.000160459223994456 -4.8284556906921e-05 0.00031904089227029 -0.000193870966797093 -0.000102638761281945 -0.000140077722297392 -3.08473484745315e-05 -0.00017785928185037 -0.000153132590353189 -0.000154932837463248 -5.19774702223098e-05
"305" -0.000150040610513062 0.000276087406100657 0.000101936770088252 -0.000128232372739297 8.86608018984075e-05 -0.000156963766847275 -4.62547026077621e-05 0.000307446140200547 -0.000191397310988598 -0.000102679806807633 -0.000137348469682533 -2.45481004898239e-05 -0.000165256837099293 -0.000157398254659223 -0.000153607334305542 -5.32749902230959e-05
"306" -0.000152427786400706 0.000267312112885789 9.34195607482641e-05 -0.000126733884092823 7.76571647546998e-05 -0.00015290297421263 -4.44981351415332e-05 0.000295678449283208 -0.000188863909031098 -0.000102869578386551 -0.000134566022946064 -1.80706322970559e-05 -0.000152313696000595 -0.000161463550358364 -0.000152295850193407 -5.45833285028815e-05
"307" -0.000154674119685195 0.000258264157297914 8.49752559661951e-05 -0.00012496109828046 6.62136636538773e-05 -0.000148289722272297 -4.30252072721704e-05 0.000283801386463457 -0.000186276312667957 -0.000103174520959628 -0.000131733415944752 -1.14276507375219e-05 -0.000139113393367022 -0.0001653053224553 -0.000150995506369597 -5.58823638000071e-05
"308" -0.000156771041902017 0.000249010366113127 7.66856023672758e-05 -0.000122922038453544 5.44188163700878e-05 -0.000143162323338552 -4.18566925549753e-05 0.00027187332858965 -0.000183668925436685 -0.000103573019354223 -0.000128867719195081 -4.65485064697416e-06 -0.000125759832171977 -0.000168898106836645 -0.000149705037589594 -5.71469872039059e-05
"309" -0.000158692505897502 0.000239614162253145 6.86387516739034e-05 -0.000120630754868326 4.23676427968003e-05 -0.000137549163172053 -4.09982762468367e-05 0.000259970430797134 -0.00018104862971229 -0.000104033943223036 -0.00012597627795759 2.227722641333e-06 -0.000112350025903325 -0.000172225508854704 -0.000148420465559229 -5.83563922594841e-05
"310" -0.000160420040455992 0.000230149102663239 6.09161111318652e-05 -0.000118102639193351 3.01603735449453e-05 -0.00013149036318734 -4.04562901627658e-05 0.000248154705495962 -0.000178434776284469 -0.000104525026916614 -0.000123071016605347 9.18408549940158e-06 -9.8978372287885e-05 -0.000175270730272122 -0.000147141324837102 -5.94898531834153e-05
"311" -0.00016193319880927 0.000220700003159557 5.35896606740358e-05 -0.000115347125876341 1.78903079847765e-05 -0.000125022546020395 -4.02258318971027e-05 0.000236506837988845 -0.000175851226120617 -0.000105026244998123 -0.000120162777417936 1.61907354273326e-05 -8.57504580795374e-05 -0.000178014997421784 -0.000145861520978312 -6.05207055438329e-05
"312" -0.000163210242433094 0.000211335967613589 4.67332873249338e-05 -0.000112389660319072 5.64822447562605e-06 -0.000118194017021409 -4.03001386272822e-05 0.000225092156433047 -0.00017330619353295 -0.000105500278632705 -0.000117259646849535 2.32142035509789e-05 -7.27597564491495e-05 -0.000180448477090207 -0.000144577631840106 -6.14354964787493e-05
"313" -0.000164228263560199 0.000202133586599097 4.04173355666158e-05 -0.000109239542623608 -6.46202893405129e-06 -0.000111050796357118 -4.06766916359608e-05 0.000213987572285347 -0.000170821066397968 -0.00010592055522239 -0.00011437178357508 3.02234224417486e-05 -6.01081609994415e-05 -0.000182558347270754 -0.00014328263569495 -6.22118358851537e-05
"314" -0.000164965234717905 0.00019317561295425 3.46995331145021e-05 -0.000105925954939113 -1.83524533244184e-05 -0.000103641453988904 -4.1334526716755e-05 0.000203270308216694 -0.000168407985981497 -0.000106256978290632 -0.00011150584204909 3.71911244143341e-05 -4.78876596345376e-05 -0.000184342460879043 -0.000141971054816429 -6.28316508137153e-05
"315" -0.000165398123862257 0.000184540165245208 2.96384011273623e-05 -0.000102464028004893 -2.99323007791507e-05 -9.60180574848049e-05 -4.22614301870169e-05 0.000193009958305297 -0.000166080311060675 -0.000106482714515424 -0.00010867332984881 4.40852905860069e-05 -3.61866562775242e-05 -0.000185788922241285 -0.000140634587540518 -6.32796701541189e-05
"316" -0.000165503304131864 0.000176300936318338 2.52834645062602e-05 -9.88764412279261e-05 -4.11119328234927e-05 -8.82319178774254e-05 -4.34324807256618e-05 0.000183281462646642 -0.00016384986108713 -0.00010656997733126 -0.000105877760124439 5.08783379075053e-05 -2.50953274101368e-05 -0.000186897129484889 -0.000139263044546909 -6.35404597666109e-05
"317" -0.000165260283206009 0.000168525074580218 2.16735055077251e-05 -9.51863511291605e-05 -5.18072661081135e-05 -8.03410848377465e-05 -4.48303475837805e-05 0.000174142340271195 -0.000161722409927081 -0.000106487675727279 -0.000103126493660159 5.75399853916025e-05 -1.46948344488773e-05 -0.000187662732956433 -0.000137847857146884 -6.36038484507263e-05
"318" -0.00016465119935319 0.000161288556868904 1.88404729272537e-05 -9.14242465630214e-05 -6.19453662387005e-05 -7.24059777172112e-05 -4.64226628761011e-05 0.000165667806013514 -0.000159710397945944 -0.000106220565680307 -0.000100428260371431 6.40412945650737e-05 -5.06175522072602e-06 -0.000188084380983657 -0.000136378816913658 -6.34578662389161e-05
"319" -0.000163649554445041 0.000154652134042309 1.68191627800723e-05 -8.76083308712446e-05 -7.14528198778206e-05 -6.44787099343721e-05 -4.81827808134134e-05 0.000157908870535118 -0.000157817593359676 -0.00010574273035652 -9.77838292843338e-05 7.03512859384821e-05 3.73704537447182e-06 -0.000188174078358733 -0.000134847102762455 -6.30958176127978e-05
"320" -0.000162238036515921 0.000148675113728548 1.56262228522701e-05 -8.37678028916586e-05 -8.02542199168236e-05 -5.66146272098027e-05 -5.00826215727268e-05 0.000150927886528338 -0.000156041056553242 -0.000105029050343019 -9.51962001966604e-05 7.64511949749547e-05 1.16407832194269e-05 -0.000187920587710851 -0.000133233613489832 -6.25090458231036e-05
"321" -0.000160401457557173 0.000143409950778991 1.52721226583708e-05 -7.99249157587104e-05 -8.83036077142786e-05 -4.88765112240782e-05 -5.20883994783449e-05 0.000144766035313296 -0.000154396079327691 -0.000104071777269545 -9.26752696433153e-05 8.23046324160452e-05 1.85896883060669e-05 -0.000187346851413193 -0.000131538051334137 -6.17014993586568e-05
"322" -0.000158118489439101 0.000138895597823616 1.57666388010112e-05 -7.61117458009498e-05 -9.55313181340554e-05 -4.13119025554386e-05 -5.41697094575553e-05 0.000139468123855351 -0.000152866150354995 -0.000102844507457735 -9.02174585307389e-05 8.78998578418536e-05 2.45442263923594e-05 -0.000186451452117235 -0.000129738928617047 -6.06683217700367e-05
"323" -0.000155371025135596 0.000135176757401567 1.71026653405022e-05 -7.23497665188658e-05 -0.000101891616411049 -3.39756318243463e-05 -5.62905460729364e-05 0.000135074836337127 -0.000151454919306918 -0.000101335258819895 -8.78235877378864e-05 9.32126783783775e-05 2.94709749164531e-05 -0.000185235722122222 -0.000127823204168575 -5.94072673414417e-05
"324" -0.000152157615386697 0.000132282626776169 1.92706324577954e-05 -6.86668009627505e-05 -0.000107358394872517 -2.69266624467656e-05 -5.8421075898609e-05 0.000131605562172019 -0.000150160489018789 -9.95413550127927e-05 -8.54993775170555e-05 9.8216564498799e-05 3.33337505325037e-05 -0.000183726181950659 -0.000125785034354845 -5.79306530216779e-05
"325" -0.000148458406991604 0.000130231680123823 2.22635319256598e-05 -6.50853171907724e-05 -0.000111886040029852 -2.02027787414476e-05 -6.05271858415814e-05 0.000129082423512376 -0.000148969709188535 -9.74498427993081e-05 -8.32435097202558e-05 0.00010289890756083 3.61234267836885e-05 -0.000181921604140094 -0.000123606950396742 -5.62398253924678e-05
"326" -0.00014426744425269 0.000129039898744373 2.6045160223836e-05 -6.16344744463812e-05 -0.00011545898855279 -1.38578649768116e-05 -6.25774712387036e-05 0.000127519437905474 -0.00014787693385285 -9.50574759467319e-05 -8.10546565544643e-05 0.000107244526354234 3.78306608738651e-05 -0.00017983907693954 -0.000121279865568379 -5.43474735654673e-05
"327" -0.000139580463287998 0.000128710877795623 3.05965504746486e-05 -5.83321250588804e-05 -0.000118058393060574 -7.9331677682468e-06 -6.45410023452246e-05 0.000126918249965963 -0.000146874582730232 -9.23657895293745e-05 -7.89302717913968e-05 0.000111237134640505 3.84544335437643e-05 -0.000177486093445558 -0.000118789074493031 -5.22600006657081e-05
"328" -0.000134390732443048 0.000129238548040932 3.58808039349316e-05 -5.52039721910534e-05 -0.000119670896829864 -2.46285532624707e-06 -6.63928262905857e-05 0.000127271640221713 -0.00014594246277218 -8.93734189549216e-05 -7.6874137559295e-05 0.000114867668010817 3.80071090549297e-05 -0.00017488463960246 -0.000116126145383143 -4.99987087767918e-05
"329" -0.000128703792821275 0.00013060672370552 4.18501207423517e-05 -5.2275429473292e-05 -0.000120306656923145 2.51039762284501e-06 -6.81009627600687e-05 0.000128558781182975 -0.000145072126300979 -8.6088949268991e-05 -7.48774885453357e-05 0.00011812522975343 3.65122185783845e-05 -0.000172039183575098 -0.000113279532956349 -4.75720586047824e-05
"330" -0.000122511745353093 0.000132791651837584 4.84725871881979e-05 -4.95575477531567e-05 -0.000119962552951859 6.96486618800904e-06 -6.96433861547438e-05 0.000130769863362061 -0.000144243903312637 -8.25131321778645e-05 -7.29399270185951e-05 0.000121008155781776 3.39993384338542e-05 -0.000168965721548505 -0.000110239765807086 -4.49990444549404e-05
"331" -0.000115820198667543 0.000135769383788572 5.56922719442118e-05 -4.70736429157541e-05 -0.000118651162369019 1.08767558782229e-05 -7.09937053480721e-05 0.000133867896097929 -0.00014344349652398 -7.86561494701308e-05 -7.10549818441031e-05 0.000123510765145431 3.05057639194509e-05 -0.000165679425261152 -0.000106994017471553 -4.22975157496574e-05
"332" -0.000108644774723948 0.000139496039957018 6.34579361885719e-05 -4.48426889697506e-05 -0.000116405934413763 1.42144241070588e-05 -7.21368131219342e-05 0.000137809230644459 -0.000142652217997623 -7.4536719351022e-05 -6.92261629020824e-05 0.000125626854576293 2.60761550432624e-05 -0.000162191894646294 -0.000103543048827265 -3.94897438131024e-05
"333" -0.000100988908556137 0.000143916145421313 7.17170852362406e-05 -4.28717962779541e-05 -0.0001132493319663 1.69692034862767e-05 -7.30547011907911e-05 0.000142546467514188 -0.000141855178316071 -7.016891576922e-05 -6.74448205056292e-05 0.000127362125000565 2.0761447958336e-05 -0.000158521037414008 -9.98749265015012e-05 -3.65957058745488e-05
"334" -9.2863520002632e-05 0.000148982342898886 8.04085223048237e-05 -4.11822469076341e-05 -0.00010921196111254 1.9130574319433e-05 -7.37355949065146e-05 0.000148025193322862 -0.000141026917514201 -6.55640284777463e-05 -6.57029944831991e-05 0.00012871781043661 1.46273962079757e-05 -0.000154673552204756 -9.59858318340376e-05 -3.36344890494039e-05
"335" -8.42893391111187e-05 0.000154632399014189 8.94700850315311e-05 -3.97781828210192e-05 -0.000104342922891262 2.0690179096474e-05 -7.41615398839665e-05 0.00015418507532948 -0.000140152238756114 -6.07469247171007e-05 -6.40035359487454e-05 0.000129697088587071 7.73335939120387e-06 -0.000150667455618353 -9.18749043632059e-05 -3.06341764773252e-05
"336" -7.52793937241673e-05 0.000160799193700444 9.88484091376162e-05 -3.86703310321055e-05 -9.86815421313497e-05 2.16466708180035e-05 -7.43319919004148e-05 0.000160955110268122 -0.000139214803116419 -5.57390001673937e-05 -6.23363397656483e-05 0.000130308328977048 1.53784655986815e-07 -0.000146515126426 -8.75387026743586e-05 -2.76138250276056e-05
"337" -6.5851357223019e-05 0.000167412049305296 0.000108477123138133 -3.78654021382716e-05 -9.22763320160418e-05 2.20103028684274e-05 -7.42370909322388e-05 0.000168270156151039 -0.000138186870511781 -5.0560426164593e-05 -6.06973996653313e-05 0.000130562962209255 -8.03476210818057e-06 -0.000142224221965007 -8.29745988303344e-05 -2.45946980520377e-05
"338" -5.60389634974645e-05 0.000174381806914506 0.00011829503800319 -3.73691282075763e-05 -8.51956606135055e-05 2.17748777103315e-05 -7.3883848406745e-05 0.000176034163969826 -0.000137059299404192 -4.52419130100377e-05 -5.908694710039e-05 0.000130462413826118 -1.67665490942988e-05 -0.000137811860675919 -7.8192873799203e-05 -2.16059073329791e-05
"339" -4.58503433174984e-05 0.000181627972039764 0.000128244677064173 -3.71782031238179e-05 -7.74892137504491e-05 2.0969968148473e-05 -7.32675572528941e-05 0.000184171066673369 -0.000135801753403313 -3.97964982938392e-05 -5.7490759782439e-05 0.000130030142924012 -2.59519787964342e-05 -0.000133279392587468 -7.31869477575072e-05 -1.86650294088696e-05
"340" -3.53225491259805e-05 0.00018907544391152 0.000138262792802772 -3.72950052752717e-05 -6.92246695073963e-05 1.95987069767264e-05 -7.23959794628949e-05 0.000192594349456186 -0.000134406481332384 -3.42670086968157e-05 -5.59101733292714e-05 0.000129271492140694 -3.55106293990353e-05 -0.000128642069511689 -6.79669565018736e-05 -1.57949601635045e-05
"341" -2.44779188335835e-05 0.000196632256319186 0.000148294488100025 -3.7716737121041e-05 -6.04668183323669e-05 1.76928029917744e-05 -7.1278746401599e-05 0.000201211181413621 -0.000132850812707391 -2.86659127542296e-05 -5.43387905407324e-05 0.000128204947042418 -4.53662535378354e-05 -0.000123910141151871 -6.25409438286979e-05 -1.30184350576402e-05
"342" -1.33470847042281e-05 0.000204210229311373 0.000158283611989209 -3.84384170833195e-05 -5.12777119700275e-05 1.52711560439339e-05 -6.99210925586745e-05 0.000209933642230327 -0.000131120695937862 -2.30284498330522e-05 -5.27721465821101e-05 0.000126846255647224 -5.54281055019731e-05 -0.000119090301577316 -5.69118897614834e-05 -1.03527538350605e-05
"343" -1.95745864062779e-06 0.000211720769858747 0.000168170364671545 -3.94561139930496e-05 -4.17333908424637e-05 1.23633782915118e-05 -6.83387521912654e-05 0.000218667527697348 -0.00012919513987444 -1.73832608784971e-05 -5.1201346668441e-05 0.000125209198696668 -6.56223165024492e-05 -0.000114192570570948 -5.1096087661163e-05 -7.82124890916348e-06
