"V1" "V2" "V4" "V5" "V7" "V8" "V10" "V11" "V13" "V14" "V15" "V17" "V18" "V20" "V21" "V23"
"1" -0.000643539538666286 0.00157087179577727 -0.00171662521328549 0.00154891287315927 -0.00168168799245758 -0.000865137980082001 6.85220344493312e-05 -0.000639743745895903 -0.000881510463046335 -0.000608086914504418 0.000664662380781232 2.72223623155123e-05 -0.00021669217222845 0.000850323911942006 0.000723549066776544 -7.07174697990944e-05
"2" -0.000649912832042928 0.00159446127583021 -0.00166777046961054 0.00158243621356258 -0.00168473552892882 -0.000860697290436995 0.000128157607950983 -0.000620366664117923 -0.000862312118011814 -0.000573636903561416 0.000649333563748878 7.62689024624602e-06 -0.000243297134904801 0.000820686079565611 0.000714712618832059 -8.76457713625117e-05
"3" -0.000656399279755265 0.00161197403963699 -0.00161583715583152 0.00160641644875008 -0.00168579036543753 -0.000856453448169738 0.000189572632258131 -0.00059993082503104 -0.000843096322128305 -0.000539173492864297 0.000630480747280922 -1.40284139250924e-05 -0.000271099375797477 0.000788381689164364 0.000703053072187678 -0.000105084406676807
"4" -0.000662796453971073 0.00162303906542029 -0.00156093384600331 0.00161993936591336 -0.00168471956174612 -0.000852285928247393 0.000252588298524163 -0.000578480733518131 -0.000823894987466631 -0.000504821800632796 0.000608178825472435 -3.7502108477394e-05 -0.000299859116143124 0.000753520129653987 0.000688639629973766 -0.000122897095582634
"5" -0.000668896427400464 0.00162735573158559 -0.00150318510091661 0.00162214268397095 -0.00168141118650186 -0.000848069807557957 0.000317016973814294 -0.000556062447630106 -0.000804742097746377 -0.00047069954276863 0.000582535035536449 -6.2529949253074e-05 -0.000329326519555448 0.000716223553158906 0.000671564891614238 -0.000140945305305857
"6" -0.000674483755172099 0.00162467525157623 -0.00144274978558557 0.00161220678978251 -0.00167576565617142 -0.000843675796303357 0.000382636493323835 -0.000532743179880047 -0.000785671902015455 -0.000436933063426302 0.000553684599229127 -8.8842573033359e-05 -0.000359243879172722 0.000676642888383194 0.000651949816575286 -0.000159082894807397
"7" -0.000679353400498116 0.00161482154854326 -0.00137980920066447 0.00158936115849534 -0.00166768944524274 -0.000838967723781815 0.00044922485248471 -0.000508597472145385 -0.000766726160882989 -0.000403649565115782 0.000521796590387619 -0.000116141760245312 -0.000389355374207011 0.000634944657022996 0.000629938481583275 -0.000177160361355726
"8" -0.000683292754271984 0.00159769505366991 -0.00131457354160637 0.00155292710885371 -0.00165710643176535 -0.000833818494094866 0.000516527769005034 -0.00048370573430178 -0.000747949046839102 -0.000370969658846098 0.000487066751125847 -0.000144129298191344 -0.000419387546804081 0.000591319580459999 0.00060570766093275 -0.00019502990572726
"9" -0.000686104289998597 0.00157326337013307 -0.00124727357356956 0.00150231102665426 -0.00164395313734213 -0.000828097920094653 0.000584295318627479 -0.000458167362723944 -0.000729382679678211 -0.000339017983091639 0.00044971390425661 -0.00017248894301593 -0.000449075876517467 0.000545971856884297 0.000579441737653234 -0.000212544566480054
"10" -0.00068759156814229 0.00154156806784943 -0.00117816985488625 0.00143704599470945 -0.0016281757231622 -0.000821679797796818 0.000652238794908807 -0.000432079934747917 -0.000711083906630242 -0.000307917106158728 0.000409977419306707 -0.000200906002502137 -0.000478163151963871 0.000499116697317175 0.000551349421424301 -0.000229552675215328
"11" -0.000687574152382802 0.00150273256146817 -0.00110753631141189 0.00135684490096872 -0.001609739861097 -0.00081445088113821 0.000720077680981365 -0.000405560488792791 -0.000693102200226642 -0.00027778455289398 0.000368123550167102 -0.000229066488209062 -0.000506384625568566 0.000450993295831941 0.00052166400834532 -0.000245910751885055
"12" -0.00068587372323803 0.00145694563823345 -0.00103567092886264 0.0012616171415802 -0.00158862021743735 -0.000806298841696027 0.000787505695471319 -0.00037872509367045 -0.000675499980212512 -0.000248740718504627 0.000324421873804742 -0.000256651527301315 -0.000533488038016808 0.000401840038568302 0.000490614919752587 -0.000261478303686896
"13" -0.000682340955579185 0.00140447941452197 -0.000962886029236035 0.00115151850267937 -0.00156480345196126 -0.000797127218983119 0.000854222997532643 -0.000351698822047557 -0.000658332728041775 -0.000220891040847838 0.000279173771115417 -0.000283352175215098 -0.000559227752262041 0.000351916002194006 0.000458458723213351 -0.000276112214821058
"14" -0.000676829547413345 0.00134565551943205 -0.000889507884728596 0.00102693900058861 -0.00153829506616123 -0.000786845551465656 0.000919912486206777 -0.000324614156526549 -0.000641667168745678 -0.000194340339434717 0.000232670057915167 -0.000308867456948225 -0.000583372308267006 0.000301475934314659 0.000425450095340561 -0.000289686155263013
"15" -0.000669221589000405 0.00128086412820498 -0.000815878646376764 0.000888538040723146 -0.00150911051689139 -0.000775383384535615 0.000984253981807335 -0.000297604512709047 -0.000625570086895712 -0.000169190441161079 0.000185218430855914 -0.000332902613237042 -0.000605699095408395 0.000250789818761188 0.00039185588746648 -0.000302072732169936
"16" -0.000659411403184031 0.00121055221063132 -0.0007423328639593 0.000737230381921728 -0.00147727729677813 -0.000762680554043669 0.00104693283695933 -0.000270808778495074 -0.000610108843566378 -0.000145527969081925 0.000137130484208648 -0.000355179340107901 -0.000626000349113699 0.000200121367913154 0.000357932647275422 -0.000313152139016505
"17" -0.000647317477428198 0.00113520273088604 -0.000669230228637925 0.000574142973326881 -0.00144283974513445 -0.000748689797248952 0.0011076294951449 -0.000244367521382998 -0.000595351010711894 -0.000123439830195808 8.8716128580156e-05 -0.00037543927642928 -0.000644087576395058 0.000149737179978806 0.00032394792151303 -0.000322819198697591
"18" -0.000632882938897461 0.00105535035292251 -0.000596911722377974 0.000400615643817259 -0.00140585230314704 -0.000733384135426834 0.00116604062781086 -0.000218418803360087 -0.00058136975793252 -0.000102991596067221 4.02740879088238e-05 -0.000393436333460181 -0.000659784252863787 9.99043253839191e-05 0.000290162595878042 -0.000330973852444937
"19" -0.000616060700560215 0.000971549966554099 -0.000525725501740619 0.000218145943742686 -0.00136638859002915 -0.000716749252912804 0.00122186226899752 -0.000193103368876387 -0.000568230744718731 -8.42508530274277e-05 -7.89406181633548e-06 -0.000408947647267388 -0.000672934037654071 5.08770912818579e-05 0.000256819454110028 -0.000337530378898033
"20" -0.000596845158779383 0.00088438424959223 -0.000456012315001363 2.83321234856097e-05 -0.0013245300298484 -0.000698792570734605 0.00127480538362475 -0.000168558069195282 -0.000556005687222214 -6.72655558224606e-05 -5.5501319157074e-05 -0.000421772199583856 -0.000683401776785706 2.90869335565738e-06 0.000224166609778766 -0.00034241201295829
"21" -0.000575239295927232 0.000794445770196643 -0.000388097932148247 -0.000167156839618413 -0.00128037751941813 -0.000679530819566879 0.00132459777120857 -0.000144917109427933 -0.00054476216614502 -5.20780689181559e-05 -0.000102274440769221 -0.000431735423553323 -0.000691076586476825 -4.37577695571066e-05 0.000192428443021863 -0.000345557391354916
"22" -0.000551276292088462 0.000702333572658128 -0.000322292519017087 -0.000366629986007998 -0.00123404008313918 -0.000659002745239632 0.00137098698690227 -0.000122308739482436 -0.000534561686122818 -3.87119667724635e-05 -0.000147958910715314 -0.000438683016539873 -0.0006958665729311 -8.889843696213e-05 0.000161817024686714 -0.000346919799378599
"23" -0.000525008670081744 0.00060864976567732 -0.000258893679696867 -0.000568410566868369 -0.00118564712314811 -0.000637262019108834 0.00141373122415473 -0.000100854823476769 -0.000525465119397607 -2.7186530594282e-05 -0.00019230639775791 -0.000442500323436264 -0.000697701936890468 -0.000132296697340932 0.000132525490988023 -0.000346465040436462
"24" -0.000496517496821763 0.000513979519216662 -0.000198171616409903 -0.00077087706115514 -0.00113533655584244 -0.000614375519053733 0.00145263004006736 -8.06758545589926e-05 -0.000517527145888804 -1.74987674806485e-05 -0.000235105989498993 -0.000443089625864476 -0.000696541544673169 -0.000173760448816709 0.000104725630601803 -0.000344177475169276
"25" -0.00046590092115592 0.00041889781208532 -0.000140373380934104 -0.000972478790320932 -0.00108326357064286 -0.00059042697978921 0.00148749380113234 -6.18759623518021e-05 -0.000510796831638019 -9.64202420456547e-06 -0.000276155883104682 -0.000440390296169848 -0.000692365422645612 -0.000213109177164961 7.85682301870381e-05 -0.000340052419057611
"26" -0.000433278421108546 0.00032396142548898 -8.57243077431486e-05 -0.00117177000380423 -0.00102959586310598 -0.00056551399544491 0.00151817179968232 -4.45551413792926e-05 -0.00050531202894308 -3.58780149868242e-06 -0.000315281250776643 -0.000434369932257374 -0.000685185975023052 -0.000250188822159528 5.41803998116557e-05 -0.000334111229916468
"27" -0.000398793708187775 0.000229694469930253 -3.44112353740326e-05 -0.0013674168121034 -0.000974512874950269 -0.000539747072718904 0.00154452978425516 -2.87985281438092e-05 -0.00050111180986668 6.98329295338829e-07 -0.00035233311997266 -0.000425031263096731 -0.000675033788822001 -0.000284862894726122 3.16604915616794e-05 -0.000326379835716428
"28" -0.000362604499349703 0.00013660053204843 1.3408152800941e-05 -0.00155820273931856 -0.000918208429018668 -0.000513245775166134 0.00156648536303487 -1.46876807532141e-05 -0.00049821330982434 3.26719034761662e-06 -0.000387189653427974 -0.000412405874600758 -0.000661970874374578 -0.000317023386917356 1.10820429391381e-05 -0.000316913854207806
"29" -0.000324888187909072 4.51419265155952e-05 5.76124499985238e-05 -0.00174304138602302 -0.000860892674398318 -0.000486140517177784 0.00158397130263049 -2.28615176461413e-06 -0.000496627996710243 4.1846406921542e-06 -0.000419754099180504 -0.000396559810259174 -0.000646085620317112 -0.000346588826974811 -7.5106683061912e-06 -0.00030577903472923
"30" -0.000285838269112436 -4.42564806937593e-05 9.81088087647717e-05 -0.00192097657643753 -0.000802781976715965 -0.000458571275149995 0.001596957612791 8.35419968944216e-06 -0.000496360408024895 3.52438883582335e-06 -0.000449962097510154 -0.000377593883322189 -0.000627495778544002 -0.000373502097705066 -2.41088980907173e-05 -0.000293061045723022
"31" -0.000245658056617423 -0.000131196325333424 0.000134848769332333 -0.00209116716600465 -0.000744102759573952 -0.000430687624764666 0.00160545018214015 1.71936075337478e-05 -0.000497395582818322 1.37373691503487e-06 -0.000477766088001024 -0.000355638675716962 -0.000606338550370118 -0.000397732044887263 -3.87236751556736e-05 -0.000278864796937595
"32" -0.000204571003896701 -0.000215329105768819 0.000167810482887527 -0.00225290090960405 -0.000685093715227977 -0.000402633744900752 0.00160948828299905 2.42037744502487e-05 -0.000499710256511608 -2.17221620063725e-06 -0.000503157611590704 -0.000330857197992456 -0.000582783992410931 -0.000419279816986929 -5.14010720960968e-05 -0.000263306818918627
"33" -0.000162807053417967 -0.000296337212643002 0.000197013139144033 -0.00240555291668195 -0.000626003505949402 -0.0003745719860778 0.00160914092382254 2.93703811696229e-05 -0.000503264733247203 -7.00098032355612e-06 -0.00052614406238132 -0.000303448723897749 -0.000557023322344681 -0.000438170286435025 -6.22156830169744e-05 -0.00024652473367607
"34" -0.000120595684750024 -0.000373958689150914 0.000222516640623989 -0.00254864383108873 -0.00056707743130259 -0.00034665382959147 0.0016045013818278 3.27010066454432e-05 -0.000508008958219906 -1.29975480135766e-05 -0.000546775694548405 -0.000273633781956034 -0.000529275237928059 -0.000454464205106861 -7.12737890578008e-05 -0.000228667013483951
"35" -7.81892351251815e-05 -0.000447950481469345 0.000244405161775516 -0.00268174264293525 -0.000508575857142181 -0.000319039191643762 0.00159570920589296 3.42045407558534e-05 -0.000513872445657589 -2.00370994412867e-05 -0.000565107780147832 -0.000241664983993938 -0.000499774901092785 -0.00046823526279728 -7.8704279150051e-05 -0.000209897394752136
"36" -3.58239403047311e-05 -0.000518131254201285 0.00026280017017938 -0.0028045384225314 -0.000450752815000111 -0.000291882636532936 0.00158291552931776 3.39098950251541e-05 -0.000520779857866209 -2.79874006077676e-05 -0.000581236877110215 -0.000207825977992795 -0.00046878442212923 -0.000479597691532162 -8.46659705678258e-05 -0.000190391685576273
"37" 6.246014218287e-06 -0.000584338079761804 0.000277856767958004 -0.00291676819390506 -0.000393867072488856 -0.000265337826219047 0.00156630499713166 3.18622216909805e-05 -0.000528634432384609 -3.67094699340471e-05 -0.000595269905107081 -0.000172415999717224 -0.000436577718434414 -0.000488682482752547 -8.93397761832314e-05 -0.000170335567038629
"38" 4.77735981241296e-05 -0.000646466556455827 0.000289742939257718 -0.00301826508200931 -0.000338170180666144 -0.000239550429327113 0.00154608347008902 2.81116693755722e-05 -0.00053733617699636 -4.60625043831938e-05 -0.000607344562909991 -0.000135757641902927 -0.000403449563161408 -0.000495642022994688 -9.29256355288305e-05 -0.000149924088084981
"39" 8.85191220115806e-05 -0.00070443675166114 0.000298675317210918 -0.00310889877116746 -0.000283904922553274 -0.000214665045424276 0.00152247438957676 2.27316331798022e-05 -0.000546769025710814 -5.59000979655428e-05 -0.000617612234420896 -9.81965065909559e-05 -0.000369703012431096 -0.000500658903801855 -9.56491182296438e-05 -0.000129356750299825
"40" 0.000128239113923395 -0.000758203746748144 0.000304870450506526 -0.00318860640774427 -0.000231311663611981 -0.000190812933062231 0.0014957263079627 1.57985993488353e-05 -0.000556810552079653 -6.6078265855234e-05 -0.000626245086396055 -6.00808864994579e-05 -0.000335650767774202 -0.000503920661802659 -9.77456895428387e-05 -0.000108835065360758
"41" 0.00016670676282066 -0.000807763088399262 0.000308581441107397 -0.00325736674160844 -0.000180611478263613 -0.000168124176040547 0.00146609394030138 7.40707293007606e-06 -0.000567327325127827 -7.64476395978893e-05 -0.000633419865657815 -2.17804134229529e-05 -0.000301611635065823 -0.000505632802063453 -9.94586065936945e-05 -8.85654250679599e-05
"42" 0.000203696741478811 -0.000853142255864727 0.000310063331331912 -0.00331519971936827 -0.000132010616516021 -0.000146711508819486 0.00143384794925949 -2.3443414506756e-06 -0.000578183427352421 -8.68657281372829e-05 -0.000639337783512371 1.63335777790126e-05 -0.000267910888846627 -0.000506016261270686 -0.000101051489871608 -6.87503423910643e-05
"43" 0.000238997787466316 -0.000894398629952984 0.00030958363328541 -0.00336216587200857 -8.57010232786356e-05 -0.000126685111419248 0.00139926542675462 -1.33393370356788e-05 -0.000589241755252407 -9.71897439297876e-05 -0.000644198877709272 5.38953721160506e-05 -0.000234861609841716 -0.00050529224021364 -0.000102778885856809 -4.95868645018972e-05
"44" 0.000272409171751207 -0.00093161675391178 0.000307430572194589 -0.00339835646917438 -4.18474096202026e-05 -0.000108136011040259 0.00136262913771014 -2.54586606151664e-05 -0.0006003606975835 -0.000107283981004494 -0.000648213893271789 9.05300047548168e-05 -0.000202777566005787 -0.000503694344588543 -0.000104901179737277 -3.12672692103241e-05
"45" 0.000303749719509715 -0.00096491308301835 0.000303885623329752 -0.00342389113546374 -5.91698723316763e-07 -9.11521152668778e-05 0.00132422383834259 -3.8573102282897e-05 -0.000611399952566735 -0.000117019338796986 -0.000651596351405073 0.000125882220779926 -0.00017196130547027 -0.00050144852251778 -0.000107675528272718 -1.3971503453502e-05
"46" 0.000332846313406618 -0.000994428308822255 0.000299223422758916 -0.00343891830257494 3.7943950306075e-05 -7.5802809749608e-05 0.0012843356069672 -5.25487270780893e-05 -0.000622227296900814 -0.000126271934589463 -0.00065455700351451 0.000159598510828902 -0.000142699265769958 -0.000498771782536944 -0.000111342678360915 2.13022030467775e-06
"47" 0.000359544913122193 -0.00102032873918929 0.000293733382862995 -0.00344361982225591 7.36813141940122e-05 -6.21489186658325e-05 0.0012432441718565 -6.72417177078047e-05 -0.000632711473996292 -0.000134927680959832 -0.000657304964424867 0.000191349533745446 -0.000115260372989638 -0.000495885903430402 -0.000116138579840844 1.68871265532233e-05
"48" 0.000383717440447681 -0.00104280176151761 0.000287682801804406 -0.00343819385634789 0.00010655543421276 -5.02363887426422e-05 0.00120122078834427 -8.25089081043386e-05 -0.000642736172794404 -0.000142885934798438 -0.000660043954820468 0.000220829381658142 -8.98899981608599e-05 -0.000492990981283096 -0.000122277239363748 3.01598755222568e-05
"49" 0.000405244283627117 -0.00106206001937284 0.000281336432343848 -0.00342287689387688 0.000136547176541972 -4.00989452554457e-05 0.00115853974150161 -9.8199952504712e-05 -0.000652186101635359 -0.000150052163250243 -0.000662968136333431 0.000247750146791359 -6.68113253261056e-05 -0.0004902740535558 -0.000129954441267017 4.18300833614739e-05
"50" 0.00042403117349831 -0.00107832338553868 0.000274942109055435 -0.00339791757366638 0.000163657610284595 -3.17606523698764e-05 0.00111544670164033 -0.000114170975640345 -0.000660967115289551 -0.000156350470027198 -0.000666259503552575 0.00027185854235646 -4.62137929480761e-05 -0.000487906087787545 -0.000139340001038868 5.18030778359687e-05
"51" 0.000440004081463611 -0.00109184218448613 0.000268737480332147 -0.00336361185241405 0.000187929535839494 -2.52273534855692e-05 0.00107219414076407 -0.000130268513542414 -0.000668993903245208 -0.000161711350849769 -0.000670088616242623 0.000292933955618293 -2.82640176944642e-05 -0.000486036292048154 -0.000150577138085581 6.00002977017762e-05
"52" 0.000453105103521204 -0.00110287592945917 0.000262928345817688 -0.00332027016868615 0.000209427459374148 -2.04993458384203e-05 0.00102900464953392 -0.000146347744763279 -0.000676196338065496 -0.000166084702948752 -0.000674606772213676 0.000310782709661566 -1.30857322110124e-05 -0.000484792215099641 -0.000163785846738253 6.63685460213435e-05
"53" 0.000463310393067219 -0.00111169394221344 0.000257715948859788 -0.00326824531343164 0.000228250880744793 -1.75581286500651e-05 0.000986098808070376 -0.000162265196516097 -0.000682521042670625 -0.000169432065727297 -0.000679954665767093 0.000325262477360284 -7.82530021610441e-07 -0.000484278751615312 -0.000179048183419264 7.08747144475802e-05
"54" 0.000470597657382099 -0.00111858263545301 0.000253260815700228 -0.00320792412285174 0.00024452882638835 -1.63807540382021e-05 0.000943667992614853 -0.000177882923942688 -0.000687934695988221 -0.0001717298853857 -0.000686242926929209 0.000336256297295546 8.59138110747403e-06 -0.00048457066616212 -0.00019641666092991 7.35134056177009e-05
"55" 0.000474982871267247 -0.00112382806729746 0.000249720230595476 -0.00313972850458126 0.000258412997853235 -1.6926335095941e-05 0.000901904734986643 -0.000193067372095653 -0.000692412009872054 -0.00017296661354449 -0.000693574303306053 0.000343697800306494 1.50117643617464e-05 -0.000485729793398903 -0.000215913457452653 7.42972285458595e-05
"56" 0.000476495554316165 -0.0011277316714307 0.000247208379330509 -0.00306412798692883 0.000270079311720225 -1.91467887686564e-05 0.000860973431427772 -0.000207694215861876 -0.00069595307562035 -0.000173151392684053 -0.000702024624662381 0.000347552979313042 1.84818029373046e-05 -0.000487785305213308 -0.000237534539253266 7.32584953727074e-05
"57" 0.00047518390592105 -0.00113059067957694 0.000245819605723249 -0.00298162358773366 0.000279721299447342 -2.29805706312104e-05 0.000821022292314004 -0.00022165242011042 -0.000698569277389131 -0.000172301468864159 -0.00071165107796291 0.000347833925216226 1.90439779902326e-05 -0.000490743041473167 -0.000261234442511096 7.04514201578237e-05
"58" 0.000471118454726322 -0.00113270859635283 0.000245622890481141 -0.00289277676495087 0.000287554488920152 -2.83609054759705e-05 0.000782186986813819 -0.000234835171468458 -0.000700288041564375 -0.000170452048171013 -0.000722491922810801 0.000344585159029037 1.67727764845812e-05 -0.000494596713653988 -0.000286946995970514 6.59499549706812e-05
"59" 0.000464387889067799 -0.00113437877878203 0.000246664528149682 -0.00279818104635049 0.000293800806120249 -3.52065484006285e-05 0.00074458744269299 -0.000247150251812361 -0.000701151616106863 -0.000167647166524731 -0.000734564933738254 0.000337893822158805 1.17680724083985e-05 -0.000499310089274056 -0.000314577833663858 5.98434559435896e-05
"60" 0.000455099738411045 -0.00113590474310752 0.00024895719839437 -0.00269849265082318 0.000298694302668369 -4.34298623255723e-05 0.000708326796448499 -0.000258519298257149 -0.000701216903520083 -0.000163946178374914 -0.000747871610514685 0.000327875523403251 4.15863850701057e-06 -0.000504839705425528 -0.000344006756719655 5.22337397991761e-05
"61" 0.000443369982925899 -0.00113756813481647 0.000252492855193865 -0.00259441598269475 0.000302472373854744 -5.29319729488669e-05 0.000673497992721183 -0.000268875703592588 -0.000700551189825487 -0.000159416902895747 -0.000762389517904275 0.00031468905631482 -5.90305668211023e-06 -0.000511120893549771 -0.000375087891025905 4.32333995427607e-05
"62" 0.000429340054181345 -0.0011396424991287 0.000257236677169211 -0.00248668459197736 0.000305367738577017 -6.36105224967304e-05 0.000640178922501148 -0.000278170757166328 -0.000699230611599472 -0.000154143645375093 -0.000778088565098429 0.000298509308677097 -1.82479180706005e-05 -0.000518083519583682 -0.000407664344211161 3.29710318178718e-05
"63" 0.000413156560139453 -0.00114239569852545 0.000263135903604524 -0.0023761028823946 0.000307619500010521 -7.53532033342131e-05 0.000608426219987024 -0.000286366070310652 -0.000697341158063071 -0.000148213056819901 -0.000794914909893495 0.000279546142078461 -3.26880689737251e-05 -0.000525645918986473 -0.00044155893817423 2.15787353914275e-05
"64" 0.000394983079567415 -0.00114607809119388 0.000270115499119833 -0.00226351515496075 0.000309454136759159 -8.80425836793657e-05 0.000578296478620862 -0.000293439042452567 -0.000694982807732005 -0.000141722266354753 -0.000812817248623791 0.000258030096263309 -4.90206392556219e-05 -0.000533728623511921 -0.000476585613187444 9.18831677489367e-06
"65" 0.000374992326164944 -0.00115090857282542 0.000278078743039427 -0.00214977940408444 0.000311087810536696 -0.000101557817083701 0.000549834798183658 -0.000299387001061702 -0.000692248890008394 -0.000134775114980035 -0.00083171396636869 0.000234212237292732 -6.70354201228071e-05 -0.000542232753347086 -0.000512542213440897 -4.05936911466652e-06
"66" 0.000353357556440834 -0.00115710518185727 0.000286912354738226 -0.00203581909918811 0.000312719268942202 -0.000115766659308399 0.000523064421636415 -0.000304218245398538 -0.00068924166592405 -0.000127479803385758 -0.000851532429486878 0.000208349269480979 -8.65194106324106e-05 -0.000551082391341198 -0.000549231468028803 -1.80228313599629e-05
"67" 0.000330268582326503 -0.00116483977166997 0.000296489972074557 -0.00192255824390959 0.000314534573049125 -0.000130545101825831 0.00049800895655201 -0.000307955369697115 -0.000686066030419055 -0.000119951114763093 -0.000872175922605402 0.000180720905628316 -0.000107252467258877 -0.000560188629426571 -0.000586443065923568 -3.25668482452739e-05
"68" 0.000305912829891207 -0.0011742732827394 0.000306667600358469 -0.00181093047647062 0.000316696308063052 -0.000145762812860854 0.000474670280754404 -0.000310638189755691 -0.000682827094603047 -0.000112302332857599 -0.000893553242906648 0.000151604180229643 -0.000129020098213035 -0.000569462858722898 -0.000623972541171286 -4.75534549188211e-05
"69" 0.00028048312138078 -0.00118552785100187 0.000317299221658336 -0.00170189022250802 0.000319351716472383 -0.000161284824890121 0.00045305684993794 -0.000312315260681833 -0.000679625783926979 -0.000104649971652334 -0.000915563795656941 0.000121287559845424 -0.000151605865705479 -0.000578837983606367 -0.000661618765971267 -6.2856705665678e-05
"70" 0.000254168490710276 -0.00119870170598456 0.000328221783493391 -0.00159636502597921 0.000322614637774908 -0.000176987398429797 0.000433153445976644 -0.000313054323011925 -0.000676563679324721 -9.71118417874083e-05 -0.000938098988983044 9.00533026002911e-05 -0.000174802180435674 -0.000588239492353576 -0.00069917585773773 -7.83528997749881e-05
"71" 0.000227162990615159 -0.00121385758241787 0.000339270784890654 -0.001495267148069 0.000326584945459335 -0.000192737150065234 0.000414940357463263 -0.000312924838981798 -0.000673737104352085 -8.98000671843758e-05 -0.000961058029805797 5.81837145834532e-05 -0.00019841119067278 -0.000597610342962371 -0.000736456899269024 -9.39237730676946e-05
"72" 0.000199651299055057 -0.00123101807871837 0.000350280650139298 -0.00139945162212634 0.000331327081712293 -0.000208420497937467 0.000398386904189523 -0.000312016239716779 -0.000671233882554539 -8.28250759190271e-05 -0.000984326781541055 2.59501850231582e-05 -0.000222240844250014 -0.000606886407214935 -0.000773270092057695 -0.000109460713745191
"73" 0.000171818590615494 -0.00125018102761958 0.000361081741982695 -0.00130973657290948 0.00033688597056139 -0.000223912911354987 0.000383455740552219 -0.00031041519014523 -0.000669140875790648 -7.62930724098097e-05 -0.00100779776150107 -6.37594820536669e-06 -0.000246115184462889 -0.000616028793106836 -0.000809441901944173 -0.000124866095573566
"74" 0.000143839783490022 -0.00127130243014652 0.000371508973238733 -0.00122686259134667 0.000343279922158785 -0.000239109878982985 0.000370094550670356 -0.000308223203908648 -0.000667533371946896 -7.03049701809782e-05 -0.00103136097173664 -3.85416956606443e-05 -0.000269867476304838 -0.000624988475523 -0.000844799889316347 -0.000140046100733777
"75" 0.000115878943131123 -0.00129430337777877 0.00038139544173308 -0.00115147857862553 0.000350497160561673 -0.000253912102991073 0.000358250264948046 -0.000305544401653189 -0.0006664787760914 -6.49519684695453e-05 -0.00105490122336295 -7.03085056905132e-05 -0.000293341992331421 -0.000633725967972967 -0.000879185249039387 -0.000154917958846647
"76" 8.8101056431795e-05 -0.00131907913692575 0.000390587812128967 -0.00108416541575235 0.00035850618121236 -0.000268224502687917 0.000347848095567321 -0.00030248462606232 -0.000666037453592285 -6.03192283397421e-05 -0.00107830999904552 -0.000101444267271159 -0.000316404216251623 -0.000642217173882949 -0.000912449960673868 -0.000169406740798074
"77" 6.06515489475028e-05 -0.00134548219640845 0.000398941621297971 -0.00102536944818182 0.000367253446566935 -0.000281967090278192 0.000338813690729075 -0.000299153226704571 -0.000666264277161618 -5.64833242618461e-05 -0.00110148195670537 -0.0001317381085101 -0.000338923800841025 -0.00065043353877826 -0.000944452776234979 -0.000183450251465444
"78" 3.36696779406658e-05 -0.00137334195248995 0.000406313429470422 -0.00097543757186807 0.000376653924047756 -0.000295067895101508 0.000331061825896642 -0.000295656000086868 -0.00066719370244626 -5.35080789148276e-05 -0.00112430658701039 -0.000160998160714729 -0.0003607937532439 -0.000658353006893445 -0.000975068525704362 -0.000196988933599421
"79" 7.28019231745934e-06 -0.00140245639113805 0.000412583459892518 -0.000934586253334256 0.000386609754604992 -0.000307471993780875 0.000324494333841781 -0.000292101549685039 -0.00066885710232266 -5.14505995481137e-05 -0.00114667811202667 -0.000189051001601427 -0.000381915919653832 -0.00066595126722226 -0.00100417569440382 -0.000209976060643237
"80" -1.84034651130102e-05 -0.00143259393473156 0.000417633754858618 -0.000902916311138607 0.000396999253371571 -0.000319132125675932 0.000319013593006434 -0.000288589295447882 -0.000671278719413914 -5.03477082828127e-05 -0.00116849061226574 -0.000215736027455186 -0.000402202704825719 -0.000673208639879856 -0.0010316622932008 -0.000222365593578932
"81" -4.32825767266592e-05 -0.001463505410666 0.000421374260407488 -0.000880407438034498 0.000407687801046087 -0.00033001342772174 0.000314510493968688 -0.000285218060982172 -0.000674466831418801 -5.02333749839665e-05 -0.00118964155468698 -0.000240913897202179 -0.000421586564997812 -0.000680108893348271 -0.00105743161821915 -0.000234124531863299
"82" -6.72658346603588e-05 -0.00149492432590494 0.000423718049807171 -0.000866904134113217 0.000418521789746661 -0.000340094696027557 0.000310872156847016 -0.00028208006195959 -0.000678421003564021 -5.11220515083999e-05 -0.00121003427668938 -0.000264466972463049 -0.000440004171406447 -0.00068663101803366 -0.00108138943132975 -0.000245225591732378
"83" -9.02858449357227e-05 -0.00152655926070097 0.000424607566516679 -0.000862142006257125 0.000429338458421587 -0.000349364958504243 0.00030797674518158 -0.000279253264900421 -0.0006831321693176 -5.30189216770301e-05 -0.00122956951036291 -0.000286290664814108 -0.000457408505842482 -0.000692758929959586 -0.00110345710394608 -0.000255645636506031
"84" -0.000112276806966081 -0.00155811808886387 0.000423992396737686 -0.000865748569724595 0.000439959708494116 -0.000357823116450524 0.00030571046865948 -0.000276815948905041 -0.000688582437467456 -5.59124364612494e-05 -0.00124815670426111 -0.000306302173884049 -0.000473763801473313 -0.00069846957698692 -0.00112355999347492 -0.000265366377554789
"85" -0.000133193059781527 -0.00158929195116182 0.000421848547405976 -0.000877243779479671 0.000450207404461034 -0.000365483851699761 0.000303943768639216 -0.000274830671082501 -0.000694736313500277 -5.97820350301647e-05 -0.00126570641600489 -0.000324433281281713 -0.000489042945103826 -0.000703744071117483 -0.00114163533727057 -0.000274376142048669
"86" -0.00015299612972648 -0.00161976961407807 0.000418162201999596 -0.000896060494275396 0.00045988507843323 -0.000372365147085761 0.000302554523016113 -0.000273350378251555 -0.0007015586135084 -6.45904148272714e-05 -0.00128213764860749 -0.000340636557413512 -0.000503229246345871 -0.000708561806073745 -0.00115762730215025 -0.000282668821942078
"87" -0.000171663991060203 -0.00164924407931282 0.000412944239148291 -0.000921562485268061 0.000468811998026305 -0.000378496536504446 0.000301423565309728 -0.000272416059606618 -0.000709000718173508 -7.02866398050886e-05 -0.00129737050777389 -0.000354875296933448 -0.000516311339285572 -0.000712899474530325 -0.00117148817815164 -0.000290237463798274
"88" -0.000189182045102215 -0.00167740353005301 0.000406221547066204 -0.000953037696842692 0.000476789341515118 -0.000383914222327686 0.000300430949976288 -0.000272056798412214 -0.000717002168177083 -7.68084718104648e-05 -0.00131132963411962 -0.000367127495999128 -0.000528291536720714 -0.000716733964983675 -0.00118318224664281 -0.000297083297752107
"89" -0.000205549091920209 -0.00170395069978053 0.000398035657993211 -0.00098973224426149 0.000483631478859591 -0.000388659758274378 0.000299457564780799 -0.000272291096776249 -0.000725498837492869 -8.40786263104558e-05 -0.001323951989727 -0.000377392772213921 -0.000539170828050471 -0.000720041761093605 -0.0011926750109541 -0.000303209806421503
"90" -0.000220767311254923 -0.0017285847712282 0.000388452234348295 -0.00103084613294669 0.000489154707505472 -0.00039278267371404 0.000298400898865172 -0.000273124553604822 -0.000734416370502554 -9.20101303084034e-05 -0.0013351740023562 -0.000385673110589867 -0.000548961590029926 -0.000722794339949162 -0.00119994562659772 -0.000308619365277854
"91" -0.000234849983821832 -0.00175103766970176 0.000377542067853539 -0.00107556400050021 0.000493185755904785 -0.000396331482352237 0.000297148876870462 -0.00027454644356785 -0.00074367146488882 -0.000100504483726597 -0.00134494059520785 -0.000391988658433852 -0.000557683923167123 -0.000724970157205986 -0.00120498170476073 -0.000313319692068543
"92" -0.000247820946834436 -0.00177103269874853 0.000365397926031578 -0.00112304944430936 0.000495557035741754 -0.000399358817712691 0.000295616896847863 -0.000276541629436324 -0.000753174644561558 -0.000109450898660545 -0.00135320565691057 -0.00039636921261989 -0.000565355542529215 -0.000726538282593129 -0.00120777674824722 -0.000317319543431608
"93" -0.000259697787465778 -0.00178833235954011 0.00035212747764169 -0.00117248001543089 0.000496118267392966 -0.000401918628690033 0.000293707569088042 -0.000279073434427821 -0.000762830268514111 -0.000118726250939056 -0.00135992871923173 -0.00039885535653721 -0.000572005265405958 -0.000727481126897473 -0.00120833566785759 -0.000320628538189138
"94" -0.00027052139694746 -0.00180270492886384 0.000337847210279406 -0.00122302563738305 0.000494730167678832 -0.00040406422536712 0.000291355109543028 -0.000282104649496317 -0.000772533261826564 -0.000128203956778462 -0.00136507432091014 -0.000399489475308558 -0.000577655958015888 -0.000727768299505559 -0.00120666492398538 -0.00032325873012493
"95" -0.000280316327430487 -0.00181394344521737 0.000322682545234627 -0.00127389360682863 0.000491276556976099 -0.000405842572743144 0.000288489308914209 -0.000285577054341384 -0.000782177723483407 -0.000137745861564581 -0.00136861802605254 -0.000398327085045364 -0.000582339125719703 -0.000727380656108496 -0.00120278240224311 -0.00032521709977214
"96" -0.000289118407457905 -0.00182186598868441 0.000306781352071569 -0.00132429818938989 0.000485658389455108 -0.000407303163188643 0.000285061959722628 -0.000289426899896559 -0.000791647800468528 -0.000147201612446309 -0.00137053876561274 -0.00039542601990984 -0.000586084210812895 -0.000726292573380997 -0.0011967156807462 -0.000326519097934699
"97" -0.000296966279499085 -0.00182631296107437 0.000290284928252862 -0.00137349536024467 0.000477798310470458 -0.000408492174374257 0.000281023236808237 -0.000293582240014235 -0.000800823825609468 -0.000156422342009907 -0.0013708232097884 -0.000390849976095749 -0.00058892139083708 -0.000724481341369369 -0.00118849545456229 -0.000327170935423155
"98" -0.000303893777179204 -0.00182715239127444 0.000273351934023255 -0.00142077958974632 0.000467640148300769 -0.000409442317757014 0.000276356083266078 -0.000297958552268244 -0.000809583638150224 -0.000165251115393893 -0.00136946642188298 -0.000384664703283877 -0.0005908809748391 -0.000721926082999045 -0.00117816072251889 -0.000327186586302506
"99" -0.000309935465498842 -0.00182427557465054 0.000256140847026015 -0.00146548377025475 0.000455156098465332 -0.000410191457528783 0.000271034057824409 -0.000302467606281156 -0.000817798760386526 -0.00017352221479272 -0.00136646547450668 -0.000376936563053189 -0.000591988455628283 -0.000718607293017218 -0.00116575312180674 -0.000326571891608197
"100" -0.000315121717436947 -0.00181760850783397 0.00023881839738946 -0.00150699210290306 0.000440344256436918 -0.00041075946563587 0.000265056120121612 -0.000307013504678338 -0.000825341747419692 -0.000181074446135756 -0.00136183179110977 -0.000367737689024996 -0.00059227459905439 -0.000714507054198645 -0.001151326602683 -0.000325335351991212
"101" -0.000319480723126297 -0.00180709383504267 0.000221553702393152 -0.00154472297839049 0.000423228865543361 -0.000411169721209009 0.00025843108815873 -0.000311491200468005 -0.00083207992340077 -0.000187736387043628 -0.00135557333429735 -0.000357133371919635 -0.000591754034612449 -0.000709604229806366 -0.00113493637131193 -0.000323478684353207
"102" -0.000323036870118818 -0.00179271321210798 0.000204516631569272 -0.00157815580889015 0.000403858645773318 -0.000411428544811715 0.000251181090721422 -0.000315797727422982 -0.000837877629997138 -0.000193343704814984 -0.00134770505627097 -0.000345190284911589 -0.000590450397798526 -0.000703886335357019 -0.0011166414193621 -0.000321012494976097
"103" -0.000325812578322649 -0.00177446618528316 0.000187881603807573 -0.00160681553544803 0.000382317037607261 -0.000411542815871371 0.000243331002523256 -0.000319819661200733 -0.000842603919766394 -0.000197725085018464 -0.00133825353499424 -0.000331975489427936 -0.000588372547122506 -0.00069733480854917 -0.00109650756719784 -0.000317932023293571
"104" -0.000327823479967939 -0.00175239194623304 0.000171813687803204 -0.00163027313554815 0.000358705848710309 -0.000411504149533904 0.000234930274700872 -0.000323448316834518 -0.000846124593910486 -0.000200719637610876 -0.00132724461976435 -0.000317544461777157 -0.000585533832431966 -0.000689931467173005 -0.00107460117169015 -0.000314238711655544
"105" -0.000329075267542953 -0.00172655378912986 0.000156481340153383 -0.00164815695440706 0.000333160836645728 -0.000411300689058137 0.000226022591373104 -0.000326571839531564 -0.000848306456836842 -0.000202158661009598 -0.00131470405458476 -0.000301955124091259 -0.000581934713036122 -0.000681664848504993 -0.00105099214018359 -0.000309930052434634
"106" -0.000329576396965707 -0.00169704773580379 0.00014205206142021 -0.00166015282031907 0.00030584222746572 -0.000410910494777086 0.000216674525790065 -0.000329075444806347 -0.000849022527238812 -0.000201888298446891 -0.00130067621650359 -0.000285260481462919 -0.000577572720787431 -0.000672524004352241 -0.00102576004271032 -0.00030500276615138
"107" -0.000329320238403072 -0.00166398738299655 0.000128683808243815 -0.00166597745180647 0.00027693415592165 -0.000410304539105105 0.000206957206495839 -0.000330850944741149 -0.000848142597633648 -0.000199752119496153 -0.00128519093163984 -0.000267503968706788 -0.000572439086705258 -0.000662490598520666 -0.000998975009570041 -0.000299447011701369
"108" -0.00032830978393106 -0.00162753334612364 0.000116528403232911 -0.00166542621852762 0.000246643006606965 -0.000409445952480374 0.000196939097201209 -0.00033178944942725 -0.000845547787905093 -0.000195605761823702 -0.00126829221802078 -0.000248728379928195 -0.000566518294149137 -0.000651554183678531 -0.000970716430992272 -0.000293255315148871
"109" -0.000326527122686409 -0.00158786077845624 0.000105738099358968 -0.00165833087763124 0.000215201788945319 -0.000408291790644188 0.000186710989183749 -0.000331784976759239 -0.000841122019435796 -0.000189312732771664 -0.00125003140200105 -0.000228965568344096 -0.000559788815676429 -0.000639712027839136 -0.000941063968781475 -0.000286416182341791
"110" -0.000323961482305152 -0.00154517384533247 9.64444263155697e-05 -0.00164458022795123 0.000182853118255538 -0.000406794725493354 0.000176355570755484 -0.000330741910892235 -0.000834754261895954 -0.000180743755479105 -0.00123044626680926 -0.000208241760612021 -0.000552222457547989 -0.000626941878944745 -0.000910092383513642 -0.000278917590344425
"111" -0.000320591763278636 -0.00149971864719402 8.87861439711149e-05 -0.0016241283256565 0.000149867679930825 -0.000404895862137021 0.000165965369878287 -0.00032856654634936 -0.000826345694843205 -0.000169779222098 -0.00120959868965175 -0.000186580091823915 -0.000543791873169335 -0.000613252454646509 -0.000877891814003798 -0.000270749974362754
"112" -0.00031639553663613 -0.0014517523482336 8.28776291349738e-05 -0.00159697569856981 0.00011652039429327 -0.000402538212482541 0.000155634726052738 -0.000325173224177277 -0.000815802506255839 -0.000156318780567471 -0.00118753621212193 -0.000163997215992714 -0.000534454758523371 -0.00059863278244662 -0.000844538194174086 -0.000261895334102694
"113" -0.000311348125805641 -0.001401562542365 7.88255349377181e-05 -0.00156317663999566 8.30979397332864e-05 -0.000399656938512101 0.000145461163945386 -0.00032048713843065 -0.000803043232405243 -0.000140267152768893 -0.00116431993247701 -0.000140503095073328 -0.000524177314288383 -0.000583084437333641 -0.00081011562457764 -0.000252344463359445
"114" -0.000305422106353946 -0.00134947077292203 7.67333873276772e-05 -0.00152285889847519 4.99007978539412e-05 -0.000396184916136293 0.000135540810192943 -0.000314438425980556 -0.000787997421860695 -0.000121551761973687 -0.00114001310659513 -0.000116102322078457 -0.000512908864617822 -0.000566616630410653 -0.00077470970797231 -0.000242083656156695
"115" -0.000298592475253318 -0.00129580413530789 7.66812358289423e-05 -0.00147618474152246 1.72253206403533e-05 -0.000392050347115005 0.000125969868374987 -0.000306974240644271 -0.000770600911257795 -0.000100107192834686 -0.00111467501149623 -9.08014781541655e-05 -0.000500609276948861 -0.000549236595761012 -0.000738404717649077 -0.000231104658768577
"116" -0.000290830911032931 -0.00124092076954048 7.87450174781279e-05 -0.00142339272294009 -1.46235686894894e-05 -0.000387183860793825 0.000116845809727169 -0.000298043238885861 -0.000750813812310208 -7.58935791227038e-05 -0.00108837558938966 -6.45935661873004e-05 -0.000487228397427836 -0.000530960272201656 -0.000701288749841907 -0.000219398201907851
"117" -0.000282116595283386 -0.00118520151696479 8.29784882111191e-05 -0.00136477837382899 -4.53454889511753e-05 -0.000381514587959019 0.000108253640063662 -0.000287615255149413 -0.00072860110256838 -4.88817082967115e-05 -0.00106118777516067 -3.74809484267148e-05 -0.000472722328416716 -0.000511808976692722 -0.000663450164737903 -0.000206959599824279
"118" -0.000272419811205241 -0.00112903356883426 8.94246578815387e-05 -0.00130068969186724 -7.46509101012984e-05 -0.000374970108139569 0.000100285115082323 -0.000275666948904846 -0.000703945512058644 -1.90682976902268e-05 -0.00103318625155096 -9.45745176884924e-06 -0.000457047067343605 -0.000491815544930049 -0.000624978016878681 -0.00019378681008754
"119" -0.000261729348627485 -0.00107282118412114 9.81099109885637e-05 -0.00123153138287956 -0.000102255401328339 -0.00036748166467038 9.30207752922121e-05 -0.000262190536109986 -0.000676845976604279 1.35371140711844e-05 -0.00100444638104432 1.9480218287911e-05 -0.000440161591215335 -0.000471012844941273 -0.000585966566768974 -0.000179881137593728
"120" -0.000250030121135013 -0.00101697247910824 0.000109048590609585 -0.00115776388570008 -0.000127884309388259 -0.000358985521898121 8.65428486082627e-05 -0.000247187922308961 -0.000647315203277136 4.8898175952029e-05 -0.000975053639490035 4.93320922509876e-05 -0.000422022602253929 -0.000449448925242507 -0.000546509580993938 -0.000165250807898833
"121" -0.00023731169266616 -0.000961906472745873 0.000122232573491662 -0.00107989984750301 -0.000151279818654495 -0.00034941690611829 8.09114087157838e-05 -0.000230682144572431 -0.000615382518824642 8.69595497564687e-05 -0.000945088819609582 8.00950159209689e-05 -0.000402602748907085 -0.000427171994905317 -0.000506702706348797 -0.000149907411921106
"122" -0.000223571336251415 -0.000908042416826719 0.000137644573696077 -0.000998502390199525 -0.000172207881381158 -0.000338718522376274 7.61898498024186e-05 -0.000212700834407073 -0.000581098313489673 0.00012764367120933 -0.000914642184950679 0.000111766312522138 -0.000381878428736412 -0.000404249622084655 -0.000466648519000439 -0.000133868283983841
"123" -0.000208820406382197 -0.000855789851312799 0.00015524022509407 -0.000914171776175963 -0.000190446230564832 -0.000326842747675965 7.24283600286498e-05 -0.000193291521711691 -0.000544524641232821 0.000170853433428216 -0.00088380359156041 0.000144332635928584 -0.000359825151171965 -0.000380746947109603 -0.000426441700530769 -0.000117159070926428
"124" -0.000193066900402667 -0.000805549727870981 0.000174971097458029 -0.000827548712884393 -0.000205799166761724 -0.000313745621319644 6.96676884744026e-05 -0.000172511943671225 -0.000505745197267692 0.000216465094964645 -0.000852666100601643 0.000177772578160583 -0.00033643443678056 -0.000356739884774403 -0.000386192004841501 -9.98058370637189e-05
"125" -0.000176342366820768 -0.000757717199905597 0.00019675916478203 -0.000739308568532403 -0.000218096508757955 -0.000299390956289619 6.79354237381925e-05 -0.000150434322119065 -0.000464857590057013 0.000264333835118937 -0.000821322793696449 0.00021206216666495 -0.000311707604368171 -0.000332314732745832 -0.000345998949831694 -8.18459111278432e-05
"126" -0.000158676613852748 -0.000712655237397644 0.00022051797850068 -0.0006501431799743 -0.000227193041481505 -0.000283756955490774 6.72501405405183e-05 -0.000127143226662196 -0.00042197918476656 0.000314295191554231 -0.000789871198685611 0.000247168351637664 -0.00028565018313112 -0.000307559199057762 -0.00030597292379931 -6.33213590674789e-05
"127" -0.000140114834616697 -0.000670717529204419 0.000246143012988598 -0.000560769583902965 -0.000232973421447915 -0.000266829524619534 6.7615269605653e-05 -0.000102737776297357 -0.000377240810382865 0.000366157230123375 -0.000758401976380527 0.000283039451647753 -0.000258279792747164 -0.000282574046350929 -0.000266218401320784 -4.42828373032806e-05
"128" -0.000120712954015316 -0.00063221463916602 0.000273508461355463 -0.000471906506572549 -0.00023535276536476 -0.000248602192513399 6.90271485789296e-05 -7.73242968107301e-05 -0.000330795145166145 0.000419713537231583 -0.000727017232800443 0.000319624127666287 -0.000229629619535988 -0.000257460526684275 -0.00022684587755001 -2.4780107541015e-05
"129" -0.000100538376701097 -0.000597435634658866 0.000302476166332466 -0.000384275330962572 -0.000234269682435082 -0.00022909212399055 7.1456682317399e-05 -5.10236083103569e-05 -0.000282807657383423 0.000474727530851008 -0.000695802550109292 0.000356850820510352 -0.000199734780061977 -0.00023231893498878 -0.000187956621303543 -4.87600719558788e-06
"130" -7.96669439660183e-05 -0.000566625882892296 0.000332893330508223 -0.000298575935047656 -0.000229702933586672 -0.000208319385402692 7.48682835322396e-05 -2.39615657880925e-05 -0.000233456735175991 0.000530951480623589 -0.000664857711195017 0.000394637858298352 -0.000168649521301162 -0.00020726082518696 -0.000149665310909228 1.53656313176355e-05
"131" -5.81880019164948e-05 -0.000539988667207835 0.000364591603017615 -0.000215492605714372 -0.000221660113311355 -0.000186322240489135 7.92183216492848e-05 3.71955573209192e-06 -0.000182935711155632 0.000588117206992721 -0.000634267314277563 0.000432897007734194 -0.000136431830885777 -0.000182390803633509 -0.000112069842776581 3.58737496939338e-05
"132" -3.62022452691147e-05 -0.000517684611261431 0.000397386266237927 -0.00013568856410737 -0.000210172848656792 -0.000163151656082989 8.44456017576504e-05 3.18823182015559e-05 -0.000131456590532862 0.000645937261636875 -0.000604117426528233 0.000471524048200498 -0.00010315320084022 -0.000157818732177827 -7.52754129067125e-05 5.65750134637808e-05
"133" -1.38202244784813e-05 -0.000499829927931279 0.000431083388358357 -5.97647656293103e-05 -0.000195316871410845 -0.000138873744619321 9.04739264709653e-05 6.03681565435135e-05 -7.92312781190045e-05 0.000704109856392738 -0.000574487565178308 0.000510398297055571 -6.88978869624923e-05 -0.000133651695485229 -3.93796527792212e-05 7.73893652322514e-05
"134" 8.84372044634781e-06 -0.000486492962184417 0.000465480558799055 1.1702300143538e-05 -0.000177188144465197 -0.000113570416806709 9.72184773975227e-05 8.90269120414267e-05 -2.64927820272728e-05 0.000762323750754919 -0.000545457964868549 0.000549398159947652 -3.37547655091795e-05 -0.000109994663483767 -4.48032198690629e-06 9.82376400799709e-05
"135" 3.16531704950581e-05 -0.000477686902991266 0.000500357658696212 7.82036829862362e-05 -0.000155919749584146 -8.73322855665923e-05 0.000104580535599816 0.000117698239509302 2.65247738817918e-05 0.000820252039625566 -0.000517097713013809 0.00058837817062097 2.17368702505213e-06 -8.69469122087811e-05 2.93311123252334e-05 0.000119034112449642
"136" 5.44724975555764e-05 -0.000473380422586736 0.000535490018716358 0.00013930236908295 -0.000131669292981323 -6.02717103336873e-05 0.000112456296082394 0.0001462190442877 7.95788953075992e-05 0.000877560990995962 -0.000489468567207459 0.000627190658649445 3.87849414023828e-05 -6.46023994306521e-05 6.19753242412737e-05 0.000139691132268341
"137" 7.71570974183599e-05 -0.00047349894519607 0.000570646425447562 0.000194603244128215 -0.000104629113646408 -3.25043155319762e-05 0.000120724338418374 0.000174431282481552 0.000132419249976327 0.000933911647910453 -0.000462629095326701 0.000665674144933997 7.59541167468477e-05 -4.30526280659022e-05 9.33638839539984e-05 0.000160123504553529
"138" 9.9551955357344e-05 -0.000477902598299104 0.000605591543589035 0.000243818899369475 -7.50094555509696e-05 -4.16550043352445e-06 0.000129269500949422 0.000202170718338132 0.000184798337277001 0.000988964331276782 -0.00043663031097201 0.000703661137312123 0.00011356551012592 -2.23785692698921e-05 0.000123430426407705 0.000180241196504768
"139" 0.000121507161805789 -0.000486424987188537 0.000640085224391397 0.000286706850820497 -4.30582970943262e-05 2.46012478302715e-05 0.000137960407632529 0.000229280858070379 0.000236469488071013 0.00104237703427677 -0.000411514705191552 0.000740975960147031 0.000151482935602665 -2.65709898617635e-06 0.000152105094453812 0.000199954747921166
"140" 0.000142852756218699 -0.000498845211498026 0.000673883894647371 0.000323122648161344 -9.03268246183834e-06 5.36423602658764e-05 0.000146663731139092 0.000255605279273643 0.000287181339996964 0.00109381013905519 -0.000387312827523232 0.000777440915970729 0.000189578532255082 1.60468700435614e-05 0.000179333408735466 0.000219178774928152
"141" 0.000163434407306472 -0.000514908299983728 0.000706748648794992 0.000352986933415309 2.67781324927075e-05 8.27967831275855e-05 0.000155244614122488 0.000280995992439114 0.000336698480104261 0.00114293654996074 -0.000364057116059589 0.000812863891330354 0.000227705709800372 3.36737208229002e-05 0.000205060684590605 0.000237825099204395
"142" 0.000183080424858475 -0.000534318736800637 0.000738437020881861 0.000376306634973375 6.40685713297202e-05 0.000111896546981883 0.000163567185282784 0.000305306004244801 0.000384781176116301 0.00118943432084629 -0.000341760333914351 0.000847057683898358 0.000265726057572705 5.01734748559684e-05 0.000229245100355721 0.000255808518015381
"143" 0.000201631420264306 -0.000556749840778114 0.00076871843075271 0.000393155310838523 0.000102513737104499 0.000140772929769055 0.000171504586981219 0.000328398555544362 0.000431208097504952 0.00123299177411087 -0.000320435854728735 0.000879830409129775 0.000303494829319457 6.55050280032547e-05 0.000251852109126973 0.000273046929770226
"144" 0.000218929168396453 -0.0005818458467125 0.000797363358798084 0.000403683471087555 0.000141781740835689 0.000169246508829313 0.000178918255845002 0.000350150422385697 0.000475766136929671 0.00127332531191497 -0.000300088673656654 0.000910995334133669 0.000340858994446192 7.9634291046179e-05 0.000272854473210353 0.000289462972520991
"145" 0.000234811126937777 -0.000609231936923447 0.000824152293503471 0.000408097650615903 0.000181522441200316 0.000197145586264355 0.000185685528969795 0.000370437371627718 0.000518255644250977 0.00131016159593398 -0.000280708728513499 0.000940363315377543 0.000377671778252605 9.25410850624427e-05 0.000292236687687028 0.000304979121775944
"146" 0.000249131440583121 -0.000638507806125005 0.000848875233729864 0.000406679969284218 0.000221381380961887 0.000224293853077833 0.000191687552891695 0.000389152061671107 0.000558494481519851 0.00134325071500115 -0.000262286519258813 0.000967748708248811 0.00041378540562647 0.000104207316114638 0.000309987027133628 0.000319527232133978
"147" 0.000261745522254794 -0.00066925917057361 0.000871333362957623 0.000399750581160934 0.000260994791234964 0.000250520298296108 0.000196817583321154 0.000406197459413477 0.000596325337431408 0.00137237298408487 -0.000244797834181228 0.000992977510428965 0.000449047817608427 0.000114628105738572 0.00032610586729456 0.000333037488545351
"148" 0.000272518967734562 -0.000701062209397067 0.000891345882220245 0.000387692130057424 0.000300002677474847 0.000275662381893922 0.000200974300727133 0.000421490177248505 0.000631598771717653 0.00139733776779786 -0.000228219381527252 0.00101588029421729 0.00048331758682617 0.000123805730491837 0.000340598664479697 0.000345451225231923
"149" 0.000281327359475443 -0.000733489279334055 0.000908743845280083 0.000370908980444029 0.000338044539190701 0.000299563681481947 0.000204068479499826 0.000434956033625469 0.000664200771580119 0.00141797879002899 -0.000212516235849888 0.00103629534357517 0.000516444461195693 0.000131742142844698 0.000353479293618498 0.000356710722282763
"150" 0.000288059663121616 -0.000766108077872149 0.000923372047559076 0.000349855563610422 0.000374761865086496 0.000322076865947594 0.00020602602936555 0.00044653289435829 0.000694030081253739 0.00143417159688293 -0.000197645946858159 0.00105407994094752 0.000548292851743751 0.000138455451431211 0.000364775059068989 0.000366767985523973
"151" 0.000292620465987551 -0.00079848710316345 0.000935101754292523 0.000325009627577029 0.000409808867723784 0.000343064190528729 0.000206784839022591 0.000456173919393818 0.000721017765916805 0.00144581487591882 -0.000183566840325269 0.00106909239702129 0.00057872242819069 0.000143968292936009 0.000374509799878384 0.000375581047177386
"152" 0.000294922898634736 -0.00083020311227988 0.000943816003362678 0.000296851279943813 0.000442853003274908 0.000362406206659196 0.000206298764959138 0.000463846410882194 0.000745115300137875 0.00145285644017736 -0.000170221232820967 0.00108122221504246 0.00060760192248054 0.000148306790841032 0.000382728238356244 0.000383112840615919
"153" 0.000294900301242487 -0.000860842725046333 0.000949421825335277 0.000265888734911645 0.000473577498369082 0.000379993663686006 0.000204533399195945 0.000469530230666569 0.000766302017567034 0.00145526975572392 -0.00015755715096743 0.00109035956101536 0.000634809811634496 0.000151497927979544 0.000389467337861399 0.000389335548203489
"154" 0.000292508264967617 -0.000889996664806428 0.000951848173703477 0.000232637060570204 0.000501685265691024 0.000395738163222593 0.000201476631541008 0.000473216772382924 0.000784583038757744 0.00145307386262079 -0.000145511563117264 0.00109642049864727 0.000660222583035063 0.000153583417361384 0.000394781359961568 0.000394225727352443
"155" 0.000287706822821644 -0.000917280878761667 0.000951041884922904 0.000197592537538864 0.000526899084026768 0.000409563825968178 0.000197126222916563 0.000474913076936622 0.000799990287407375 0.0014463158884468 -0.00013401650878251 0.00109934212071677 0.000683735021543401 0.000154603748740522 0.000398727574887827 0.000397771784352802
"156" 0.000280481567667342 -0.000942323647609053 0.000946972984407586 0.000161265868328971 0.000548975619348329 0.00042141474062427 0.000191496609735461 0.000474634500320466 0.00081257942863061 0.00143508543434533 -0.000123007954767732 0.00109907452731055 0.000705242594365082 0.000154602033176812 0.0004013677249255 0.00039996822192515
"157" 0.000270843884166687 -0.000964773026425247 0.000939640072343605 0.000124139446569603 0.000567695344249656 0.000431254297452792 0.000184624200536736 0.000472418071231127 0.000822431052893131 0.00141950693059614 -0.000112410354298272 0.00109559411668242 0.000724653167992452 0.000153624405305608 0.000402771317491505 0.000400814125025295
"158" 0.000258811879952366 -0.000984301800266696 0.000929057625719169 8.66901015957633e-05 0.00058287714312156 0.000439066878334035 0.000176550360153094 0.000468300989934883 0.000829650699087072 0.00139974036263381 -0.00010214904341278 0.00108889434331481 0.000741888972109303 0.000151722553932466 0.000403009725612406 0.000400322542925564
"159" 0.000244430474439778 -0.00100060542403226 0.000915264113628403 4.93764493556147e-05 0.000594366303612502 0.000444854828713439 0.000167342262259397 0.000462339518036153 0.000834364171345771 0.00137597568898622 -9.21487281689376e-05 0.00107899473393585 0.000756877765184159 0.000148952218857272 0.00040216117780736 0.000398509115473465
"160" 0.000227757951390286 -0.0010134053698755 0.000898320129823378 1.26204236980598e-05 0.000602052943899051 0.000448637552310005 0.000157071019846358 0.000454601018667648 0.000836719704025161 0.00134843324438558 -8.23319988498865e-05 0.00106593485008963 0.00076955998729163 0.000145362524297728 0.000400305736090373 0.000395398045640795
"161" 0.000208876250472202 -0.00102244764034412 0.000878308297586135 -2.31571454850752e-05 0.000605860968920562 0.000450453445549481 0.000145823949703184 0.000445157239670789 0.000836884118424461 0.00131736591314322 -7.26155223923013e-05 0.00104977177562578 0.000779893315906697 0.000141021596102335 0.00039753578116624 0.00039102720602085
"162" 0.000187885012865123 -0.00102751295627634 0.000855335429584857 -5.75946275138276e-05 0.000605756833925826 0.000450364563311627 0.000133703864650854 0.000434094498673317 0.00083503757654735 0.00128304584359506 -6.29232905976224e-05 0.00103059330391688 0.000787843482451875 0.00013597970799074 0.000393933175456619 0.000385431861088375
"163" 0.000164893266492822 -0.00102840808457616 0.000829519925495217 -9.03415614243652e-05 0.000601747457879533 0.000448443249702554 0.000120815843739047 0.000421505726508202 0.000831375327227624 0.00124577399712379 -5.3175407632256e-05 0.00100850404884707 0.000793391135826351 0.000130297934888931 0.000389590920843262 0.000378663760841963
"164" 0.000140036333660845 -0.00102496610717383 0.00080100270848943 -0.000121073077425953 0.000593873203636396 0.000444779153945238 0.00010728278427242 0.000407487866867774 0.000826108662373771 0.00120586621128048 -4.32893314722531e-05 0.000983622808088759 0.000796535308601734 0.000124047174916709 0.00038460585589105 0.000370775860053901
"165" 0.000113459556735089 -0.00101706180299324 0.000769946940024396 -0.000149516281235445 0.000582227824189776 0.000439480625695537 9.32265998101505e-05 0.000392153846774998 0.000819453975983649 0.00116366024484983 -3.31891996001298e-05 0.000956099383026726 0.000797281106437317 0.000117284978428613 0.000379071679626756 0.000361827907799099
"166" 8.53190591267466e-05 -0.00100459523045652 0.000736527720560075 -0.000175420720412567 0.000566933485572128 0.000432665566817519 7.87856199179545e-05 0.000375613471266802 0.000811633438693772 0.00111950172843945 -2.2799152569116e-05 0.000926093693601117 0.000795653830369559 0.000110076767344127 0.000373083450226687 0.000351888717911975
"167" 5.57909600408014e-05 -0.000987497103412792 0.00070093294667048 -0.000198564444069713 0.000548148840695352 0.00042446075169284 6.40879100897171e-05 0.000357981375110013 0.000802879160837199 0.00107374713516416 -1.20433595061388e-05 0.000893784004795853 0.000791692143584338 0.000102494398468344 0.00036674214442493 0.00034102799334992
"168" 2.50572671327841e-05 -0.000965743912681729 0.000663370886426966 -0.000218777188974128 0.000526075173657116 0.00041501307950604 4.92765760079942e-05 0.000339382442974146 0.000793415627515583 0.00102676432274562 -8.5749303760989e-07 0.000859370170785115 0.000785447497464216 9.45951781179358e-05 0.0003601412287094 0.000329324189811161
"169" -6.69192122247664e-06 -0.000939330702986719 0.000624052292101186 -0.000235907334401436 0.000500943378618154 0.000404464060283314 3.44896714307027e-05 0.000319938623796174 0.00078347482432573 0.000978916784450298 1.08339456949922e-05 0.000823055242938877 0.000776985596411245 8.64530353406872e-05 0.000353378813457434 0.00031685790959429
"170" -3.92564390738088e-05 -0.000908294551944507 0.000583205240974426 -0.000249845689153332 0.000473013611305096 0.000392970858369689 1.98625429031215e-05 0.000299778037883152 0.000773281666889887 0.000930574431682185 2.30885446739615e-05 0.000785068500210072 0.000766386564252635 7.81370009192859e-05 0.000346550793820385 0.000303713975528779
"171" -7.24314883129173e-05 -0.000872704324386977 0.000541062435701966 -0.000260513832393462 0.000442577325955418 0.00038069072427175 5.5367283259607e-06 0.000279024313577572 0.000763053702942823 0.000882099192542909 3.59671192348206e-05 0.000745635479125982 0.000753744289590065 6.97096498367404e-05 0.00033974944674295 0.000289979829658927
"172" -0.000106010748867487 -0.00083266796742225 0.000497861436549366 -0.000267866603548651 0.000409942152347082 0.000367781677131577 -8.36403776629355e-06 0.000257806104006714 0.00075300071442258 0.000833848060857923 4.95208494840103e-05 0.000704998647979299 0.000739161179847434 6.1241455600375e-05 0.000333061994744157 0.000275741710024562
"173" -0.000139778129171813 -0.000788322534300041 0.000453847985579371 -0.00027190594682577 0.000375446410817529 0.000354407381478042 -2.17076084437642e-05 0.000236248025242524 0.000743319888136076 0.00078616794678962 6.37961217101548e-05 0.000663405106325046 0.000722752027866588 5.27969334482856e-05 0.000326574625927176 0.000261092268092782
"174" -0.000173529489893601 -0.000739831807405786 0.00040926520512594 -0.000272635297964984 0.0003394323006268 0.000340721934204324 -3.43814912735189e-05 0.000214471015825621 0.000734202611822003 0.00073939150790585 7.88342695332565e-05 0.000621106331780923 0.000704645026648295 4.44440121535785e-05 0.000320369115749936 0.000246120876213871
"175" -0.000207054542464849 -0.000687403122819326 0.000364365595171429 -0.000270116861259263 0.000302258817419163 0.000326882990801046 -4.62739818988151e-05 0.000192598450630075 0.00072581606029548 0.000693843861163032 9.46657349538036e-05 0.000578353784627497 0.000684972156982266 3.62410731846239e-05 0.000314520866596568 0.00023091854274271
"176" -0.00024014408606286 -0.000631265289376461 0.000319388983899084 -0.000264428509521161 0.000264302251344695 0.000313040536828023 -5.72835776748848e-05 0.000170746538271731 0.000718318515162801 0.000649822403341425 0.000111319020859562 0.00053540298354164 0.000663884170863944 2.82555019971987e-05 0.000309096759152359 0.000215574151240054
"177" -0.000272605663250633 -0.000571684180801551 0.000274578006209164 -0.000255674317044324 0.000225924418344297 0.000299331922208064 -6.73229046749119e-05 0.00014902462432582 0.000711847330522771 0.000607611964844173 0.000128809607371202 0.000492499803261566 0.000641521764166953 2.0543526155738e-05 0.000304163028777756 0.000200172506347672
"178" -0.000304240589788439 -0.000508953758331013 0.000230170780891997 -0.000243996778355953 0.000187497956138022 0.000285899588076759 -7.63136242846953e-05 0.000127542474928908 0.000706523653539736 0.000567473974618929 0.00014714079216824 0.000449895234077631 0.0006180448340412 1.31563971563175e-05 0.000299769992777349 0.000184800101741191
"179" -0.000334869795509709 -0.000443392416099698 0.000186398597730558 -0.000229549821778017 0.000149392953691369 0.000272859892934805 -8.41957833375327e-05 0.00010640057197245 0.00070244257743447 0.000529644461315025 0.000166313629171409 0.000407828258245549 0.000593613488920177 6.14472996254666e-06 0.000295963153007561 0.000169536001659718
"180" -0.000364324077995317 -0.00037533507831968 0.000143480268719165 -0.000212507967873789 0.000111958859327804 0.00026032936093779 -9.09159602766629e-05 8.56899301638609e-05 0.00069968832342233 0.000494337837298498 0.000186322454474371 0.000366531156991814 0.000568387646580581 -4.382899860387e-07 0.000292778289028472 0.000154456567312133
"181" -0.000392434049202927 -0.000305157141896335 0.000101629390848088 -0.000193081313053222 7.55461708792213e-05 0.000248409648867396 -9.64400191583477e-05 6.55000311248851e-05 0.000698313216220065 0.000461737688348729 0.000207140678782952 0.000326220040090642 0.000542529043922709 -6.56137858524002e-06 0.000290241931995356 0.000139635204653998
"182" -0.000419060758990609 -0.000233235631563672 6.10475796450443e-05 -0.000171484204470508 4.04815805070106e-05 0.000237187536699249 -0.000100743618793371 4.5911744946786e-05 0.00069835398279385 0.000432005350993614 0.000228740291075964 0.0002871133924426 0.000516202534650886 -1.21832855215034e-05 0.00028837250249059 0.000125135851178384
"183" -0.000444070329108637 -0.000159978627349974 2.19178123024422e-05 -0.000147944259528908 7.0696645118969e-06 0.000226735406450439 -0.000103824138785491 2.69893244299454e-05 0.000699827561366513 0.000405266835487571 0.000251080853946516 0.000249393648045275 0.000489565800836171 -1.72781985544442e-05 0.000287171057506342 0.000111019690566417
"184" -0.000467343965237908 -8.57969150966981e-05 -1.55831219772239e-05 -0.000122716641980307 -2.43963081863591e-05 0.000217116758634591 -0.000105686562334259 8.80021159806381e-06 0.000702720622276456 0.000381625408121668 0.000274105426599779 0.000213252241404411 0.000462775203977842 -2.18294587101582e-05 0.000286627916101954 9.73394450768456e-05
"185" -0.000488783680515557 -1.11184683031838e-05 -5.13034435391484e-05 -9.60541605216017e-05 -5.36609918211416e-05 0.000208371507937928 -0.000106361894745209 -8.60858751201207e-06 0.000707007665542207 0.000361149258936468 0.000297758926317668 0.000178844901299776 0.00043598144585922 -2.58144529484863e-05 0.000286726918564426 8.41423038524246e-05
"186" -0.000508310371620689 6.36242484254637e-05 -8.50964703673256e-05 -6.8218108885514e-05 -8.04873224496812e-05 0.000200533162326263 -0.000105879829480384 -2.51855923790765e-05 0.000712635131631616 0.000343881665952237 0.000321966793951936 0.000146317586899378 0.000409330449524386 -2.92357676181616e-05 0.00028743814769382 7.14670313830334e-05
"187" -0.000525853603763585 0.000138002449352434 -0.00011684310989967 -3.9479805409559e-05 -0.00010467498007314 0.000193614874472256 -0.000104296269118714 -4.09026209172615e-05 0.000719536408198165 0.000329834271308448 0.000346648889039064 0.00011579451642669 0.000382963141866449 -3.20917828582094e-05 0.00028871828381285 5.93500010441092e-05
"188" -0.000541376021610344 0.000211578072679756 -0.000146439846032978 -1.01112510008163e-05 -0.000126050446321135 0.000187614099269002 -0.000101681065904799 -5.57357199436195e-05 0.000727618739505434 0.000318983693566501 0.000371713582772039 8.73805436151962e-05 0.000357002080327761 -3.43928978012772e-05 0.000290515980081755 4.78113693698521e-05
"189" -0.000554848347855252 0.000283924624469528 -0.000173794459641102 1.9615292187747e-05 -0.000144477303960912 0.000182518223492025 -9.8108510196335e-05 -6.96653666614944e-05 0.000736774638733994 0.000311287208289803 0.000397061882115151 6.11628998807042e-05 0.000331572125099155 -3.61629589226361e-05 0.000292762695206094 3.68707989974051e-05
"190" -0.000566265575644176 0.000354625191805774 -0.00019884969582944 4.94275775651614e-05 -0.000159848877227271 0.000178293176159106 -9.36739474747642e-05 -8.2690000302843e-05 0.000746878620346085 0.000306666342852854 0.000422586944061047 3.7201528921555e-05 0.000306778683314072 -3.74238528104164e-05 0.00029538587825104 2.65375568671218e-05
"191" -0.000575636609630488 0.000423271177671166 -0.000221552278713045 7.90641291290849e-05 -0.000172103390608707 0.000174898501227189 -8.84809734109503e-05 -9.480959043198e-05 0.000757792343012379 0.000305017461707459 0.000448168202497677 1.5536335260988e-05 0.000282716503273998 -3.8218913312999e-05 0.000298294680517644 1.68141251460229e-05
"192" -0.000582998077893013 0.000489483679366126 -0.000241879381447934 0.000108263614932558 -0.000181205483908474 0.000172274829741023 -8.26408030277272e-05 -0.000106041963537237 0.000769361728861273 0.000306209382724664 0.000473687702321032 -3.81192884805577e-06 0.000259473646733322 -3.85856197412532e-05 0.000301400496597922 7.69341282545639e-06
"193" -0.00058839977323794 0.000552889749757368 -0.000259823236036369 0.000136779120308634 -0.000187157236290691 0.000170350877617317 -7.62736830154124e-05 -0.000116403924874854 0.000781420400758071 0.000310086926864976 0.000499019574763697 -2.08480428500038e-05 0.000237118502617392 -3.85819236645013e-05 0.000304594023521976 -8.32960631455503e-07
"194" -0.000591904828978726 0.000613155766835197 -0.000275393916452156 0.000164373102701874 -0.000190002023667199 0.000169047275501448 -6.95139688118715e-05 -0.00012592689520696 0.00079379070730243 0.000316472741477228 0.00052402793653902 -3.5596028787784e-05 0.000215715470584604 -3.82626752718077e-05 0.000307769715341588 -8.78604154729222e-06
"195" -0.000593604058858868 0.000669968403200398 -0.000288629053385727 0.000190823459634315 -0.000189816080682074 0.00016827171447815 -6.24923615550688e-05 -0.000134649246920229 0.000806292364496406 0.000325165260949103 0.000548576586071285 -4.80982489363101e-05 0.000195306988423696 -3.76961299085141e-05 0.000310806882703631 -1.61892566075446e-05
"196" -0.000593596287383762 0.000723049564441187 -0.000299578369271019 0.000215917768576549 -0.000186707790510288 0.000167925745237774 -5.5345173887082e-05 -0.000142614252752545 0.000818732973099669 0.000335943788402833 0.000572531281376973 -5.84231326104169e-05 0.000175922177790453 -3.6955791286369e-05 0.000313588938484965 -2.30745131382022e-05
"197" -0.00059199755282669 0.00077215468487926 -0.00030830698023393 0.000239463964070354 -0.000180820881963109 0.000167899898148872 -4.82168705027513e-05 -0.000149875029112316 0.000830921018509507 0.000348571491129348 0.000595751352539964 -6.66516986579117e-05 0.000157587721496024 -3.61150071020566e-05 0.000315986596160634 -2.94763878091402e-05
"198" -0.000588940163310991 0.000817069315963654 -0.000314910314336608 0.000261283386679908 -0.000172329757711357 0.000168078693500226 -4.12523172770263e-05 -0.000156486696712909 0.00084266015807139 0.000362793558809947 0.000618101179014403 -7.28908284196752e-05 0.000140304123791012 -3.52552221368148e-05 0.000317878454740177 -3.54335558190511e-05
"199" -0.000584564948848561 0.000857629983857287 -0.000319483605581849 0.000281221907955028 -0.000161438082522621 0.000168344024696973 -3.45857873156422e-05 -0.000162510378748779 0.000853756375240691 0.000378347372213756 0.000639442237639772 -7.72540774208514e-05 0.000124073986480391 -3.44616882903333e-05 0.000319139469890202 -4.09895451055531e-05
"200" -0.000579021335603607 0.000893702827182625 -0.000322147079419001 0.000299142852774341 -0.000148375888947582 0.000168573440225939 -2.8364899625392e-05 -0.000168012764079296 0.000864017602929056 0.000394957529966224 0.000659645520676968 -7.98792654825827e-05 0.000108875523034021 -3.38162789814874e-05 0.000319644548533002 -4.61891786294212e-05
"201" -0.00057247591739188 0.000925198257109936 -0.000323032195117762 0.000314934472518076 -0.000133399713122641 0.000168643402263289 -2.27130682374414e-05 -0.000173064591979711 0.000873258666916989 0.000412338787674995 0.000678585250119876 -8.09069157812923e-05 9.46859270919962e-05 -3.34021426146432e-05 0.000319276219117239 -5.1084676035932e-05
"202" -0.000565093031804455 0.000952059381607177 -0.000322284870157078 0.000328485270333515 -0.000116786355802054 0.000168430008607583 -1.77670013759925e-05 -0.000177733554920094 0.000881299814396434 0.000430205781616797 0.000696140470650439 -8.05035620333771e-05 8.14669268117142e-05 -3.33136292668302e-05 0.000317919787057069 -5.5722586071959e-05
"203" -0.000557048459225749 0.000974282181997073 -0.00032006039059347 0.000339742434449811 -9.8833683892304e-05 0.000167811855730899 -1.36434466648156e-05 -0.0001820973068416 0.000887973700461692 0.000448271920525768 0.000712200019940294 -7.88306034812161e-05 6.91750655119499e-05 -3.36206374399362e-05 0.000315470858850042 -6.01513890073613e-05
"204" -0.000548516649547854 0.000991892708548902 -0.000316521033814873 0.00034864072576186 -7.98464732475738e-05 0.000166667036771261 -1.0450847771324e-05 -0.00018622350610148 0.000893121033246222 0.000466249066630279 0.000726661315505276 -7.60636816566389e-05 5.77577850441203e-05 -3.44088080317118e-05 0.000311829752394283 -6.44242459563706e-05
"205" -0.000539675349223208 0.00100495438922043 -0.000311831132358175 0.000355152429447915 -6.01470349376681e-05 0.000164888209928902 -8.29509196618344e-06 -0.000190186261007964 0.000896598806980706 0.000483857784876314 0.000739436899455978 -7.23846965686918e-05 4.71585444766033e-05 -3.57530158924883e-05 0.000306911260068266 -6.85870566426633e-05
"206" -0.00053069815589599 0.00101356707667154 -0.000306178602427213 0.000359262759104509 -4.00685137496036e-05 0.000162364557317212 -7.25965828971675e-06 -0.000194058039993643 0.000898277372120181 0.000500825539975693 0.000750440877479726 -6.79762069868259e-05 3.73086262338531e-05 -3.77194565312465e-05 0.000300638734797962 -7.26882724127092e-05
"207" -0.000521763297971627 0.0010178683879828 -0.000299733793654298 0.000360990329033312 -1.9939207714473e-05 0.000158995631631115 -7.42436281753117e-06 -0.000197905387876006 0.000898043226818392 0.000516885054134416 0.000759613183220635 -6.3023181651502e-05 2.81464418658466e-05 -4.03684916950614e-05 0.000292952142262511 -7.67698850661446e-05
"208" -0.00051303134810212 0.001018021215694 -0.000292680873130934 0.000360357133867567 -8.8232111048851e-08 0.000154695593092262 -8.84577603015276e-06 -0.000201791370053401 0.000895801826443004 0.000531790083024174 0.000766898984898329 -5.77054858768209e-05 1.96036042001041e-05 -4.37570558456572e-05 0.00028380215067912 -8.08724441983162e-05
"209" -0.000504664699842955 0.0010142149360653 -0.000285197589516838 0.000357413261883226 1.91555030517025e-05 0.0001493868709965 -1.15747441224974e-05 -0.000205778408193919 0.00089147678434297 0.00054530499198562 0.00077225481389853 -5.22044074654766e-05 1.16061264720389e-05 -4.7931906423695e-05 0.000273156234884892 -8.50337525810923e-05
"210" -0.000496813405199272 0.0010066761859223 -0.000277466184763231 0.000352228725523805 3.74769000697719e-05 0.000142999176252163 -1.56387479924181e-05 -0.000209921047537641 0.000885016316569863 0.000557216433481095 0.000775664320835307 -4.66920944265757e-05 4.08442046473773e-06 -5.29225793204821e-05 0.000260999374118387 -8.92848716584428e-05
"211" -0.000489615053847882 0.000995638158502298 -0.000269657610425168 0.000344886195625771 5.45703051934606e-05 0.000135478653367515 -2.10568432967812e-05 -0.000214266718448527 0.00087638383698166 0.000567326777734688 0.000777117572399948 -4.13353444288516e-05 -3.02923735010735e-06 -5.87570605940736e-05 0.000247331875353728 -9.36518527103409e-05
"212" -0.000483200257944535 0.000981361517562632 -0.000261937991603049 0.000335477291962636 7.01534735487606e-05 0.000126791129077821 -2.7821842714951e-05 -0.000218855845307039 0.000865564059511349 0.000575467478794925 0.000776620646614505 -3.62901632328156e-05 -9.80028417859871e-06 -6.5452190353173e-05 0.000232169900426362 -9.81563811546401e-05
"213" -0.000477673468529384 0.000964117856660269 -0.000254468079088068 0.000324120808539093 8.39583643224978e-05 0.000116906419834152 -3.59176243676557e-05 -0.000223726579656946 0.000852565722472632 0.000581487348615029 0.000774196265451425 -3.16995991209353e-05 -1.62916929572393e-05 -7.30064693601895e-05 0.000215550975789071 -0.000102812907790311
"214" -0.000473137108299467 0.0009441911031603 -0.000247396492569116 0.000310939585788119 9.57476869804738e-05 0.000105817993108992 -4.53079343282182e-05 -0.000228903899198474 0.000837422374763659 0.000585265984931351 0.000769883878047681 -2.77003045445969e-05 -2.25595731223136e-05 -8.14101654316743e-05 0.000197529949429919 -0.000107630847524669
"215" -0.000469666316603256 0.0009218710923968 -0.000240859308325827 0.000296066054503232 0.000105302244833318 9.35306736867353e-05 -5.59452859110647e-05 -0.000234408371394002 0.000820177476890458 0.000586710172299501 0.000763736116255598 -2.44064761107515e-05 -2.86567118793789e-05 -9.06465135077192e-05 0.000178172255965012 -0.000112612686414374
"216" -0.000467326533173889 0.000897459733712834 -0.000234983897525613 0.000279650981480932 0.000112447224774457 8.00619427839756e-05 -6.77631154543124e-05 -0.0002402498452168 0.000800906654006675 0.00058574873097984 0.000755822727185279 -2.19233949995893e-05 -3.46263476992653e-05 -0.000100679255571625 0.000157564198621549 -0.00011775221723438
"217" -0.00046615415645812 0.000871254731263121 -0.000229878594606799 0.000261837594096587 0.00011702846546252 6.54535536463425e-05 -8.06789608165982e-05 -0.000246427865481587 0.000779699562067706 0.000582344920702916 0.000746218512021318 -2.03383727141749e-05 -4.05068133249313e-05 -0.000111468960822403 0.000135808323800826 -0.000123041147159187
"218" -0.000466179821462942 0.00084355222015592 -0.000225644191654191 0.000242797545942977 0.000118932892593172 4.97531971613371e-05 -9.46016759675846e-05 -0.000252938595216264 0.000756662695194151 0.000576487550254873 0.00073502704180985 -1.97214692144006e-05 -4.63283590081135e-05 -0.000122956362534914 0.000113025158507369 -0.00012846275479307
"219" -0.00046740204027814 0.000814644702703446 -0.000222350408719565 0.000222687191838175 0.000118083646242138 3.30288434894184e-05 -0.000109420798377958 -0.000259764374286225 0.00073192689718129 0.000568190821673484 0.000722346719279938 -2.01251829769307e-05 -5.21141221784591e-05 -0.000135077669260417 8.9340576512814e-05 -0.000133993064627769
"220" -0.000469800720156447 0.000784822873293037 -0.00022005998160805 0.000201672303166092 0.000114444376711924 1.53628446538088e-05 -0.000125015636188346 -0.000266879892724927 0.000705633576840383 0.000557500531008585 0.000708291733436752 -2.15847853511162e-05 -5.78749669231262e-05 -0.000147760050456219 6.48991541793519e-05 -0.000139603782499608
"221" -0.000473351649728145 0.000754366030590775 -0.000218814284367726 0.000179929030279957 0.000108008839739306 -3.15544324261251e-06 -0.000141261530125571 -0.000274253015273946 0.000677940303887995 0.000544487701295926 0.00069299440580181 -2.41189698628159e-05 -6.36178504756073e-05 -0.000160916882886188 3.98555283405544e-05 -0.000145259155973939
"222" -0.000477994671639469 0.000723542727724303 -0.00021864578627819 0.000157626103671906 9.88131569662652e-05 -2.24181192459451e-05 -0.000158016458974804 -0.000281841757178866 0.000649018331283726 0.000529247123038707 0.000676586394111763 -2.77295677990853e-05 -6.93371403824942e-05 -0.000174456052755617 1.43760405955784e-05 -0.000150922709099335
"223" -0.000483655443078424 0.000692605244616211 -0.000219549936455851 0.000134932449970123 8.69381168553049e-05 -4.23078832528011e-05 -0.000175136579970418 -0.000289598919232318 0.000619048768334115 0.000511898121070118 0.000659204974626475 -3.23990377420622e-05 -7.50229023008925e-05 -0.000188278365256925 -1.13662565449477e-05 -0.000156548388517579
"224" -0.000490249920718521 0.000661799258947955 -0.000221518942973249 0.000112012795727964 7.24883480257211e-05 -6.2697000259154e-05 -0.000192468998478308 -0.00029746904521445 0.000588225082402961 0.000492584066186718 0.00064099998350846 -3.80925438542834e-05 -8.06524747182238e-05 -0.000202275751170243 -3.71924257504537e-05 -0.00016208941264575
"225" -0.000497670212622438 0.000631347483156076 -0.000224517010634683 8.90373322322171e-05 5.56164086808547e-05 -8.34538979736086e-05 -0.000209857604962709 -0.000305388798978338 0.000556743074255731 0.000471463417901613 0.00062211808356875 -4.476987668204e-05 -8.62002495912854e-05 -0.000216340435549288 -6.29202728182204e-05 -0.000167494658863854
"226" -0.000505791653800702 0.000601465314925895 -0.000228501613286716 6.61625887162482e-05 3.6499130848361e-05 -0.000104434317328239 -0.000227143358135105 -0.000313290918106521 0.000524807830824039 0.00044871867503183 0.000602713187649368 -5.23598143041447e-05 -9.16298322281095e-05 -0.000230352406155265 -8.8359998651885e-05 -0.000172712068648357
"227" -0.000514486882370386 0.000572337857847269 -0.000233400257548233 4.3547321209313e-05 1.53487413395647e-05 -0.000125488405553352 -0.00024416600579543 -0.000321101635269438 0.00049262746282013 0.000424542901610019 0.000582934486123288 -6.07943502390364e-05 -9.68977771656986e-05 -0.000244198419858251 -0.000113325155780387 -0.000177682807939908
"228" -0.000523605797152939 0.000544142841210615 -0.00023913447660017 2.1341888505743e-05 -7.59736412100399e-06 -0.000146467227355212 -0.000260765509349965 -0.000328748052799133 0.000460410168918506 0.000399143436119585 0.000562939396106245 -6.99869837055387e-05 -0.000101960502396942 -0.000257755204548956 -0.000137627340766598 -0.000182355569741788
"229" -0.000532992528176752 0.000517035582864368 -0.000245604546697723 -3.1247711437207e-07 -3.20713884351235e-05 -0.000167215747952842 -0.000276789726902277 -0.000336146161039908 0.00042836477250505 0.000372740644799537 0.000542877744314323 -7.98335427130879e-05 -0.000106760685852221 -0.000270901479275276 -0.000161079449457935 -0.00018666745497214
"230" -0.000542483546759318 0.000491151145674052 -0.00025269407578815 -2.12826933309028e-05 -5.7789362218493e-05 -0.000187575536355861 -0.000292079692983833 -0.000343213562945532 0.000396696209287569 0.000345560155059885 0.000522892943299779 -9.02317392932917e-05 -0.000111244847018317 -0.00028352746473394 -0.000183503727808063 -0.000190567224723258
"231" -0.000551907996111992 0.000466610159222933 -0.000260286476465424 -4.14322957811757e-05 -8.44464244010058e-05 -0.000207399466772815 -0.000306490503008725 -0.000349869874763466 0.000365605435996137 0.000317835950132169 0.000503133630298015 -0.000101068574744946 -0.000115348661637321 -0.000295500401476659 -0.000204720273203164 -0.000193997114068895
"232" -0.000561089516364063 0.000443509908126376 -0.000268240630428365 -6.06520779483e-05 -0.000111720807075419 -0.000226527320366667 -0.000319880849418409 -0.000356026632468459 0.000335287732631836 0.000289800311552831 0.00048373060707666 -0.000112220355995744 -0.000119009229051861 -0.000306720261779154 -0.000224567849355768 -0.000196904379451442
"233" -0.000569854667274455 0.000421935911621942 -0.000276414483506899 -7.882147518418e-05 -0.000139285255319688 -0.000244813453329664 -0.000332119013713488 -0.00036160777222546 0.000305930907425054 0.00026169330161086 0.000464824358929848 -0.000123566356879804 -0.000122162314862138 -0.000317071617738915 -0.000242880885314981 -0.000199235841035273
"234" -0.000578022259854314 0.000401946041942707 -0.000284654275275521 -9.58409172753628e-05 -0.000166799208841719 -0.000262117294952717 -0.000343083878236713 -0.000366526113803816 0.000277709778368059 0.000233745693292679 0.000446527987188576 -0.000134977288945475 -0.000124741702840695 -0.000326449952959266 -0.000259516751964022 -0.000200944841326996
"235" -0.000585419609097826 0.000383591521354995 -0.000292804003423163 -0.000111619931645369 -0.000193923098233792 -0.000278298604913666 -0.000352658689428203 -0.000370702927054116 0.000250793224313329 0.000206183046337986 0.000428961947825837 -0.000146327228507372 -0.000126682272540802 -0.000334759536187393 -0.000274335813398604 -0.000201987224247929
"236" -0.000591868448813994 0.000366905967648911 -0.000300701267367653 -0.000126073964707302 -0.000220316723180629 -0.000293231514655666 -0.00036074778776817 -0.000374065763251953 0.000225330972530252 0.000179232948170133 0.000412229642744153 -0.000157486930660149 -0.000127918681158871 -0.000341910649892731 -0.000287218486964034 -0.000202322422328155
"237" -0.000597211467194449 0.000351900944795094 -0.000308181771954977 -0.000139120873112437 -0.000245642656011263 -0.000306795802833741 -0.000367260174836798 -0.000376543506753092 0.00020146555645914 0.000153104669390598 0.000396428842990259 -0.00016833280086766 -0.000128387936505833 -0.000347820477119088 -0.000298055719030387 -0.000201918176118177
"238" -0.000601286522549841 0.000338583289875384 -0.000315085856767625 -0.000150701153157527 -0.00026957543090725 -0.000318883406471558 -0.000372130769227824 -0.000378069061166194 0.00017931993609824 0.000128001767009511 0.000381635878035417 -0.00017874453428123 -0.000128036743957236 -0.000352417450374961 -0.000306752911320801 -0.000200744165164567
"239" -0.0006039447245512 0.000326936209556381 -0.000321247576906332 -0.000160761512910853 -0.000291795635038216 -0.000329395816084991 -0.000375292988152845 -0.000378584520189747 0.000159002959645857 0.000104111513262551 0.000367931234407624 -0.000188605905028856 -0.00012680411075239 -0.000355641108006132 -0.000313237740143029 -0.000198776709872097
"240" -0.000605051024389814 0.000316945658160491 -0.00032651161390785 -0.000169241530098259 -0.000312002421339036 -0.000338251787685248 -0.000376712060112021 -0.000378037717668665 0.000140607924565283 8.16100119608648e-05 0.000355373277856532 -0.000197806239244711 -0.000124645089365441 -0.000357437138911148 -0.000317447276914888 -0.000195998974219467
"241" -0.000604483870357671 0.000308572059721377 -0.000330729813377218 -0.000176119831341128 -0.000329909442293108 -0.000345375982005382 -0.000376352365412489 -0.000376385818861226 0.0001242062787204 6.06501685765299e-05 0.000344008087940354 -0.000206246065508968 -0.000121513723899943 -0.000357769269769881 -0.000319344631856492 -0.000192402758084704
"242" -0.000602130252055612 0.00030177929396973 -0.00033375866948905 -0.000181350205412383 -0.000345253819006127 -0.000350715504644099 -0.000374211154756374 -0.000373592917530675 0.000109855538005718 4.13795227420343e-05 0.000333875592708412 -0.000213833491884657 -0.000117375673877376 -0.000356602824818521 -0.000318904899667727 -0.00018798110070245
"243" -0.000597898946209611 0.000296510535795066 -0.000335460479749961 -0.000184925458427323 -0.000357793774260596 -0.000354223577166921 -0.000370286693725138 -0.000369628624195652 9.75930029974628e-05 2.39146008089977e-05 0.000324999200164568 -0.000220486043935742 -0.000112200056469877 -0.000353928263878663 -0.000316125867136419 -0.000182743221508786
"244" -0.000591713037083126 0.000292716146547557 -0.000335719900827615 -0.000186827334792155 -0.000367311455978126 -0.000355877585787507 -0.000364611281978546 -0.000364482346500152 8.74372640864027e-05 8.35778084715595e-06 0.000317388367295894 -0.000226134242590692 -0.000105967419123108 -0.000349735839463907 -0.000311022485787222 -0.000176695397911973
"245" -0.000583520799981797 0.000290333452963189 -0.00033442027109523 -0.000187049983107481 -0.000373621389282033 -0.000355661480165645 -0.00035721239927575 -0.000358141641133914 7.93897278995993e-05 -5.20718494502105e-06 0.000311044097056062 -0.000230714480397686 -9.86624841873218e-05 -0.000344039008339036 -0.000303627003866348 -0.000169859059765301
"246" -0.000573278731962085 0.000289297760938609 -0.000331468331249298 -0.000185600169934217 -0.00037656334747069 -0.000353582346542733 -0.000348151945911549 -0.000350609816056483 7.34315241630344e-05 -1.67207249311656e-05 0.000305957006664818 -0.000234184655388996 -9.0282083802165e-05 -0.00033685382900852 -0.000293992473305916 -0.000162259781302256
"247" -0.000560969488093057 0.000289538793327751 -0.000326783656476268 -0.00018249008280733 -0.000376009929392745 -0.000349655566230481 -0.000337495133321698 -0.000341904501572143 6.95273492567207e-05 -2.61430972917805e-05 0.000302099390179895 -0.000236512505567289 -8.08346110723651e-05 -0.000328215981915683 -0.000282193419166121 -0.000153927207556715
"248" -0.000546599073453527 0.000290991596673476 -0.000320299187499353 -0.000177735732469092 -0.00037186304471832 -0.000343922032238214 -0.00032533194095079 -0.000332046080933555 6.76206482209737e-05 -3.3458044245739e-05 0.000299437817289629 -0.000237673390849879 -7.03314284222241e-05 -0.000318168310137586 -0.000268311956654044 -0.000144902866536567
"249" -0.000530187350183173 0.00029357710049858 -0.000311969082234008 -0.000171377463606915 -0.000364058976864061 -0.000336427637709783 -0.000311760347354223 -0.000321067324475421 6.7639559339892e-05 -3.86681277549915e-05 0.000297924621988396 -0.000237661541349073 -5.88030242755371e-05 -0.000306769553077175 -0.000252460763069052 -0.000135233196045676
"250" -0.000511775352214987 0.000297233321639114 -0.000301766338572033 -0.0001634341006187 -0.000352572251297193 -0.000327240219430645 -0.000296893050919812 -0.000309015977650691 6.94974000788348e-05 -4.17986268696935e-05 0.000297505966272606 -0.000236485328515027 -4.62783890077007e-05 -0.000294087236294314 -0.00023475628760299 -0.000124971680999581
"251" -0.000491436584561928 0.000301889632999002 -0.000289672767821301 -0.000153957060390209 -0.000337404418518027 -0.000316440829182153 -0.000280855198743642 -0.000295944963047419 7.30888576582197e-05 -4.28941187900096e-05 0.000298114152594315 -0.000234163582127836 -3.28062117145774e-05 -0.000280200903578835 -0.000215342042750615 -0.000114173480590995
"252" -0.000469248874430891 0.000307476499362126 -0.000275699375461496 -0.000143003576510683 -0.00031859449430623 -0.000304125118964812 -0.000263782955256697 -0.000281918839534632 7.82919335309897e-05 -4.20212798755795e-05 0.000299676017307129 -0.000230729024945454 -1.84421424246088e-05 -0.000265197456160231 -0.000194367331098396 -0.000102905065670905
"253" -0.00044532179760782 0.000313930947356624 -0.000259868080416905 -0.000130614841424784 -0.000296218891741951 -0.000290399862296314 -0.000245827440148588 -0.000267010947194027 8.49768209972468e-05 -3.92631995373824e-05 0.000302107041855487 -0.000226231187188918 -3.2470364464189e-06 -0.000249179797692074 -0.000171999186597717 -9.12356407618984e-05
"254" -0.000419776536456591 0.000321190673174087 -0.000242233066510507 -0.000116869216001927 -0.000270387904876132 -0.000275384250336054 -0.000227145267942936 -0.000251305174869305 9.29941614995574e-05 -3.47279135000339e-05 0.000305318919431585 -0.000220726117318993 1.27033191329526e-05 -0.000232251760290272 -0.000148412077386416 -7.92350732274858e-05
"255" -0.000392761334631351 0.00032919602616083 -0.000222850568122304 -0.000101824117151721 -0.000241241546440944 -0.000259212536305263 -0.000207894399421161 -0.00023489351530678 0.000102193144894055 -2.85326089089323e-05 0.000309217598847435 -0.000214284268470646 2.93286445986398e-05 -0.000214531200356707 -0.00012379865483668 -6.69845153514919e-05
"256" -0.000364428878906482 0.000337894653472757 -0.000201802077639253 -8.55639033136201e-05 -0.000208951964406219 -0.000242024309438288 -0.00018825258820742 -0.000217871001398695 0.000112400717422135 -2.0814463716232e-05 0.000313697485588076 -0.000206987800536854 4.65369118195991e-05 -0.000196139962764021 -9.8349368495234e-05 -5.4563634653707e-05
"257" -0.00033496196447799 0.000347235883792807 -0.000179186904658326 -6.81714761363588e-05 -0.000173730485241852 -0.000223973484378495 -0.000168390260044425 -0.000200346862503132 0.0001234447029801 -1.17259886243338e-05 0.000318656595134067 -0.00019892887277379 6.42327395301455e-05 -0.000177206630609272 -7.22721532993085e-05 -4.20521458441502e-05
"258" -0.00030455032554931 0.000357168247736607 -0.000155127371114158 -4.9732460968543e-05 -0.00013580934375333 -0.000205218089760365 -0.000148482920403975 -0.000182429391736267 0.000135143517334861 -1.42993421250796e-06 0.000323985906943579 -0.000190201963974002 8.23130382802425e-05 -0.000157861690094955 -4.57707051300313e-05 -2.95351992497656e-05
"259" -0.000273399108341849 0.000367652268842176 -0.000129754546885346 -3.03380781581601e-05 -9.54534543371543e-05 -0.000185923318350287 -0.000128716626855894 -0.000164237207919566 0.000147315024695391 9.89705503589785e-06 0.000329577900501249 -0.000180920605621821 0.000100667755385311 -0.000138241397382508 -1.90566334543253e-05 -1.70988977136914e-05
"260" -0.000241716345113439 0.000378651560059232 -0.00010320978424166 -1.00908875835427e-05 -5.2954248094116e-05 -0.000166254773267399 -0.00010926109652274 -0.000145888058639519 0.000159766705881485 2.20729335080085e-05 0.000335316246868501 -0.000171191853783348 0.00011918217127575 -0.000118490505764255 7.65630664366239e-06 -4.82681433773646e-06
"261" -0.000209728840308687 0.000390126797512095 -7.56616163251688e-05 1.09077675628826e-05 -8.6242106248736e-06 -0.000146392377574868 -9.02950006715188e-05 -0.000127503571699604 0.000172309470869233 3.49051413783584e-05 0.000341094854310467 -0.000161136293568956 0.00013773874858985 -9.874232560902e-05 3.41584395091126e-05 7.19599584680675e-06
"262" -0.000177666801002919 0.000402048350706724 -4.72813088364083e-05 3.25540313798155e-05 3.71975835824603e-05 -0.000126505080514465 -7.19916929132313e-05 -0.000109211151301204 0.000184756127353078 4.8195744875848e-05 0.000346803926745164 -0.000150879181674164 0.000156215207419126 -7.91380224677011e-05 6.02397246698385e-05 1.8885191827486e-05
"263" -0.000145766726881773 0.000414387473668524 -1.82506986743938e-05 5.47300991511285e-05 8.4163857080869e-05 -0.000106769002273829 -5.45101527216345e-05 -9.11327725208418e-05 0.000196918805894679 6.17491151839241e-05 0.000352335043969839 -0.000140538291662297 0.000174494132292323 -5.98203536423856e-05 8.56962340429265e-05 3.01639189899786e-05
"264" -0.000114261010926779 0.000427120805137768 1.12316745943713e-05 7.7334335739907e-05 0.000131898920254184 -8.73549417523963e-05 -3.80159819774568e-05 -7.33966347178067e-05 0.000208617821620405 7.53602347081065e-05 0.000357584787991462 -0.000130243178428224 0.000192448669148022 -4.09199939409087e-05 0.000110333136180139 4.09526873042761e-05
"265" -8.33920667828236e-05 0.000440218362473884 4.09661947696061e-05 0.000100236559040316 0.000180026406058573 -6.84320176449466e-05 -2.26610814125734e-05 -5.6119621570651e-05 0.000219676006376171 8.88303680819497e-05 0.000362455061149017 -0.000120115350514215 0.000209957846825102 -2.25719963481214e-05 0.000133956556064469 5.11769140416249e-05
"266" -5.33879254484236e-05 0.000453664065501134 7.07495490781055e-05 0.000123323107107339 0.000228154469326661 -5.01583606343707e-05 -8.57537185086533e-06 -3.94226572802772e-05 0.000229926385108611 0.000101964083837537 0.000366851990227821 -0.000110276092747342 0.000226904624673976 -4.90586154822712e-06 0.000156395344176855 6.07696372126025e-05
"267" -2.44814255742876e-05 0.000467442517051219 0.000100372318666185 0.000146478608903703 0.000275888767358978 -3.26929422423271e-05 4.10416945208791e-06 -2.34199979873844e-05 0.000239213930741222 0.000114572799591653 0.000370688013888208 -0.000100845131482384 0.000243169040572099 1.19543284441788e-05 0.000177476790258881 6.9665507561391e-05
"268" 3.10682554630311e-06 0.000481535169237386 0.000129621863302548 0.000169584723960863 0.000322835444395134 -1.61824514073776e-05 1.52710265951663e-05 -8.22245032503998e-06 0.000247390392089445 0.00012647365881399 0.00037388811238943 -9.19315176550903e-05 0.000258644812242665 2.79016538375766e-05 0.00019705492422601 7.78096090975361e-05
"269" 2.91662706524865e-05 0.000495919291377112 0.000158288641171071 0.000192514944874607 0.000368603668387686 -7.62438445701305e-07 2.48131373408758e-05 6.06798823944587e-06 0.000254323823353161 0.000137488235132998 0.000376373254961966 -8.36415542428251e-05 0.000273217624916668 4.28226838256487e-05 0.000214984638222089 8.5147388236537e-05
"270" 5.35001637297354e-05 0.000510583343662915 0.000186168909954719 0.000215150147195853 0.000412804930190994 1.3446459574983e-05 3.26531147959553e-05 1.93596715090543e-05 0.000259895522066362 0.000147462729143728 0.000378084308504275 -7.60739300057247e-05 0.000286795946186615 5.66164650252331e-05 0.000231150300072228 9.16374766659962e-05
"271" 7.59186351905348e-05 0.000525511894130996 0.000213055341652801 0.000237379438911224 0.000455065018609937 2.63260103354116e-05 3.87166180013621e-05 3.1563226545585e-05 0.000264000597715346 0.00015624147610074 0.000378969400194248 -6.93166197418296e-05 0.000299282785056846 6.91987161524317e-05 0.00024544939992209 9.72433578123505e-05
"272" 9.62552249981346e-05 0.000540692375547974 0.000238757555598488 0.000259087633351769 0.000495027413382131 3.77854636483478e-05 4.29499711757081e-05 4.26032594754008e-05 0.000266551822898428 0.000163696357193381 0.000378985466825734 -6.34490535213044e-05 0.000310596277185405 8.04939684196645e-05 0.000257794995952027 0.000101933654050801
"273" 0.000114364503097889 0.000556107042030036 0.000263090282549126 0.000280160562239274 0.000532347579754295 4.77399808292638e-05 4.53187887081342e-05 5.24132638987255e-05 0.000267482230891663 0.000169706614687692 0.000378095170328305 -5.85400090965259e-05 0.000320663333581541 9.04286564302965e-05 0.0002681203270988 0.00010568910069411
"274" 0.000130109609418977 0.000571748024477546 0.000285877383729342 0.000300501615879339 0.000566707277369546 5.61224831921443e-05 4.57938372365661e-05 6.09374472568412e-05 0.000266738406637146 0.000174175263484291 0.000376281563333829 -5.46422091911042e-05 0.000329422653108519 9.89545979289418e-05 0.000276382131000821 0.000108500404872433
"275" 0.000143388997026958 0.000587591624334983 0.000306961378351495 0.000320000316130703 0.000597819335701337 6.28839925783928e-05 4.43821402002291e-05 6.8133419132168e-05 0.000264286360533663 0.000177017324082541 0.000373529550881307 -5.17991810965998e-05 0.000336821115440159 0.000106024020965729 0.000282556350374392 0.000110361603456505
"276" 0.000154112789024786 0.000603628344192399 0.00032619385230941 0.000338572483367681 0.000625412363734601 6.79953544866095e-05 4.10895053965967e-05 7.39693341532844e-05 0.000260112207162422 0.000178174422457911 0.000369839712841257 -5.0043244452723e-05 0.000342821388479033 0.000111608068573665 0.000286640150234831 0.000111276121671191
"277" 0.000162221292679107 0.000619844056206228 0.000343443564842278 0.000356132987401394 0.000649262062254481 7.1435900976453e-05 3.59521870276434e-05 7.84249256208518e-05 0.000254220497564813 0.000177603074281817 0.000365224211903367 -4.939204980949e-05 0.000347392260973639 0.000115689408076757 0.000288645348513594 0.000111260879983158
"278" 0.000167676954496823 0.000636219047519803 0.000358598784875198 0.000372601938601412 0.000669167817456348 7.32111515387988e-05 2.90132416281687e-05 8.14959678331232e-05 0.000246632667955542 0.000175281451112946 0.000359703857084281 -4.98481870575863e-05 0.00035052186051312 0.000118265122893962 0.000288612154070943 0.00011033792250647
"279" 0.000170466162458694 0.000652739876809452 0.00037156953952018 0.000387914312691382 0.000684971587341104 7.33400865585779e-05 2.03386838371387e-05 8.31851868513329e-05 0.000237390957998419 0.000171207246509267 0.000353311237021994 -5.14006312601087e-05 0.000352207678416737 0.000119342064022744 0.000286597373573065 0.000108536010028872
"280" 0.000170604281328854 0.000669392115291778 0.00038228071405648 0.000402011520797515 0.000696553198502437 7.18560240068136e-05 1.00050361832173e-05 8.35159635840273e-05 0.000226552878921269 0.000165398077746591 0.000346089302801376 -5.40289705777727e-05 0.000352458873895952 0.0001189410058414 0.000282673713387253 0.000105891712835785
"281" 0.000168125976097622 0.000686151969035752 0.000390678240136016 0.000414852819182853 0.000703831206204136 6.88143276564054e-05 -1.89384129822777e-06 8.25148584163372e-05 0.000214195091077896 0.000157893162989416 0.000338090078783037 -5.76934162616164e-05 0.00035130270899876 0.000117094475265206 0.000276935317526889 0.000102455407280995
"282" 0.000163094271389176 0.000703007554368164 0.000396738547426463 0.000426400435045706 0.000706764417225097 6.42818299138011e-05 -1.52496612346774e-05 8.02283583331797e-05 0.000200409381311209 0.000148750947871595 0.000329372591858755 -6.23479744466811e-05 0.000348772147884485 0.000113849082535936 0.000269494171701358 9.82750962476173e-05
"283" 0.000155592196901693 0.000719944330925582 0.000400445460320471 0.000436641006412389 0.000705356165958737 5.83396107082963e-05 -2.99456270106028e-05 7.67111332925561e-05 0.00018530006424654 0.000138043815060878 0.000320013205524341 -6.7929078267071e-05 0.000344919343308137 0.000109267198069036 0.000260478315560401 9.34145912241133e-05
"284" 0.000145730834129694 0.00073693767190287 0.000401813043914396 0.000445560963443215 0.000699646895976289 5.1084350620252e-05 -4.58549727878161e-05 7.20277264920448e-05 0.000168991315587405 0.000125865120056767 0.000310085029287073 -7.43696120111306e-05 0.000339801285774964 0.000103411255717095 0.000250026723066638 8.79357350199542e-05
"285" 0.000133636180257261 0.000753978594400082 0.000400880389207947 0.000453166698321328 0.000689721343951804 4.26271281640435e-05 -6.28360882444862e-05 6.62560353834975e-05 0.000151615994804171 0.000112323982548892 0.00029967843690691 -8.15844412478781e-05 0.000333495846759602 9.63629512003189e-05 0.000238295274123401 8.19122071794824e-05
"286" 0.000119458518306552 0.000771044194112059 0.000397697955060473 0.000459477721472557 0.000675700532183352 3.30866665748206e-05 -8.07359279458275e-05 5.9481712459902e-05 0.000133317539231376 9.75438464447847e-05 0.000288884029725062 -8.94814995476641e-05 0.000326079818699818 8.82088611551189e-05 0.000225453146935733 7.54175672687669e-05
"287" 0.000103366590127064 0.000788122664904583 0.000392348163707826 0.000464531213418704 0.000657745227068938 2.25917348354776e-05 -9.94088310837524e-05 5.18014392096913e-05 0.000114251044096346 8.16582371145072e-05 0.000277795797287653 -9.79610055674052e-05 0.000317647037850624 7.90482034812158e-05 0.000211672690665528 6.85329633147351e-05
"288" 8.55426065409292e-05 0.000805197806031438 0.000384919867131971 0.000468372480927975 0.00063604586003789 1.12833941569822e-05 -0.000118684889474111 4.33140602422088e-05 9.45778186309981e-05 6.48138387314409e-05 0.000266523498711227 -0.000106918577236437 0.000308298746038094 6.89904258016812e-05 0.00019714068475804 6.13382503126943e-05
"289" 6.61842225724838e-05 0.000822254835337028 0.000375534983845191 0.000471065766501413 0.000610831888048507 -6.93330583656865e-07 -0.000138408596715896 3.41323184696874e-05 7.44675818551243e-05 4.71714811585491e-05 0.000255165429050345 -0.00011624002194602 0.000298144095097633 5.81404771410199e-05 0.000182046486228877 5.39218940552705e-05
"290" 4.5502088753476e-05 0.000839278215340308 0.000364321005645755 0.000472681930178313 0.000582361919887555 -1.31864299684299e-05 -0.000158412562487647 2.43689175317844e-05 5.40944439304199e-05 2.88901022472426e-05 0.000243838107793729 -0.000125810474603818 0.000287296872217542 4.66196737760543e-05 0.000166582572059199 4.6367821264966e-05
"291" 2.37129683181404e-05 0.000856255509779281 0.000351425955400781 0.000473310924433121 0.000550919355690117 -2.60417151519553e-05 -0.000178525523280763 1.41422431165946e-05 3.3631746385093e-05 1.01449326490796e-05 0.000232643493861761 -0.000135508353138762 0.000275878691035911 3.45524181758846e-05 0.000150949453603374 3.8764802561347e-05
"292" 1.04737384251143e-06 0.000873179679338995 0.000337014395160573 0.000473054983576385 0.000516814486275738 -3.91029932104174e-05 -0.000198586210846356 3.57801658393914e-06 1.32596368999111e-05 -8.89435267072111e-06 0.000221695093602211 -0.000145216172747426 0.000264016957476105 2.20625054820654e-05 0.000135341462157968 3.11992375588575e-05
"293" -2.2261302119587e-05 0.000890038156691578 0.00032125901045199 0.000472023231457418 0.000480375936786719 -5.22087112670531e-05 -0.000218427651351067 -7.20017086733484e-06 -6.84694478198698e-06 -2.80468463349419e-05 0.000211101338329598 -0.000154808440208475 0.00025183673244799 9.28120147867532e-06 0.000119957941094241 2.37585615734057e-05
"294" -4.59808646244746e-05 0.000906816292973571 0.000304341303239729 0.000470338838123981 0.000441946957766563 -6.52029823447757e-05 -0.000237895018135367 -1.80708788116796e-05 -2.65102387232772e-05 -4.71414027275315e-05 0.000200975388818017 -0.000164167540319848 0.000239467038937293 -3.66335343474108e-06 0.00010498810937378 1.65288309638067e-05
"295" -6.98719157002651e-05 0.000923517299322415 0.0002864592249057 0.000468132966700179 0.000401884795319591 -7.79267801839776e-05 -0.000256830369782332 -2.89030260636315e-05 -4.55629032125666e-05 -6.59986294167054e-05 0.000191417609684058 -0.000173177203775506 0.000227043562560164 -1.66391508124579e-05 9.062151839043e-05 9.59091311789639e-06
"296" -9.37024974215701e-05 0.00094013198706358 0.000267813453055107 0.000465547863624322 0.000360558609836125 -9.0231480179675e-05 -0.000275084954047998 -3.95761256915023e-05 -6.38336016321266e-05 -8.44504502447694e-05 0.0001825303987785 -0.000181720856512911 0.00021468827681331 -2.95187917231474e-05 7.70361030440522e-05 3.02571715708393e-06
"297" -0.000117246911971678 0.000956655318139751 0.000248600595646252 0.000462729078034118 0.000318333479762239 -0.00010196797469741 -0.000292523623019882 -4.99701868910707e-05 -8.11642603914106e-05 -0.000102328753444914 0.000174411899154088 -0.000189694555288543 0.000202532163794957 -4.21740420660792e-05 6.44036602360122e-05 -3.09171644418618e-06
"298" -0.000140276069139111 0.000973083761610966 0.000229037567081906 0.000459828842714433 0.000275587835417778 -0.000112993896509404 -0.000309010952543127 -5.99646861926845e-05 -9.74058798418524e-05 -0.000119475546971654 0.000167151642002005 -0.00019699405730606 0.000190702094016102 -5.4485475188513e-05 5.28860715443357e-05 -8.69161364718125e-06
"299" -0.000162577601233514 0.000989421724007193 0.000209322189418795 0.000457002421562587 0.000232686380783977 -0.000123174213885201 -0.000324428011463017 -6.94509541061065e-05 -0.00011241426092424 -0.000135741151805991 0.000160838044713109 -0.000203525438244004 0.000179312420617883 -6.63309737896739e-05 4.26332603661045e-05 -1.37048126139217e-05
"300" -0.000183951428516793 0.00100567020145696 0.00018966292555296 0.000454410124062343 0.000189995105421305 -0.00013238554419006 -0.000338664875493151 -7.832286368373e-05 -0.000126055360666131 -0.000150980850781619 0.000155548959113697 -0.000209206764155089 0.00016848029957569 -7.75960083738401e-05 3.37840138471729e-05 -1.80742648611736e-05
"301" -0.000204201622063628 0.00102182496395489 0.000170259936723864 0.000452206037532896 0.000147871387835616 -0.000140508660226356 -0.000351625333783424 -8.64794320144381e-05 -0.000138213487890741 -0.000165066975240348 0.000151353921958233 -0.000213962278678462 0.000158309030866929 -8.81781083998027e-05 2.64578671912935e-05 -2.17433976444281e-05
"302" -0.000223157111972482 0.00103789934518842 0.000151308475063458 0.000450549663568588 0.000106654432385783 -0.000147439285565162 -0.000363220065964507 -9.38273510188821e-05 -0.000148778308210054 -0.000177882254000894 0.000148314746568844 -0.000217723807623031 0.000148901446477307 -9.79759522487627e-05 2.07635753578069e-05 -2.46641863241354e-05
"303" -0.000240649088772609 0.00105389220197657 0.000132995884629266 0.000449591993492242 6.6669636289698e-05 -0.000153079600632143 -0.000373382434244462 -0.000100285465788902 -0.000157656796091498 -0.000189319680469177 0.000146480100260615 -0.00022044270190977 0.000140349540686943 -0.000106897740821416 1.67890054961048e-05 -2.67972590340636e-05
"304" -0.00025653525061805 0.0010698113624603 0.000115498578619003 0.000449486430796814 2.82271699760275e-05 -0.000157347911450845 -0.000382049759345532 -0.000105776374798316 -0.000164766435536716 -0.000199290965779992 0.000145899984131518 -0.000222077700835571 0.000132730853732356 -0.000114858676339956 1.46144335925639e-05 -2.8107668829247e-05
"305" -0.000270697026988281 0.00108566580322778 9.89799418593476e-05 0.000450371676893965 -8.38152763153931e-06 -0.000160171324039605 -0.000389174692190651 -0.000110240914402299 -0.000170045046695405 -0.00020772250575032 0.000146607911836861 -0.000222595823387778 0.00012612180034962 -0.000121783153044261 1.42960644428977e-05 -2.8571455000706e-05
"306" -0.000283017416721037 0.00110146127896366 8.35980016666338e-05 0.000452379841604093 -4.28956843049889e-05 -0.00016148806785807 -0.000394732509002949 -0.000113621234480037 -0.000173438002409059 -0.000214549963140946 0.000148621635409153 -0.000221989045851295 0.000120578745934545 -0.000127613797118551 1.58710325218255e-05 -2.81681675062488e-05
"307" -0.000293415626813128 0.00111720182492777 6.94909017908045e-05 0.000455629081252119 -7.50712624836419e-05 -0.000161255682548317 -0.00039870105322172 -0.000115875032635128 -0.000174914684747661 -0.000219731873345645 0.000151954659499342 -0.000220247377960931 0.000116153785783194 -0.000132297947604963 1.93598267115777e-05 -2.68905639229707e-05
"308" -0.000301823447318473 0.00113289870698806 5.6782661644817e-05 0.000460240414657565 -0.00010469107416417 -0.000159435557945078 -0.000401074368137372 -0.000116967224846032 -0.000174449590233109 -0.000223239845319994 0.000156611789128201 -0.000217383013830283 0.000112885071618747 -0.000135785649051575 2.47711349314343e-05 -2.47348143607139e-05
"309" -0.000308198296887326 0.00114855350168176 4.5580002041899e-05 0.00046630288476133 -0.000131568851615038 -0.000156010980375287 -0.000401867061445358 -0.000116876665261715 -0.000172045731995462 -0.000225062755675375 0.000162584487721371 -0.000213423626218131 0.000110798816981152 -0.000138050942465582 3.20867952478209e-05 -2.17043750383587e-05
"310" -0.000312512162491812 0.00116417062604967 3.59752055944021e-05 0.00047390207794203 -0.000155545224807404 -0.000150971168002904 -0.000401100980556556 -0.000115593699910638 -0.00016770965511427 -0.000225204268026075 0.000169848865053511 -0.00020839996585965 0.000109912126275271 -0.00013907102880112 4.12774464826618e-05 -1.78142909346191e-05
"311" -0.00031476513434013 0.00117975331836584 2.80408568335604e-05 0.000483100484169411 -0.000176484992067025 -0.000144323775062907 -0.000398809594434176 -0.000113118499726484 -0.000161473089906971 -0.000223688970637061 0.000178376111370032 -0.000202360785910214 0.000110229217976932 -0.000138837909084537 5.229252666604e-05 -1.30869790740172e-05
"312" -0.000314971702714531 0.00119530082047699 2.18305904908446e-05 0.000493956411858058 -0.000194291046933342 -0.000136085804688177 -0.000395046336342625 -0.000109459977276563 -0.000153376528875627 -0.000220549765999904 0.000188127234124636 -0.000195372267741867 0.000111737779761914 -0.000137348940322616 6.5068404250073e-05 -7.54759828886151e-06
"313" -0.000313177852087224 0.00121081274420799 1.73802394621327e-05 0.000506491857305987 -0.000208889441504527 -0.000126283587268651 -0.000389862207114437 -0.00010464299070345 -0.000143477771632094 -0.000215842054324818 0.000199049872380343 -0.000187497423113104 0.000114420537474589 -0.000134616667807068 7.95220080310731e-05 -1.23399540383896e-06
"314" -0.000309435626261435 0.00122628098104972 1.47080482639345e-05 0.000520720612877661 -0.00022024026141283 -0.000114959201766213 -0.000383334076032711 -9.86960912379229e-05 -0.000131847522402559 -0.000209631083720348 0.000211082822602684 -0.000178825397885552 0.000118246448437562 -0.000130666295384749 9.5560040740284e-05 5.81434244801036e-06
"315" -0.000303826987318705 0.00124170169360627 1.3808419208092e-05 0.000536643659242955 -0.000228328307237088 -0.000102166601906699 -0.000375533630445143 -9.16626205677855e-05 -0.000118572082248484 -0.000201997366082616 0.000224159381269801 -0.000169441506645159 0.000123175687548814 -0.00012552398134514 0.000113077119743067 1.35481650094773e-05
"316" -0.000296447015671982 0.00125706242653661 1.46592594854414e-05 0.000554230570163653 -0.000233175415597026 -8.79649640814154e-05 -0.000366556177770537 -8.35935836229215e-05 -0.000103747012936372 -0.000193039068884703 0.000238199995864414 -0.000159449925532439 0.000129156147275541 -0.00011922912336009 0.000131947417068369 2.19128234783194e-05
"317" -0.000287405844498322 0.00127235012681717 1.72247556118917e-05 0.000573435217361555 -0.000234821976712776 -7.24312853187056e-05 -0.000356490635397643 -7.45453752351667e-05 -8.74866153807765e-05 -0.000182860834350803 0.000253121487703237 -0.000148957130525862 0.000136129210898626 -0.000111833317351245 0.000152043648082932 3.08512283172934e-05
"318" -0.000276829238717638 0.00128754457067143 2.14473975175088e-05 0.000594192585458207 -0.000233345298079096 -5.56392613061779e-05 -0.000345443496616109 -6.45861327462983e-05 -6.99050384428365e-05 -0.000171578938476153 0.000268825136484623 -0.000138075585430556 0.000144025376904739 -0.000103394442621769 0.000173219784291659 4.02982269838775e-05
"319" -0.0002648662207826 0.00130262544454977 2.72475981293916e-05 0.000616415952674239 -0.000228842198702041 -3.76825075410994e-05 -0.000333517294151394 -5.3793861468025e-05 -5.11387362525167e-05 -0.000159323490618478 0.000285216440889019 -0.000126923151373381 0.000152767318767828 -9.39754380248497e-05 0.000195330322066821 5.01843752429584e-05
"320" -0.000251668162529185 0.00131757429665947 3.45343198235046e-05 0.000640010356214139 -0.000221440617618146 -1.8655882754017e-05 -0.000320827391849472 -4.22441856478071e-05 -3.1319672544838e-05 -0.000146230308144002 0.000302193370776965 -0.000115623787521793 0.000162276098076122 -8.36432695591663e-05 0.000218220208066328 6.04426537264667e-05
"321" -0.000237399169896486 0.00133235313033304 4.32044312964277e-05 0.000664839768797606 -0.0002112874718884 1.34426400565389e-06 -0.000307484375727387 -3.00260889562429e-05 -1.06001923844477e-05 -0.000132442041231985 0.000319641687972032 -0.000104298255123675 0.000172455992572441 -7.2478291283865e-05 0.000241723320245533 7.09952649699075e-05
"322" -0.000222234256356008 0.00134693991925337 5.313476102151e-05 0.000690769559177966 -0.000198551250257295 2.22072822560649e-05 -0.000293601978080834 -1.72249627938449e-05 1.08719729263039e-05 -0.000118103674486656 0.000337451701673206 -9.30748077040522e-05 0.000183221712310627 -6.05597869564088e-05 0.000265686530136551 8.1768238845142e-05
"323" -0.000206352324769923 0.00136129712874674 6.41943018376032e-05 0.000717644121213212 -0.000183424266548623 4.38269766574381e-05 -0.000279301394578999 -3.93552799909515e-06 3.29374594489114e-05 -0.000103373550760256 0.000355511004794241 -8.207487149827e-05 0.000194472330828777 -4.79691908273193e-05 0.00028994011491367 9.26822159258759e-05
"324" -0.000189939584365043 0.00137538773019114 7.62334937748544e-05 0.000745287922059956 -0.000166110427750127 6.60913715765196e-05 -0.000264693231372847 9.74618893540411e-06 5.54403825458257e-05 -8.84031352832061e-05 0.000373703111445028 -7.14227607570192e-05 0.000206110066877392 -3.47993995840341e-05 0.000314320606288666 0.00010366249505703
"325" -0.000173183181724453 0.00138917224876769 8.9102218330125e-05 0.000773516526925553 -0.000146837758486615 8.888853362169e-05 -0.00024989298986769 2.37264787523856e-05 7.82163376313594e-05 -7.33509127958953e-05 0.000391909668813701 -6.12350955053589e-05 0.000218033669273317 -2.11360691387486e-05 0.000338669113643446 0.000114628419949976
"326" -0.000156273497526736 0.00140261178531043 0.000102633907251411 0.000802127016804611 -0.000125836915361049 0.00011210329914817 -0.000235007392966086 3.79067213381266e-05 0.000101105054635719 -5.83680275453851e-05 0.000410018942808711 -5.1627345766662e-05 0.000230141224553837 -7.06980914588515e-06 0.000362826923192415 0.000125507403844734
"327" -0.000139391996488795 0.00141566067635182 0.000116662674498653 0.000830916250721589 -0.000103362825532583 0.000135623914650896 -0.000220147821785747 5.2192309880045e-05 0.000123947134454072 -4.36089461748036e-05 0.000427917399010776 -4.27046035811295e-05 0.000242335174848313 7.30949415030668e-06 0.0003866420745199 0.000136219359532485
"328" -0.000122723160299011 0.00142827829748 0.000131015268380413 0.000859662114901355 -7.96600586725885e-05 0.000159342396025944 -0.000205409298371795 6.64922124333932e-05 0.000146584047711585 -2.92230017181424e-05 0.000445495487718187 -3.45675343977529e-05 0.000254518131613832 2.19104293834342e-05 0.000409970263936617 0.000146694969096277
"329" -0.000106443246757974 0.00144041673740613 0.000145512634987354 0.000888141100544717 -5.49966655690698e-05 0.000183148181115078 -0.000190890951266467 8.07114209074861e-05 0.00016886414416191 -1.5348283796758e-05 0.000462648475361811 -2.73100819249959e-05 0.000266592088765451 3.66495458620311e-05 0.000432677412320356 0.000156864615202824
"330" -9.07227364226642e-05 0.00145203433556844 0.000159981871238118 0.000916123108257376 -2.96305983974896e-05 0.00020693961701469 -0.000176677332965706 9.47664981661105e-05 0.000190639967265014 -2.12677401253254e-06 0.00047927723858551 -2.10128768489719e-05 0.00027846709867854 5.14387647605876e-05 0.000454633242772399 0.000166662760417531
"331" -7.57148785197199e-05 0.0014630866739896 0.00017424474231634 0.000943383054148684 -3.82449092170189e-06 0.000230616249145826 -0.000162848459388772 0.000108574661180388 0.000211769877055801 1.03209310748798e-05 0.000495289160779457 -1.5747722052545e-05 0.000290062842317857 6.61997594175248e-05 0.000475730065249189 0.000176027609351187
"332" -6.15686875335829e-05 0.00147353018756483 0.000188132926919561 0.00096968921538925 2.2161537059787e-05 0.000254088487019313 -0.000149475614036405 0.00012206118633869 0.000232123712051252 2.1878983917298e-05 0.000510599406103086 -1.15710148974483e-05 0.000301297338983158 8.08529783228721e-05 0.000495861733814632 0.000184903037269765
"333" -4.84121032735986e-05 0.00148332151256276 0.000201481342644348 0.000994809289946826 4.80814624850308e-05 0.000277269590252964 -0.000136621725961506 0.000135155932163031 0.000251581654788412 3.243883390081e-05 0.000525130753665147 -8.53457728750698e-06 0.0003120969792739 9.53241247173675e-05 0.00051493715193352 0.000193239568116125
"334" -3.63700993619015e-05 0.00149242645717559 0.000214129692960129 0.00101853729893911 7.368679722252e-05 0.000300077971759758 -0.000124340036566208 0.000147793524891503 0.000270029567720147 4.19119205427477e-05 0.000538812965419212 -6.67101556825785e-06 0.000322401369696254 0.000109548815315915 0.000532884321406509 0.000200990275789073
"335" -2.5535756800592e-05 0.00150080306180154 0.000225928710931554 0.00104064681636572 9.87455018328463e-05 0.000322443857440938 -0.000112672541039629 0.000159920395293606 0.000287369132598021 5.02153740074115e-05 0.000551590099819669 -6.00522210044247e-06 0.000332147697851269 0.00012346523908698 0.000549641290782256 0.000208118244839679
"336" -1.59968745164948e-05 0.00150841787124574 0.000236738659986253 0.0010609429598748 0.000123047055199113 0.000344304791487123 -0.000101650335558541 0.000171489128336017 0.000303513662199502 5.72872186425859e-05 0.000563415323703643 -6.54276599398222e-06 0.000341292337710873 0.000137020233212051 0.000565164414864415 0.000214590324426988
"337" -7.81957146451326e-06 0.00151524292693515 0.000246439943974271 0.00107923991066381 0.000146387054191322 0.000365606279257223 -9.12976891456617e-05 0.000182463079127155 0.000318390972152847 6.3079873481924e-05 0.000574248047532447 -8.27919404248993e-06 0.000349800311420071 0.000150164122313278 0.000579419071878746 0.000220382089509576
"338" -1.04497669768314e-06 0.00152124983052151 0.000254913373878842 0.0010953645985528 0.000168585343447837 0.000386299742219793 -8.16280976315505e-05 0.000192807566981602 0.000331939449125767 6.75554971519767e-05 0.000584065767104887 -1.11991322406048e-05 0.000357636711978177 0.000162858110057571 0.000592394572618042 0.000225477600065668
"339" 4.29787883368116e-06 0.0015264157234371 0.000262068703651173 0.00110916307479108 0.000189486075088689 0.000406352187677779 -7.26426696916647e-05 0.000202503983028032 0.000344116754417362 7.069415769006e-05 0.000592855356529353 -1.5264799421015e-05 0.000364790228240898 0.00017506916665667 0.000604089571174689 0.000229864841001008
"340" 8.20554432586194e-06 0.00153072038427954 0.000267825607794685 0.00112049756021726 0.000208954509155704 0.000425736385316209 -6.43339348891773e-05 0.000211540504760632 0.000354889999623578 7.24960162604288e-05 0.000600606610610535 -2.04376039719103e-05 0.00037124669575309 0.000186767741799189 0.000614514953950265 0.000233538957216505
"341" 1.06895229284428e-05 0.00153415140238067 0.000272119099633216 0.00112926124236536 0.000226873311014574 0.000444428712527457 -5.6687755010615e-05 0.000219913425045284 0.000364246073135567 7.2972630676138e-05 0.000607333505373205 -2.66586261601678e-05 0.000377010715417606 0.000197933161297783 0.000623700300466425 0.000236502970734644
"342" 1.17805435572928e-05 0.00153669547029124 0.000274908400288636 0.00113535730059382 0.000243159988976624 0.000462425079072625 -4.96736354303757e-05 0.000227623928972676 0.000372184639849807 7.21497901835751e-05 0.000613052500157484 -3.38619130021391e-05 0.000382086623049162 0.000208556628892788 0.000631685621728804 0.000238767960157951
"343" 1.15326770747066e-05 0.00153834722458956 0.000276164217460916 0.00113872557334185 0.000257755080276073 0.00047971797485956 -4.32671285797696e-05 0.00023468995362811 0.000378720052898365 7.00710482593826e-05 0.000617794664841049 -4.19648865834102e-05 0.000386497862472759 0.000218633171317381 0.000638524309275764 0.000240351730156984
"344" 1.001543693634e-05 0.00153910597299938 0.000275883523032487 0.00113932437389279 0.00027062994556017 0.000496317095678383 -3.74227454462118e-05 0.000241131048200779 0.000383881037599216 6.67929272343938e-05 0.00062160068797641 -5.08805951574803e-05 0.000390273617441926 0.000228162371313927 0.000644282960535425 0.00024127717976318
"345" 7.31187780649573e-06 0.00153896754964978 0.000274076663385083 0.0011371379889524 0.000281778938739693 0.000512236516562287 -3.20960768593558e-05 0.000246976706998092 0.000387708384758473 6.2386552566357e-05 0.000624521104671758 -6.05096764330096e-05 0.000393445644219981 0.000237150648925484 0.000649029926510449 0.000241574510682746
