"V1" "V2" "V4" "V5" "V7" "V8" "V10" "V11" "V13" "V14" "V15" "V17" "V18" "V20" "V21" "V23"
"1" 0.000975114171628401 0.000853268368867665 0.000366373173691913 0.000781860621293689 0.000105866934368351 0.000248064794927108 1.1107582871156e-05 -6.31164692727298e-05 -0.000246812293378531 -0.000140410900249129 -0.000362853749229025 -0.000463969613328173 -0.000146896962435685 -7.06755797038432e-05 -0.000145731868547394 -0.000167058485823654
"2" 0.000960959454085698 0.000841475999474957 0.000351129523981228 0.000760922115474945 9.19771118028677e-05 0.00022563685772773 1.73010143931876e-05 -7.28848209792882e-05 -0.000245173711486909 -0.000163816807963374 -0.000365070797265826 -0.000494810615631502 -0.000173813728141792 -8.99778175176128e-05 -0.000160259327496424 -0.000177644641865046
"3" 0.000946744159570144 0.000828393605942526 0.00033500544812353 0.000736137790728737 7.67589552100818e-05 0.000202561504077822 2.27969983874801e-05 -8.28523306984127e-05 -0.000243886810316454 -0.000187666256903726 -0.000367827720225165 -0.000525003515668468 -0.000200886702394867 -0.000109818617483405 -0.000174944439505164 -0.000188123716791645
"4" 0.000932530861661165 0.000814116466716486 0.000318069911042864 0.000707552559019233 6.02580479860718e-05 0.000178981660057795 2.75576159978721e-05 -9.29802673207975e-05 -0.000242953070554159 -0.000211816554672649 -0.000371020653746068 -0.000554340657835357 -0.000227992195983229 -0.000130136658366242 -0.000189651536249736 -0.000198461376144246
"5" 0.00091838531592241 0.000798747057421936 0.000300400594145991 0.000675237534101767 4.25319514491677e-05 0.000155046000721818 3.15464591286238e-05 -0.000103224801398349 -0.000242371763582723 -0.00023612610791982 -0.000374560920719545 -0.000582615856066939 -0.000255009915695337 -0.000150880954105623 -0.000204253725236021 -0.000208620077719845
"6" 0.000904351663987401 0.000782386895493187 0.000282078928645289 0.000639309534516213 2.36468693684241e-05 0.000130892322845599 3.47440025764374e-05 -0.00011354219188168 -0.000242137698995305 -0.000260451841386049 -0.000378343197564958 -0.000609644827349795 -0.000281825549989043 -0.000171979300964537 -0.000218619480493338 -0.000218566378942959
"7" 0.000890480597848448 0.000765144484168762 0.000263186821341554 0.00059991229990686 3.67699616246065e-06 0.000106671752176724 3.71362897676991e-05 -0.00012388712749595 -0.000242239951384333 -0.000284651240688169 -0.000382275606050955 -0.000635250808844319 -0.000308323825526973 -0.00019337652779329 -0.000232625902039288 -0.000228268818549777
"8" 0.000876802544316824 0.000747125221925106 0.000243813447007544 0.000557217588573613 -1.72926611217582e-05 8.25256155264355e-05 3.87183202917001e-05 -0.000134211107124567 -0.000242665000489593 -0.000308593582042803 -0.000386262343334628 -0.000659273140464443 -0.00033439337371316 -0.000215008580253804 -0.000246154014251846 -0.000237692784238284
"9" 0.000863346953994311 0.000728433020237272 0.000224040682589126 0.000511426672093834 -3.91714878423743e-05 5.85909071867886e-05 3.94876617750151e-05 -0.000144470663097451 -0.000243398172312029 -0.000332141401582432 -0.000390207272554623 -0.00068157085868165 -0.00035993220726732 -0.000236805874713793 -0.000259087636375481 -0.000246806602489786
"10" 0.000850134385603491 0.000709175454592573 0.000203959775776182 0.000462775778712481 -6.18594706613265e-05 3.50059613894869e-05 3.94566066447877e-05 -0.000154618951104779 -0.00024441223448121 -0.000355167046612993 -0.000394018778656784 -0.000702017691500641 -0.000384831663353482 -0.000258700283728862 -0.000271314902812731 -0.000255580287748064
"11" 0.000837178225546365 0.000689462494923012 0.00018365810078805 0.000411521138864195 -8.52533302914352e-05 1.19025701464255e-05 3.86456040302691e-05 -0.000164607655799572 -0.000245686069583005 -0.000377551420979346 -0.000397609574711762 -0.000720497950280712 -0.000408998624914939 -0.00028062624186013 -0.000282734539626597 -0.000263984197925578
"12" 0.000824487143916614 0.000669391663654313 0.000163222982878754 0.000357935062191784 -0.000109241795987548 -1.0591103549098e-05 3.70747879216084e-05 -0.000174397189743215 -0.000247185541663702 -0.000399177467289261 -0.000400893428670056 -0.000736920672172837 -0.00043234025739273 -0.000302511616269914 -0.000293252632595538 -0.000271989236147046
"13" 0.00081206600207829 0.00064907260714211 0.000142738768624463 0.000302318296476274 -0.000133708441310387 -3.23557952386788e-05 3.47768095716229e-05 -0.000183939167936044 -0.000248880206134459 -0.000419938312144953 -0.000403789145860614 -0.000751207210934296 -0.000454769600723003 -0.000324287809856784 -0.000302773660263413 -0.000279569113579033
"14" 0.000799909066124985 0.00062860762736425 0.000122294084697432 0.000244986481109214 -0.000158540460455771 -5.32776677713818e-05 3.17939721494255e-05 -0.000193195673449099 -0.000250728500122566 -0.000439731457405088 -0.000406226654156562 -0.000763297102037451 -0.000476206466312598 -0.000345888045799197 -0.000311222976935177 -0.000286698067863312
"15" 0.000788010552932445 0.000608093182761545 0.000101973925780169 0.000186255264490524 -0.000183608967640664 -7.32444413338122e-05 2.81659407352759e-05 -0.000202119659317457 -0.000252695939387959 -0.000458466206686638 -0.000408131819119494 -0.000773142376011758 -0.000496572527073321 -0.000367241179867563 -0.000318519675213363 -0.000293349740741932
"16" 0.000776358625129124 0.000587635124549619 8.18601308586058e-05 0.000126470956539446 -0.000208793344188264 -9.21604207702095e-05 2.39460601201553e-05 -0.000210676284773556 -0.000254731446405827 -0.000476056351716797 -0.000409439114917775 -0.000780719000494205 -0.000515802123195026 -0.000388278242376153 -0.00032460288578207 -0.000299502716570962
"17" 0.000764938351812723 0.00056732367156071 6.20319390501983e-05 6.59730469609154e-05 -0.00023397447120363 -0.000109933175920967 1.91893629705568e-05 -0.000218825900477929 -0.000256793770854625 -0.000492428921818877 -0.000410091932447733 -0.000786007943003764 -0.000533829466562377 -0.000408930953195987 -0.000329410629248977 -0.000305135163598028
"18" 0.000753735575909248 0.000547249721802677 4.25670133222935e-05 5.09824685611286e-06 -0.000259020243347136 -0.000126475462840832 1.39520612655078e-05 -0.000226533414603791 -0.000258832049465983 -0.000507520244613241 -0.000410038864707899 -0.000789012021922899 -0.000550595356212861 -0.000429137269856667 -0.000332899239155007 -0.000310224862371716
"19" 0.000742728232430225 0.000527515061095674 2.35387227650289e-05 -5.57973931972283e-05 -0.000283811549940666 -0.000141715562231986 8.30303038051211e-06 -0.000233767469500553 -0.000260794605481478 -0.000521269598094997 -0.000409225964522397 -0.000789745491882209 -0.000566050686913454 -0.000448823156000162 -0.000335020623556362 -0.00031475471378802
"20" 0.00073190206423582 0.000508191839405359 5.01774047875366e-06 -0.000116384097245713 -0.000308226138168039 -0.000155583089699594 2.30924295985612e-06 -0.000240495233981611 -0.000262630876517427 -0.00053363459635134 -0.000407619665190828 -0.000788235322317648 -0.000580147979667974 -0.000467930176222701 -0.000335742280168611 -0.000318704618368032
"21" 0.000721230618289692 0.000489377844557555 -1.29302625446461e-05 -0.0001763189259231 -0.000332147270072938 -0.000168022697206642 -3.963822368484e-06 -0.000246688667271148 -0.000264284125346282 -0.000544574040905257 -0.000405180475877433 -0.000784523123268126 -0.000592845063910219 -0.000486389736642938 -0.000335043060099557 -0.000322058047783804
"22" 0.00071069714666457 0.000471147160093547 -3.02422575661974e-05 -0.000235277388832549 -0.000355456235876693 -0.000178982965605276 -1.04397931074798e-05 -0.000252321364966631 -0.000265695369849822 -0.000554061856586015 -0.000401876643129675 -0.000778658978828131 -0.000604106964143737 -0.000504145069805228 -0.000332898661457053 -0.0003248015425533
"23" 0.000700282995573153 0.000453578036814953 -4.68588267627326e-05 -0.000292951579918635 -0.000378042443485193 -0.000188424764407937 -1.70442040360801e-05 -0.000257371231410402 -0.000266817368353563 -0.000562077229576436 -0.000397689583598198 -0.000770703141830908 -0.000613898656418793 -0.000521134335158876 -0.000329300460281424 -0.000326921639888807
"24" 0.000689969524003103 0.000436742083471866 -6.27273255978929e-05 -0.000349031829433348 -0.000399797234810126 -0.000196315142516942 -2.37041012800715e-05 -0.000261814862408413 -0.000267588824629252 -0.000568611064063856 -0.000392597764307788 -0.000760730049565438 -0.00062220050869969 -0.000537297131213896 -0.000324245846676673 -0.000328404416656765
"25" 0.000679741409926101 0.000420709073549431 -7.77999791224036e-05 -0.000403231874239566 -0.000420624817433824 -0.000202632742039625 -3.03436223004466e-05 -0.000265638187710115 -0.000267952825191763 -0.000573659993292288 -0.000386590228112206 -0.000748820160467005 -0.000628993124144524 -0.000552580821370992 -0.000317740410689915 -0.000329239832399007
"26" 0.000669589462918843 0.000405543630941624 -9.20290444952015e-05 -0.0004552963382198 -0.000440422761007447 -0.000207360293501178 -3.68867182564764e-05 -0.000268822431263084 -0.000267857014595561 -0.000577231869028386 -0.00037966020780325 -0.000735058241032507 -0.000634254405018745 -0.000566934173133229 -0.000309793893559336 -0.00032941716860297
"27" 0.000659499411924481 0.000391303394784519 -0.000105380904081529 -0.00050496620887313 -0.000459106894068185 -0.000210495270763431 -4.32616782789872e-05 -0.000271355371814761 -0.000267246579983208 -0.000579342164789748 -0.000371799573851405 -0.000719538411382249 -0.000637975120387046 -0.000580298486407042 -0.000300421121394488 -0.00032892667013707
"28" 0.000649468019541201 0.00037804524595555 -0.000117816097739851 -0.000552025047719667 -0.000476593532615848 -0.000212032769959513 -4.93932177121295e-05 -0.000273228167499947 -0.000266066841684196 -0.000580011025273144 -0.000363018146131455 -0.000702362522327628 -0.000640149345630462 -0.000592631302854221 -0.000289648728289386 -0.000327763862230202
"29" 0.000639488150393899 0.00036581714113968 -0.000129310915292667 -0.000596265180948142 -0.000492808830436967 -0.000211987270855514 -5.52170866770462e-05 -0.000274435125385383 -0.000264269948334141 -0.000579270003938594 -0.000353314869366495 -0.000683632111931212 -0.000640773409959664 -0.000603882214647114 -0.00027750121702127 -0.000325918778243736
"30" 0.000629569548466615 0.000354661050652341 -0.000139837596352896 -0.000637507390426651 -0.000507685647255016 -0.000210373639002617 -6.06625273305848e-05 -0.000274966319608102 -0.000261806170136899 -0.000577149601766478 -0.000342704900730173 -0.000663458221069887 -0.000639849406513603 -0.00061400982628304 -0.000264015983966812 -0.000323387833138698
"31" 0.000619716616449651 0.000344617317069906 -0.000149380490018146 -0.000675596196767858 -0.000521167462996125 -0.000207211308363704 -6.56636636281466e-05 -0.000274823892536973 -0.000258622448782645 -0.000573693598709811 -0.000331200061108203 -0.000641949232482565 -0.000637380339354852 -0.000622976949683153 -0.000249233047548975 -0.000320166140935022
"32" 0.00060993348091922 0.000335715611929498 -0.000157929639776672 -0.000710406901448741 -0.000533202427633803 -0.000202534585506157 -7.01689326480465e-05 -0.000274007189747139 -0.000254683937950378 -0.000568949086327045 -0.000318817193016725 -0.00061921518848095 -0.000633375266101444 -0.000630736833051054 -0.000233194995055967 -0.000316246052200531
"33" 0.000600245888640304 0.00032797807120033 -0.000165474395991527 -0.000741835304862387 -0.000543752283423177 -0.000196374069958189 -7.41203809567611e-05 -0.000272519275724738 -0.000249942068152777 -0.000562965748765262 -0.000305574197774269 -0.000595371924571936 -0.000627847744751598 -0.000637261238185863 -0.000215950575086331 -0.000311631405378039
"34" 0.00059066911662396 0.000321421347627989 -0.000172014202688129 -0.00076980756665646 -0.000552777876586796 -0.00018877200012493 -7.74734734720868e-05 -0.000270366911262075 -0.000244365569271558 -0.000555798959272599 -0.000291498975889609 -0.000570532282038084 -0.000620810469857248 -0.000642518102015127 -0.000197551447741866 -0.000306313680939893
"35" 0.000581229941482687 0.000316060750405674 -0.000177550651154056 -0.00079427113018563 -0.000560260438452405 -0.000179774536129218 -8.01824591673574e-05 -0.000267550341424337 -0.000237914866550279 -0.000547503223933939 -0.000276609922782894 -0.000544806858878654 -0.000612281086947063 -0.000646475171695221 -0.000178055329163797 -0.000300294863473439
"36" 0.000571958546301099 0.000311895467612166 -0.00018209453032709 -0.00081520455140991 -0.000566182292029077 -0.000169432325296837 -8.2214919487429e-05 -0.000264086977332746 -0.000230561800670974 -0.000538144806013633 -0.000260939450142221 -0.00051830890878671 -0.000602286446953509 -0.000649112460653524 -0.000157519184007467 -0.000293571523679886
"37" 0.000562893113635744 0.000308916928387674 -0.000185657504990958 -0.00083262061324592 -0.000570538771227665 -0.000157798359746626 -8.35392610996284e-05 -0.000259982406912562 -0.000222278820505076 -0.000527783546437452 -0.000244515308393329 -0.000491142033801233 -0.000590848163403889 -0.000650409128300892 -0.0001360079079295 -0.000286147565156668
"38" 0.000554065108179907 0.000307114691998282 -0.00018825846774328 -0.000846547836715848 -0.00057333023132604 -0.000144929732108278 -8.41416067415549e-05 -0.000255254528823241 -0.000213042954842788 -0.000516483002291386 -0.00022736503906566 -0.000463414860636606 -0.000577997673262133 -0.000650347706951596 -0.000113584334226425 -0.000278018918035104
"39" 0.000545519812988633 0.000306463192363297 -0.000189921513297438 -0.000857046724264002 -0.000574568230964976 -0.000130891443969972 -8.40048144279088e-05 -0.000249915378765821 -0.00020283671160653 -0.000504308753215766 -0.000209521399581619 -0.000435229205334726 -0.000563762036119415 -0.000648911673437032 -9.03171675014392e-05 -0.000269188093446896
"40" 0.000537303503161831 0.000306932171638985 -0.000190668457630197 -0.000864199250484649 -0.000574274069119324 -0.000115743060295754 -8.31218900927964e-05 -0.000243984177886644 -0.000191646016960649 -0.000491325614494328 -0.000191017228497928 -0.000406685125862579 -0.000548177388976669 -0.000646097675702762 -6.62724916830528e-05 -0.000259658544840053
"41" 0.000529467358530099 0.000308477495566641 -0.000190532582643851 -0.000868134368108608 -0.000572468340778263 -9.95512992895318e-05 -8.15002517162648e-05 -0.000237472982257099 -0.000179463031613507 -0.0004775963954596 -0.000171888248616626 -0.000377873186836808 -0.000531283040378079 -0.00064190315842843 -4.15269342747016e-05 -0.000249434971824412
"42" 0.000522053561545898 0.000311052511602769 -0.000189544466360011 -0.000868976976312509 -0.000569191023412354 -8.23816831205156e-05 -7.91488069231349e-05 -0.000230403929954091 -0.000166278622804134 -0.000463182713743355 -0.000152168403114454 -0.000348885692851511 -0.000513120776441516 -0.000636329471913253 -1.61489075944112e-05 -0.000238521357823411
"43" 0.000515122988180861 0.000314588341366505 -0.000187741729229294 -0.000866893018343251 -0.000564483964769457 -6.4305918278332e-05 -7.60911774661817e-05 -0.000222798966856323 -0.000152095793138805 -0.000448149306835129 -0.000131893835744339 -0.000319805102894319 -0.000493732781152475 -0.000629385419796043 9.78356162075273e-06 -0.000226921200721876
"44" 0.000508722747404434 0.000319026083983355 -0.000185161259542654 -0.000862077463337062 -0.000558390475939127 -4.53905803081589e-05 -7.23523514768733e-05 -0.000214675996583179 -0.000136919167484564 -0.000432550896478618 -0.000111099885055374 -0.000290711969568277 -0.000473164726620523 -0.000621081883875214 3.62003183773383e-05 -0.000214645250194219
"45" 0.000502907283484561 0.000324279247778683 -0.000181848607922166 -0.000854734397955514 -0.000550974487741475 -2.5706708589445e-05 -6.79669601146029e-05 -0.000206059176709208 -0.000120756848940591 -0.000416444789534429 -8.98239862452842e-05 -0.000261680735073627 -0.000451469962382351 -0.00061144048855761 6.30206787242644e-05 -0.000201700521616219
"46" 0.000497730750078523 0.000330262438607899 -0.000177841250275866 -0.000845100711933865 -0.000542292716829345 -5.32027849216633e-06 -6.29849984097632e-05 -0.000196970904585576 -0.000103622802007822 -0.000399882800853455 -6.81067886770013e-05 -0.000232779245181159 -0.00042870575599947 -0.000600488488876919 9.0165895067698e-05 -0.000188099397145311
"47" 0.000493240934790641 0.000336872608255122 -0.000173186547974956 -0.000833430376014703 -0.000532413076948095 1.56996698326436e-05 -5.74547861834402e-05 -0.000187430828430972 -8.5536559091448e-05 -0.000382914284993025 -4.59846884059778e-05 -0.000204074461555892 -0.000404924822011905 -0.000588257837595779 0.000117562295015167 -0.000173853405453843
"48" 0.000489492730850427 0.000344009962360622 -0.000167926982430182 -0.000819989196185297 -0.000521409545177755 3.72835545587251e-05 -5.14256045636403e-05 -0.00017746307846485 -6.65182069073085e-05 -0.000365581099289281 -2.3499617676872e-05 -0.00017561875305876 -0.000380186941611271 -0.000574787545594552 0.000145129718882448 -0.000158979750062593
"49" 0.000486527281720602 0.000351549854219937 -0.000162109170902075 -0.000805078017033269 -0.000509357138107567 5.93692135215731e-05 -4.49759101543265e-05 -0.000167093186967129 -4.65984944168887e-05 -0.000347923818133728 -6.91215992825797e-07 -0.000147467563752794 -0.00035456392323581 -0.000560127663710696 0.000172788315104496 -0.0001434959860656
"50" 0.000484394180385394 0.000359380901344396 -0.000155781574197767 -0.000788984371712633 -0.00049634151739112 8.18898941660453e-05 -3.81677609763529e-05 -0.00015634371315489 -2.58041996294973e-05 -0.00032997611181944 2.23992787409129e-05 -0.000119670675157529 -0.000328114449698306 -0.000544323168260884 0.000200461111932119 -0.000127420443641746
"51" 0.000483130237017284 0.000367363441765826 -0.000148982706421667 -0.000772046596237474 -0.000482437839490737 0.000104786503762899 -3.10756387028137e-05 -0.000145236887426907 -4.17215823909255e-06 -0.000311769422298613 4.57305007607273e-05 -9.22667768412161e-05 -0.000300916414211237 -0.000527447951123506 0.000228069241661637 -0.000110777419179994
"52" 0.000482773488967625 0.000375368203904926 -0.000141759059870741 -0.000754575041983739 -0.000467740970530562 0.000128000147810103 -2.37794907396055e-05 -0.000133794912817098 1.82583821150125e-05 -0.000293327062799473 6.92609273471611e-05 -6.529649149306e-05 -0.000273042894679503 -0.000509559496693422 0.000255533681419781 -9.35958985477656e-05
"53" 0.000483351708916581 0.00038324798200485 -0.000134155838578127 -0.000736922291064841 -0.000452336293841288 0.000151474295815125 -1.63596781670998e-05 -0.000122040665143454 4.14457236967418e-05 -0.000274665455445555 9.29436689313417e-05 -3.87897895667966e-05 -0.000244570195598357 -0.000490740997890746 0.000282778370013926 -7.59014585589823e-05
"54" 0.000484890808320726 0.000390857593361945 -0.000126216183059501 -0.000719417067806175 -0.000436312518133962 0.000175153660429047 -8.90636387025484e-06 -0.000110000578589473 6.53442050689199e-05 -0.000255804423255198 0.000116735532640758 -1.27780847358192e-05 -0.000215576798043212 -0.000471067131361283 0.000309724100959325 -5.77271958630819e-05
"55" 0.000487407269670929 0.00039804761239184 -0.000117981954073051 -0.000702414029574928 -0.000419760770344826 0.000198992533851165 -1.49559811402811e-06 -9.76925254855344e-05 8.99050730570716e-05 -0.000236745841225335 0.000140595158187373 1.27200890754665e-05 -0.000186148384692159 -0.000450630652982213 0.000336299586444633 -3.91095786161994e-05
"56" 0.000490920132249164 0.000404671838789587 -0.00010949076452726 -0.000686253173483705 -0.000402775784952711 0.000222943242578128 5.77918732236032e-06 -8.51369631426665e-05 0.000115081795702609 -0.000217498479435272 0.000164476964185689 3.76818670472411e-05 -0.00015637099559095 -0.000429526244257357 0.000362427521863309 -2.00858352521437e-05
"57" 0.00049543096259949 0.000410570318976445 -0.000100779754549847 -0.000671280549318298 -0.000385440939104863 0.000246962692621786 1.28344952109112e-05 -7.23581249377587e-05 0.000140816894231085 -0.000198058439607286 0.00018833597516292 6.20900149234221e-05 -0.00012632676981359 -0.000407848332869453 0.000388040536594944 -6.97239318173367e-07
"58" 0.000500938637535077 0.000415595998196457 -9.18922271017033e-05 -0.000657830381452847 -0.000367845283978688 0.000271013048714378 1.95847933716521e-05 -5.93745912899926e-05 0.000167057225192286 -0.000178421956072821 0.000212125506781061 8.59368171627851e-05 -9.61078119340036e-05 -0.000385704012181639 0.000413065737335012 1.90091971453387e-05
"59" 0.000507438101202569 0.000419597247188571 -8.28571899073924e-05 -0.00064623058828218 -0.000350078915106185 0.000295058781904103 2.59458792890519e-05 -4.62076283927733e-05 0.00019374758772705 -0.000158575465390725 0.000235803362975532 0.00010921334496931 -6.58053202143107e-05 -0.000363200689998315 0.000437439714173904 3.89911594052179e-05
"60" 0.00051490999315343 0.000422428661984509 -7.37113731992558e-05 -0.000636793546688598 -0.000332222204231271 0.00031907089127899 3.18383360798742e-05 -3.28747954147933e-05 0.000220831153292546 -0.00013850614836507 0.000259326485302601 0.000131912480179113 -3.55072674961968e-05 -0.000340452828276161 0.000461096368018188 5.91950954989549e-05
"61" 0.000523333214627679 0.000423949980907403 -6.44863469340777e-05 -0.000629813823644481 -0.000314355754042423 0.000343021040209488 3.71896209250757e-05 -1.93944664432023e-05 0.00024824919747542 -0.000118197652072084 0.000282654574291753 0.000154035105403057 -5.30377128563721e-06 -0.000317569224353695 0.000483980562502357 7.95708901314651e-05
"62" 0.000532681849455664 0.000424023702523659 -5.52108288410074e-05 -0.000625572066513127 -0.000296555798738579 0.00036688537524642 4.1926253852108e-05 -5.78419656935535e-06 0.000275943059839014 -9.76268246127817e-05 0.000305741009807008 0.000175582671986612 2.47130015114202e-05 -0.000294666550868013 0.000506034244391483 0.00010006641202503
"63" 0.000542914680781999 0.000422527942000812 -4.59203064656018e-05 -0.000624319222701331 -0.000278896270677582 0.000390647787670994 4.59817971759793e-05 7.93474990911798e-06 0.000303858037245078 -7.67700640800613e-05 0.000328551494591436 0.000196558437317429 5.44544933506372e-05 -0.000271858628419167 0.000527211531973619 0.000120624179558679
"64" 0.000553988878329225 0.000419336761740297 -3.66411588860418e-05 -0.000626292041170836 -0.000261440097669403 0.000414289310353391 4.92993565772363e-05 2.1747931043309e-05 0.000331930881631128 -5.56041528061456e-05 0.000351042696939501 0.000216976953269967 8.38342330005499e-05 -0.000249263513819119 0.000547460748981648 0.000141189003901477
"65" 0.000565855949321077 0.000414348635942327 -2.74002091812538e-05 -0.000631688316568949 -0.000244252451533651 0.000437802499018915 5.1823254469314e-05 3.56416344900918e-05 0.00036011210985659 -3.40994460698333e-05 0.000373184506981231 0.00023684037443142 0.000112767000019982 -0.000226987585205197 0.000566745986157864 0.000161703560099322
"66" 0.000578457984828317 0.00040746573763849 -1.82281761436595e-05 -0.000640678881753007 -0.000227389286503292 0.000461174315345205 5.35130543273414e-05 4.95958240734934e-05 0.000388339865134248 -1.22304730146882e-05 0.000394940493629525 0.000256172270960266 0.000141171465515513 -0.000205146318268111 0.000585033093574238 0.000182108462319922
"67" 0.000591734644972065 0.000398606096600892 -9.14990222698212e-06 -0.000653405069510344 -0.000210901392861417 0.000484403249609107 5.4329329921431e-05 6.35971766789084e-05 0.000416563303054203 1.00325707472206e-05 0.000416281599418299 0.00027498612207606 0.000168970228513192 -0.000183839482226813 0.000602293096081323 0.000202347242014031
"68" 0.000605612051859422 0.000387700647391229 -1.91934888924783e-07 -0.000669970001649383 -0.000194833279905979 0.000507482615080625 5.42394872937997e-05 7.76276409050337e-05 0.000444729073392885 3.27187072444743e-05 0.000437181846479968 0.000293301809718181 0.00019608968315285 -0.000163169814441434 0.000618508598170021 0.000222364930622235
"69" 0.000620024132796831 0.000374701220811261 8.62100273864737e-06 -0.000690436863877656 -0.000179223614555225 0.000530417532612127 5.32326769506797e-05 9.16753449457567e-05 0.000472785802188058 5.58532598487995e-05 0.000457620529782117 0.000311144521000681 0.000222460805971517 -0.000143230885690158 0.000633663101940607 0.000242099340799733
"70" 0.000634889739702413 0.000359562961535523 1.72587494531494e-05 -0.000714848488879763 -0.000164106513331704 0.000553208175811601 5.12929833281175e-05 0.000105726148938032 0.000500688924248306 7.94634358288846e-05 0.000477569309868464 0.000328541606240982 0.00024802123340148 -0.000124112709436311 0.000647749083289428 0.000261497237058478
"71" 0.000650126135289628 0.000342269715942909 2.56980346344571e-05 -0.000743193862958472 -0.000149503946035365 0.000575858044379131 4.84200527357652e-05 0.000119763182124574 0.000528387767518373 0.000103572014407553 0.000497022858966672 0.000345525576535649 0.000272713404166097 -0.000105890163906749 0.000660770376154762 0.000280506277842362
"72" 0.000665644396836202 0.000322814715944714 3.39099204660497e-05 -0.000775434786057317 -0.000135439337581885 0.000598376411905833 4.46207833139218e-05 0.000133771607500442 0.000555843351622825 0.000128200047729087 0.00051595969194445 0.000362124234188377 0.000296488872336816 -8.86365674252919e-05 0.000672730707825225 0.000299073499224941
"73" 0.000681359290284687 0.000301213015924179 4.18690490962342e-05 -0.000811490290026324 -0.000121922847082215 0.000620770922024253 3.99182470197172e-05 0.00014774304509028 0.000583013936749661 0.000153367827739663 0.000534380543854719 0.000378384774151106 0.000319305218878691 -7.24117677913031e-05 0.000683652631904681 0.000317148281370066
"74" 0.000697178143582239 0.000277495282039115 4.95510587936357e-05 -0.00085124726805412 -0.000108969689499038 0.000643049813276091 3.43366743392647e-05 0.000161657935862911 0.000609866683584627 0.000179087328468724 0.000552277707022505 0.000394336928093621 0.000341123116285351 -5.72682079202443e-05 0.000693553389053938 0.00033468406565204
"75" 0.000713008748851333 0.000251702049516591 5.69308571329704e-05 -0.000894575929725495 -9.65686060097847e-05 0.000665227840141878 2.79138079787252e-05 0.000175509188172939 0.000636362078513649 0.000205373210495226 0.000569650750820774 0.000410032281861133 0.000361920954953988 -4.32533578839716e-05 0.00070246310642537 0.000351636984295013
"76" 0.000728752518417312 0.000223904205284399 6.39759540203786e-05 -0.000941280875622404 -8.47280301562189e-05 0.000687312510557621 2.06958921251135e-05 0.000189279660271288 0.000662474751853368 0.000232229902099364 0.00058650889553389 0.000425512630614125 0.000381674641775886 -3.03917536810953e-05 0.000710425490570905 0.000367966852880354
"77" 0.000744317128952169 0.000194190700399648 7.06722254031832e-05 -0.000991153261666815 -7.34309875489641e-05 0.000709317135393488 1.2739652289382e-05 0.000202958480833796 0.000688178462649147 0.000259661601926271 0.000602859232297344 0.000440833650545674 0.000400380762333173 -1.87056766068316e-05 0.000717482200918519 0.000383636426085056
"78" 0.000759612465271592 0.000162646996893965 7.69847155868128e-05 -0.00104396972698858 -6.26689903968211e-05 0.000731253620603327 4.10797530787054e-06 0.000216535990321605 0.000713449707778533 0.000287663048967091 0.000618718177232719 0.000456044344846502 0.000418027599053488 -8.20684997369598e-06 0.000723683150941955 0.000398614222960063
"79" 0.000774536615586087 0.000129398413104889 8.28965431039364e-05 -0.00109945960865518 -5.24185425091288e-05 0.000753134730888634 -5.1263559909248e-06 0.000229998168010506 0.000738267976246162 0.000316232123348332 0.00063410179553555 0.000471202815493116 0.000434627713032398 1.10498953390403e-06 0.000729093986941968 0.000412867719043278
"80" 0.000789000153826278 9.45672190759704e-05 8.83770128663461e-05 -0.0011573438116467 -4.26608622006224e-05 0.000774967513308297 -1.48864014948171e-05 0.000243332758952425 0.000762619883234511 0.000345349879331505 0.000649034069537164 0.000486364149476264 0.000450194211733015 9.2472692201396e-06 0.000733772558581828 0.000426373532910491
"81" 0.000802913003197123 5.82985343374108e-05 9.34139725584557e-05 -0.0012173212580725 -3.33669743035015e-05 0.000796768271523625 -2.50834672087132e-05 0.000256536234401529 0.000786489999681514 0.000374999867721232 0.000663537484625691 0.000501588460094798 0.000464746288911819 1.6235304188511e-05 0.000737787255727544 0.000439111673427788
"82" 0.000816189051042703 2.07487626333637e-05 9.79805783167162e-05 -0.0012790820260926 -2.45057599420736e-05 0.000818543083024025 -3.56262044438597e-05 0.000269591002134507 0.000809870870784957 0.000405159041071145 0.000677645945855846 0.000516941115222295 0.000478317521895016 2.21003906716942e-05 0.000741220016623646 0.000451066818766562
"83" 0.000828741353896629 -1.79112429229592e-05 0.000102059931009591 -0.00134228080743149 -1.6053802784484e-05 0.000840301028541267 -4.64212088662755e-05 0.000282491704353989 0.000832761445834059 0.000435798721418288 0.000691388923454327 0.000532476645190241 0.000490943153050229 2.68859867392523e-05 0.000744144127329268 0.000462224017654772
"84" 0.000840489121834246 -5.75021932668693e-05 0.000105635280691902 -0.00140658643680556 -7.96951013847416e-06 0.000862048119268265 -5.73612714069673e-05 0.000295229062633948 0.000855157288633795 0.0004668838901728 0.000704808340489865 0.00054826207906869 0.000502669947387909 3.06424368707416e-05 0.000746647414492534 0.00047257673752352
"85" 0.000851362036729236 -9.78350225730058e-05 0.000108691249383341 -0.00147164956295717 -2.1893112161763e-07 0.000883785917418521 -6.83490304696558e-05 0.000307794167447079 0.000877054602121368 0.000498368898648123 0.000717935956535895 0.000564355390021014 0.00051354252232426 3.34276239947288e-05 0.000748811218541271 0.000482125224485472
"86" 0.000861284003216902 -0.000138709955450408 0.000111218036345073 -0.00153712000859279 7.23281192219102e-06 0.00090552303962691 -7.92697944813223e-05 0.00032018038421303 0.00089846364152849 0.000530213039995108 0.000730816853455374 0.000580823244964112 0.000523622610815949 3.53058180211674e-05 0.000750723896860487 0.000490865599349572
"87" 0.000870193009237887 -0.000179924066151315 0.000113204631435911 -0.00160264084174718 1.44233483056438e-05 0.000927254083816072 -9.00267397326253e-05 0.000332382835350128 0.000919388377477365 0.000562361879705198 0.000743493564662571 0.000597715131927357 0.000532967221637007 3.63493829744938e-05 0.000752478787150087 0.000498809182796902
"88" 0.000878028202359696 -0.000221266989501303 0.00011464596232081 -0.00166786688010543 2.13894394924357e-05 0.000948978925644962 -0.000100500146435484 0.000344389955759801 0.000939838573586192 0.000594756061827741 0.000756010012194759 0.000615094123622788 0.000541642434869378 3.66379082741826e-05 0.000754162603522782 0.000505959871919718
"89" 0.00088473836896158 -0.000262521785998189 0.000115534606521176 -0.0017324469321629 2.81647996810305e-05 0.000970687902800091 -0.000110592956210563 0.000356201870932006 0.000959826641755901 0.000627337832567303 0.000768413185503303 0.000633004662368782 0.000549716750199864 3.62536339405611e-05 0.000755865693225356 0.000512336293761687
"90" 0.000890278183910083 -0.000303474475035336 0.000115870889797821 -0.00179604267433383 3.47862973319379e-05 0.000992375168440316 -0.000120197991703206 0.000367810801791023 0.000979360302585401 0.000660035203037427 0.00078075136771476 0.00065149798942404 0.000557260335013172 3.52821060156669e-05 0.000757673802341711 0.000517954206261366
"91" 0.000894607614207186 -0.000343899391471972 0.000115661262043917 -0.00185831020060878 4.12846264106602e-05 0.00101402720505332 -0.000129214900512407 0.000379212661020818 0.00099846174882166 0.000692776226917022 0.000793069695650139 0.000670612307648126 0.00056434212238858 3.38135459229903e-05 0.000759676952670093 0.000522831090702067
"92" 0.000897694951708383 -0.000383581311360785 0.000114905020876496 -0.00191893833343046 4.76916088776835e-05 0.00103562689598442 -0.000137548203006205 0.000390403432006312 0.00101713918231024 0.000725486698271733 0.000805418373527609 0.00069037859222292 0.000571038850219628 3.19433710841048e-05 0.000761956564557438 0.000526993439428738
"93" 0.000899519663752753 -0.000422305512615083 0.000113615750684513 -0.00197760748918415 5.40321834035896e-05 0.00105715310705313 -0.000145108938709179 0.000401380606605576 0.00103541336112418 0.000758081775840028 0.000817839060948798 0.000710826895663495 0.000577419509477545 2.975990529056e-05 0.000764589914589121 0.000530467404384819
"94" 0.0009000600897056 -0.000459851059732448 0.000111802436827239 -0.00203402239537357 6.03334014729987e-05 0.00107858313381938 -0.000151809594713938 0.000412138998588955 0.00105330206835328 0.000790478029859553 0.000830377456657439 0.00073196811962147 0.00058355259394832 2.73568608269417e-05 0.000767649970831907 0.000533282135549509
"95" 0.000899308833211971 -0.000496019303774971 0.000109481202502856 -0.00208790036196297 6.66148882173924e-05 0.00109988419040071 -0.000157581183248634 0.000422676232758734 0.00107081619381341 0.000822583786437075 0.000843078333485061 0.000753814107847113 0.000589507368869166 2.48283490829185e-05 0.000771207801629047 0.000535467299222192
"96" 0.000897263726821593 -0.000530594714895325 0.000106669111224697 -0.00213896727619898 7.28926885086568e-05 0.00112102457868826 -0.000162353262655975 0.000432989988495738 0.00108797609461166 0.000854309594289868 0.000855982929396189 0.000776354035530071 0.000595347519463687 2.22594271855286e-05 0.000775320845754768 0.000537057262337166
"97" 0.000893927161487104 -0.000563392127129989 0.000103384592246875 -0.00218697989862701 7.91772784702554e-05 0.00114196287053963 -0.000166076530506381 0.000443075831929125 0.0011047918624481 0.00088555337516937 0.000869123764145524 0.00079957112827288 0.00060113141646251 1.97384117133906e-05 0.000780043477143148 0.000538084995792983
"98" 0.000889308389375002 -0.00059421822839777 9.96525124560787e-05 -0.00223169677052982 8.54797152894117e-05 0.00116265751680236 -0.000168698471228864 0.000452932341814843 0.00112128065650676 0.000916222510203746 0.000882541510331616 0.000823438786909495 0.000606913276707063 1.73476053554358e-05 0.000785418001344386 0.000538585376878711
"99" 0.000883428026460963 -0.000622898856178326 9.54962149148961e-05 -0.00227290700308602 9.18007811213448e-05 0.00118305774625686 -0.000170189457416846 0.000462554662815316 0.00113745320359775 0.000946214383285157 0.000896260982226181 0.0008479087200189 0.000612738599055416 1.5161521308254e-05 0.000791482796097593 0.00053859574090385
"100" 0.000876308249552408 -0.000649270149556319 9.09463014431073e-05 -0.00231042115572089 9.81404502482578e-05 0.00120311144498192 -0.000170525940858232 0.000471940200467153 0.00115331555843324 0.000975423840911414 0.000910304418024205 0.000872926368380522 0.000618649505861624 1.32485528696353e-05 0.000798256177231113 0.000538149153385116
"101" 0.000867972629660707 -0.000673176396630938 8.60265726871726e-05 -0.00234405324714901 0.000104490738981104 0.00122275723538145 -0.000169703810904803 0.00048108626059237 0.00116887340943896 0.00100374581461382 0.000924699302346917 0.000898415111595574 0.000624676981155476 1.16775075105428e-05 0.0008057571341953 0.000537281467219085
"102" 0.000858461748315802 -0.00069448225550557 8.07705993780805e-05 -0.00237365425515837 0.000110839797580593 0.00124193152545888 -0.000167724882166241 0.000489982693686592 0.00118413200689002 0.0010310761041517 0.000939452050342648 0.0009242907514737 0.000630844368912958 1.04985503178426e-05 0.000813983264368929 0.000536027830621909
"103" 0.000847807822374558 -0.000713065181818025 7.52121511934478e-05 -0.00239909838961588 0.000117172325382375 0.00126056718486834 -0.000164608848125247 0.000498629710153453 0.00119908881855695 0.00105730834356324 0.000954572359557823 0.000950444084903184 0.00063716961808081 9.76020354463879e-06 0.000822925078416307 0.00053442002186446
"104" 0.000836048369619949 -0.000728817045805874 6.93768255539498e-05 -0.00242026813745296 0.000123463268443169 0.00127858884871748 -0.000160383858503363 0.000507016446728748 0.00121373823788258 0.00108233287076429 0.000970062239316825 0.000976756661192846 0.000643652299355873 9.50141800117468e-06 0.000832560614632223 0.000532488932819188
"105" 0.000823229951834715 -0.000741651472056142 6.33028576568341e-05 -0.00243708890701252 0.000129690054272941 0.00129591612407588 -0.000155096389035653 0.000515138383492272 0.00122806911135734 0.00110604743170551 0.000985913519423721 0.00100309532420848 0.00065029186532276 9.74641600133773e-06 0.000842852685964865 0.000530264504291834
"106" 0.000809401052809628 -0.000751497810691684 5.70178265700427e-05 -0.00244949456492729 0.00013582184056251 0.00131246937605287 -0.000148806106844775 0.000522983608598342 0.00124206743862413 0.00112834154411518 0.00100210977927985 0.00102930900111966 0.000657065043541481 1.05103312311237e-05 0.000853750405374067 0.000527773986172851
"107" 0.000794604041513671 -0.000758304473823276 5.05549020445008e-05 -0.00245744214257154 0.000141820910314595 0.00132815891174897 -0.000141580925044552 0.000530543704535383 0.00125571311907025 0.0011491129250272 0.00101863177267377 0.00105522825946212 0.000663956419283712 1.18045389473751e-05 0.000865192472863264 0.00052503746105683
"108" 0.000778885656901656 -0.000762038607276512 4.39434125605379e-05 -0.00246092547323818 0.000147650367049943 0.00134289553303038 -0.00013350701603797 0.000537809297133417 0.00126898227828013 0.00116825747317311 0.00103544763169365 0.00108067937736738 0.0006709218994458 1.36190423246096e-05 0.00087710803468981 0.000522079337154937
"109" 0.00076229538575409 -0.000762697600779818 3.72158232095913e-05 -0.00245996119692045 0.00015326595167741 0.00135658701845483 -0.000124675444678687 0.000544762169290712 0.00128184225691558 0.00118567417295365 0.00105251674361807 0.001105466428901 0.000677917952804948 1.59401848772409e-05 0.000889402522427058 0.000518913344309173
"110" 0.000744876112684486 -0.00076028836563017 3.03935681207462e-05 -0.00245458305362267 0.000158625145641464 0.00136913290337923 -0.000115197033692292 0.000551391418595393 0.00129425882878824 0.00120126653778785 0.00106979611545034 0.00112938876988513 0.000684888104332424 1.87405941144571e-05 0.000901977969893477 0.000515556054630711
"111" 0.000726675601967269 -0.000754842788363314 2.3504197265964e-05 -0.00244485332334158 0.000163675199351863 0.00138043929936278 -0.000105178999628363 0.000557680502245585 0.0013061888526294 0.00121494064398903 0.00108722426570329 0.00115222955852977 0.000691767483734721 2.19792484673616e-05 0.000914722506370672 0.00051201605935581
"112" 0.000707735422679507 -0.000746417517112776 1.65705893195693e-05 -0.00243087240585278 0.000168368208169284 0.00139040407127656 -9.4747696832834e-05 0.000563611145916106 0.00131758677753587 0.00122660477435215 0.00110474276070371 0.00117376802859796 0.00069847770000527 2.56108064737046e-05 0.000927512799720896 0.000508298491188733
"113" 0.000688095434096962 -0.000735090944251474 9.61380416632189e-06 -0.00241275070632532 0.000172654205450803 0.00139892870066481 -8.40366037101895e-05 0.000569163241830876 0.00132840033173514 0.00123617595056742 0.00112228044887364 0.00119377822498528 0.000704940784129382 2.95725299332676e-05 0.000940216560149967 0.000504405847295191
"114" 0.000667794115546179 -0.000720962379811213 2.64714173457111e-06 -0.00239063182789434 0.000176473515207302 0.00140591218270868 -7.31760351446439e-05 0.000574313695990677 0.00133857195828545 0.00124357006216526 0.00113975772383193 0.00121202098300682 0.000711063477122874 3.3792771349838e-05 0.000952691904770476 0.00050033434146851
"115" 0.000646862687626074 -0.000704152617569316 -4.316225094182e-06 -0.00236468464465042 0.000179778054899143 0.00141125783520064 -6.23049390621954e-05 0.000579044208804004 0.00134803949625622 0.00124871475614221 0.00115708640197563 0.00122826870925613 0.000716751076465316 3.81959582107265e-05 0.000964785883494103 0.000496081335765791
"116" 0.000625331252251578 -0.000684800177170488 -1.12711472451724e-05 -0.00233509756625502 0.000182508660040155 0.00141486385406429 -5.15707894415807e-05 0.000583328332846311 0.00135673694774346 0.00125153880631033 0.00117418237545578 0.00124228231984146 0.000721902805596191 4.26986007053501e-05 0.00097634974041442 0.00049163408915067
"117" 0.000603223199282395 -0.000663067049737405 -1.82056494851526e-05 -0.00230209095513002 0.000184619592852319 0.00141664238786502 -4.11075271308513e-05 0.000587138929269122 0.001364595845735 0.00125198456384117 0.0011909445934097 0.00125383693296078 0.000726412210573124 4.72038864012563e-05 0.000987217959961922 0.000486978650181484
"118" 0.00058055720974651 -0.00063913664694668 -2.51269525160713e-05 -0.00226589870249751 0.000186053650222856 0.00141649773709738 -3.10659184529641e-05 0.000590451141637805 0.00137154006844255 0.00124999652094926 0.0012072734272479 0.00126270446974823 0.000730176597046491 5.1616691257538e-05 0.000997232665027719 0.000482101793431218
"119" 0.000557353255090205 -0.000613208430125725 -3.20408310098656e-05 -0.00222678350072925 0.000186763788994601 0.00141434679048274 -2.15824147915275e-05 0.000593236153469701 0.0013774929840438 0.00124552777418763 0.00122306232464774 0.00126867101124027 0.000733083605061059 5.5830658328867e-05 0.00100623016219378 0.000476982814298294
"120" 0.000533622993968105 -0.00058549212906136 -3.89494434510458e-05 -0.00218500894078976 0.000186704598776435 0.00141010822891591 -1.27856611603305e-05 0.000595464863581512 0.00138238463159892 0.00123854148010822 0.00123821049238714 0.00127153507677391 0.000735032724620133 5.97449415372762e-05 0.00101404827920537 0.000471601289952564
"121" 0.000509368352253092 -0.000556219113507735 -4.58734613866605e-05 -0.0021408711306032 0.000185831401510538 0.00140370624380212 -4.80507175141108e-06 0.000597106100991657 0.00138612902386952 0.00122901006735471 0.0012526087498818 0.00127110610809518 0.000735915202459045 6.32547022311009e-05 0.00102053163694466 0.000465930783926075
"122" 0.000484597189627283 -0.000525631517891748 -5.28276012217871e-05 -0.00209468032971093 0.000184103039624137 0.00139507832633197 2.23703580632256e-06 0.000598132572724662 0.00138865024900804 0.00121691385788248 0.00126615069432052 0.00126721769374464 0.000735631736243382 6.62471013927416e-05 0.00102552511511003 0.000459948318682871
"123" 0.000459303236814035 -0.000493985814560749 -5.98353340564952e-05 -0.0020467468311736 0.000181487683546481 0.00138416348440537 8.23268403355662e-06 0.000598512093226339 0.00138986932492895 0.00120224449054341 0.00127872414972379 0.00125971708304964 0.000734084383275121 6.86230591721646e-05 0.00102888300630665 0.000453628356397479
"124" 0.000433482931679526 -0.000461536895183051 -6.69263191376264e-05 -0.00199738657407039 0.000177950977432203 0.00137091151969948 1.30803123326375e-05 0.000598218196949858 0.00138971294882675 0.00118500126315067 0.00129023447073429 0.00124847900316586 0.0007311920671429 7.0288246323144e-05 0.00103047176094293 0.000446942392092419
"125" 0.000407125704388787 -0.000428557706631879 -7.41296971623093e-05 -0.00194693878270867 0.000173473995130636 0.00135528481983645 1.66988578612538e-05 0.000597216664643991 0.00138810133085309 0.00116519842495257 0.00130057914177051 0.00123340344327788 0.000726873708970712 7.11428918618852e-05 0.00103016801968763 0.000439866753680586
"126" 0.000380223702597817 -0.000395317670397655 -8.14770413682611e-05 -0.00189572684619796 0.00016803530713233 0.00133725710436639 1.90144164280592e-05 0.000595483293987212 0.0013849697349435 0.00114285577537332 0.00130966139804379 0.00121441865202328 0.000721060020463496 7.11011657427716e-05 0.00102785957624325 0.000432375855403873
"127" 0.000352757890386333 -0.00036208523158204 -8.90096675956226e-05 -0.00184407424328883 0.000161624978281937 0.00131680998484436 1.99670761064702e-05 0.000592991569158784 0.00138025146951554 0.00111800450329407 0.001317398309466 0.00119147710882831 0.000713696879940213 7.00872244972134e-05 0.00102345128476834 0.000424445435603174
"128" 0.00032471625415346 -0.000329138508877301 -9.6771195917969e-05 -0.00179230763098079 0.00015423652659989 0.00129393759624208 1.95149317556264e-05 0.000589715841531843 0.00137388280010925 0.00109069291891584 0.00132370933714544 0.00116456586454718 0.000704735062521272 6.80348504207848e-05 0.00101686699631086 0.000416054398031702
"129" 0.000296082644758699 -0.000296738655333925 -0.000104796099858683 -0.00174073231066084 0.000145872384648013 0.00126864914159229 1.76404516966666e-05 0.000585635226390075 0.00136581498052983 0.00106097655903653 0.00132851844712665 0.00113370829114776 0.000694151089631929 6.48839350229332e-05 0.00100804140973994 0.000407183764984687
"130" 0.000266840338681734 -0.000265142694532324 -0.000113135395341312 -0.00168965056344637 0.000136543581704885 0.00124096832628609 1.4328859128393e-05 0.000580729382393991 0.0013559996605361 0.00102891744398827 0.00133176701927244 0.00109895374124539 0.000681929008199246 6.05934044724223e-05 0.000996936117076921 0.000397819793253056
"131" 0.000236969873059057 -0.000234606377522214 -0.000121829795295613 -0.00163934831402248 0.000126270367442972 0.00121093019705856 9.59460769885317e-06 0.000574984619509617 0.00134439814217399 0.00099459555542638 0.00133340275485714 0.00106038765054272 0.000668068666104736 5.51343643933173e-05 0.000983527564498901 0.000387949258991733
"132" 0.000206463639572564 -0.000205364184792681 -0.000130918351142084 -0.00159008709256131 0.000115069819356709 0.00117858425814111 3.46039991225094e-06 0.000568386113009795 0.00133098327927355 0.000958102398830007 0.00133338597917988 0.00101812385987477 0.000652585807701568 4.8489611613883e-05 0.000967812452380132 0.000377567010689743
"133" 0.000175303066653357 -0.000177636153394337 -0.000140451253252367 -0.00154211028422775 0.000102983698827921 0.00114399361227271 -4.0234451836609e-06 0.000560930914245738 0.00131573477108523 0.000919530313279013 0.00133168386429684 0.000972320467436343 0.000635517780407764 4.06621294124905e-05 0.000949819499145238 0.000366670258836149
"134" 0.000143483892216979 -0.000151631014173791 -0.000150467456501205 -0.00149564261679498 9.00460393415299e-05 0.00110723967617817 -1.27955898277801e-05 0.000552613516007451 0.00129864523016593 0.000878993943379884 0.00132828527549032 0.000923155906770689 0.00061691167956012 3.16631428006021e-05 0.000929585883060971 0.00035526245781573
"135" 0.000111002988018823 -0.00012753861929779 -0.000161001813172265 -0.00145087698613946 7.63089799198747e-05 0.00106841663481869 -2.27785004669487e-05 0.000543441052914323 0.00127971647672621 0.000836609948260227 0.00132318053337994 0.000870845157594252 0.000596839406666998 2.15249572968868e-05 0.000907173006124527 0.000343350778188161
"136" 7.78567569230159e-05 -0.000105515889798033 -0.00017208656697588 -0.00140797405537207 6.18302598704896e-05 0.00102763105671376 -3.38730546967519e-05 0.000533416868447843 0.00125896559183495 0.000792511719582935 0.00131638286802678 0.000815626732685797 0.000575382468241525 1.02943271224549e-05 0.000882668624428235 0.000330953807521509
"137" 4.40519694916362e-05 -8.571246163201e-05 -0.000183751694233889 -0.00136707651884355 4.6667822334051e-05 0.000985005778793241 -4.59692985583576e-05 0.000522558540162674 0.00123641908572443 0.000746834402528851 0.00130791344551108 0.000757775170429428 0.000552639247769661 -1.96543824553169e-06 0.000856178373793242 0.000318087283756609
"138" 9.60283416485782e-06 -6.82497639807956e-05 -0.000196020719602902 -0.00132829256158922 3.08963030682385e-05 0.000940680951704034 -5.89459272826031e-05 0.000510888778982648 0.00121211342749339 0.000699726356861027 0.0012978030445747 0.000697581368063516 0.000528727269495109 -1.51795152364018e-05 0.000827825376032879 0.000304781893036106
"139" -2.54716209761193e-05 -5.32205103941299e-05 -0.000208905043478762 -0.0012917000052897 1.4590890979217e-05 0.000894804885043377 -7.26651347151882e-05 0.000498432279213254 0.00118610235434942 0.000651341183245061 0.00128610126828021 0.00063536438508963 0.000503775224398862 -2.92580336576612e-05 0.00079775367084065 0.000291068447724961
"140" -6.11459241733278e-05 -4.06918483999705e-05 -0.000222418139191615 -0.0012573328841245 -2.168472305925e-06 0.000847540184166235 -8.69695019396413e-05 0.000485223630532186 0.00115844951276537 0.00060184786826036 0.00127286596749483 0.00057146004820906 0.000477926410793288 -4.40926353383293e-05 0.000766127574417987 0.000276986977136594
"141" -9.73791600924849e-05 -3.07102930886401e-05 -0.000236551317508633 -0.0012252151546849 -1.92858834090648e-05 0.000799067228431162 -0.000101706445244879 0.000471308536929948 0.00112922909420844 0.000551408968941825 0.00125816706094102 0.000506222205706673 0.000451335488640277 -5.9568154855437e-05 0.000733122556274569 0.000262580082804558
"142" -0.000134130165162931 -2.32879233559084e-05 -0.000251304368298764 -0.00119532032675416 -3.66734645975986e-05 0.000749572338096453 -0.000116704894079671 0.000456732746407464 0.00109853579674557 0.000500207431672304 0.0012420883862696 0.000440023680080999 0.000424172737739961 -7.55506670309747e-05 0.000698934126287347 0.000247902669016277
"143" -0.000171344391092916 -1.84114040772177e-05 -0.000266649864864208 -0.00116760518343538 -5.42343354572018e-05 0.000699252193051068 -0.000131787580910662 0.000441549731382008 0.00106646579434399 0.000448419319675012 0.00122472115487917 0.000373240260702974 0.000396610569006936 -9.19076959013958e-05 0.000663765153318423 0.000233005091870097
"144" -0.000208958233901934 -1.60496733402017e-05 -0.00028256180759391 -0.00114198697224363 -7.18643765318402e-05 0.000648317347247546 -0.000146781946152584 0.000425826932930182 0.00103313473268594 0.000396234022855435 0.0012061702964997 0.00030626224970196 0.000368830796567509 -0.00010847791907982 0.000627839169240979 0.000217954645669664
"145" -0.000246897628952175 -1.6133888238005e-05 -0.000298998545251596 -0.00111835592930685 -8.94610937840272e-05 0.000596979999146754 -0.000161496458273399 0.000409628931928851 0.000998664963993227 0.000343838677245761 0.00118654659703051 0.000239479708420568 0.000341032267536814 -0.000125108909254599 0.000591382350812041 0.000202816905415114
"146" -0.000285081872619081 -1.85769866979827e-05 -0.000315913499363646 -0.00109657955481627 -0.000106919361258349 0.000545468362527874 -0.000175747429121527 0.000393030543155551 0.000963190583592571 0.000291430453214384 0.00116597053524687 0.00017329340952254 0.000313403460189524 -0.000141634968477557 0.000554632567305314 0.000187657506718427
"147" -0.000323417228842502 -2.32609204125546e-05 -0.000333239021255147 -0.00107648939397954 -0.00012412828090173 0.000494006947022507 -0.000189350211850696 0.000376120525085869 0.000926856207300497 0.000239199222666668 0.00114457189300083 0.000108095929868491 0.000286147952774312 -0.000157880973181649 0.000517832260762526 0.00017255504929821
"148" -0.000361799669254867 -3.00539867664148e-05 -0.000350905207187329 -0.00105790873245066 -0.000140980220011536 0.000442832800850832 -0.000202125155364938 0.000358976113791028 0.000889813943719142 0.000187346014331735 0.00112248371310038 4.42766371112621e-05 0.000259464485255424 -0.000173672110349753 0.000481227817664349 0.000157585433808619
"149" -0.000400121392946474 -3.87962422588824e-05 -0.000368833998100557 -0.001040615268499 -0.000157369421155301 0.00039217778301829 -0.000213890228549626 0.000341695052791578 0.000852221702708607 0.000136063696063478 0.00109984417623928 -1.7779333093268e-05 0.000233551061315456 -0.000188829089746126 0.000445070910939401 0.000142830916705431
"150" -0.000438264790587709 -4.93108619100223e-05 -0.000386929251889879 -0.00102438534664212 -0.000173192909857595 0.000342280612683659 -0.000224476122553383 0.000324371613745811 0.000814252411519214 8.55470267742507e-05 0.00107680161004855 -7.77018318460921e-05 0.000208607860815515 -0.000203169208342945 0.000409610700589568 0.00012837112578727
"151" -0.000476096793676125 -6.13990105530025e-05 -0.000405090614622855 -0.00100896805995986 -0.000188338472714464 0.000293376624135667 -0.00023371286582986 0.000307106173357626 0.000776073767714566 3.59928093524228e-05 0.00105350375191277 -0.000135118943616386 0.000184831448196987 -0.000216515318015392 0.000375101124020724 0.000114291098503092
"152" -0.000513486883349744 -7.48453698516248e-05 -0.000423207553117803 -0.000994091453665606 -0.000202710171429052 0.000245697740432737 -0.000241447422486947 0.000290002146258396 0.000737867343027187 -1.24075534222065e-05 0.00103010011764096 -0.000189692250034778 0.000162408882716334 -0.00022868225995573 0.000341781873238792 0.000100672795544992
"153" -0.000550293544779183 -8.94303776625358e-05 -0.000441166537715437 -0.000979483870639428 -0.000216208059862324 0.000199474271036176 -0.00024753652011913 0.000273165129119871 0.000699814208663458 -5.94686375768526e-05 0.00100674423268327 -0.000241084000186569 0.000141523519332908 -0.000239496498932818 0.000309900634591725 8.76033272364142e-05
"154" -0.000586369760961249 -0.00010490704766095 -0.000458837935531853 -0.000964840544329849 -0.00022873812041323 0.00015492882817914 -0.000251843551856094 0.000256699992904722 0.00066209756071174 -0.000105003991305751 0.000983592397745393 -0.000288988330516671 0.000122351600273845 -0.000248779871259122 0.000279693378185462 7.51633868873712e-05
"155" -0.000621563107205727 -0.000121028833957441 -0.0004760929412674 -0.000949855768149964 -0.000240217460007187 0.000112278189036592 -0.000254252016217015 0.000240713525166745 0.000624904960713236 -0.000148832033784966 0.0009607908289697 -0.000333110168270069 0.000105056433945495 -0.000256370450515098 0.000251381545953846 6.34361466325002e-05
"156" -0.000655722287497613 -0.0001375381427576 -0.000492792607255917 -0.000934226817538467 -0.000250556032319369 7.1729945456914e-05 -0.000254656455367878 0.000225319407227805 0.000588416668079974 -0.000190784012782267 0.000938496272947366 -0.00037317897150642 8.97958325414369e-05 -0.000262101209306919 0.000225189323540202 5.25012776131486e-05
"157" -0.000688689030571507 -0.000154164475908351 -0.000508809675903525 -0.000917625364330127 -0.00025968412050355 3.34778532188163e-05 -0.000252968512593112 0.000210614493943132 0.000552819992113801 -0.000230692594967114 0.000916857966659007 -0.000408956901895343 7.67078525222478e-05 -0.000265819414222912 0.000201318490463613 4.24328666456774e-05
"158" -0.00072030631654894 -0.000170652854701282 -0.000523993901047762 -0.000899737795036444 -0.000267530949412901 -2.29149876961104e-06 -0.000249115432700144 0.000196706994130201 0.000518294233821563 -0.000268397028407875 0.000896015012850641 -0.000440226336375435 6.59175283440147e-05 -0.000267383137891425 0.000179959429399012 3.33032328220418e-05
"159" -0.000750419790670169 -0.000186729665888286 -0.000538203683103409 -0.000880242112488791 -0.000274033227075336 -3.540813149593e-05 -0.000243048216825648 0.000183700101839249 0.000485014601579793 -0.000303749352904697 0.000876110692974067 -0.000466795891714998 5.75456676756808e-05 -0.000266657967717604 0.000161295867770408 2.51810739998377e-05
"160" -0.000778876544533834 -0.000202124922463202 -0.000551306473104883 -0.000858820304574841 -0.000279143831571614 -6.57196491523296e-05 -0.000234726204778025 0.000171684590409613 0.000453153598713284 -0.000336607097749198 0.0008572805100878 -0.000488512113749697 5.16830307047844e-05 -0.000263519571405294 0.000145485434508152 1.81279851304836e-05
"161" -0.000805525262099397 -0.000216586651924764 -0.000563158840986026 -0.000835161050047024 -0.000282815752227099 -9.30848751011202e-05 -0.000224137482575103 0.000160754060234968 0.000422872787189579 -0.000366839927751567 0.00083965024619998 -0.000505240675510853 4.84148353754976e-05 -0.000257865284463692 0.000132672581635442 1.22014530526727e-05
"162" -0.00083022193660966 -0.000229855526980964 -0.000573627341593368 -0.000808971911942257 -0.000285012360562166 -0.000117380126652863 -0.000211284329457898 0.00015099766860971 0.000394329970476907 -0.000394329220242857 0.000823337375541384 -0.000516885854270533 4.78002323335184e-05 -0.000249599929031198 0.000122982172648837 7.44833260801758e-06
"163" -0.000852827389123183 -0.000241687298603959 -0.000582584866733917 -0.000779953256767997 -0.000285710903053427 -0.000138507262962555 -0.000196191690168894 0.000142490798368758 0.000367672217525049 -0.000418966988031805 0.000808456088486208 -0.000523385501236142 4.98863998447182e-05 -0.000238643758978607 0.00011652008646068 3.91246918284137e-06
"164" -0.000873212878682181 -0.00025185190676244 -0.00058990692030194 -0.000747849306950947 -0.000284893700202174 -0.000156376168436725 -0.00017889892228594 0.00013530832937884 0.000343031544591627 -0.000440654049536433 0.000795104404911311 -0.000524702875423838 5.46957006950408e-05 -0.000224938618867472 0.000113364954258728 1.6279877446898e-06
"165" -0.00089125690509641 -0.000260124007049763 -0.000595474055397744 -0.000712401560155837 -0.000282551454860202 -0.000170927429935714 -0.000159469501047922 0.000129512716139201 0.000320540892130198 -0.000459305845138194 0.000783374607101372 -0.000520844256892811 6.22375124040081e-05 -0.00020843857215448 0.000113585896405615 6.23118655586853e-07
"166" -0.000906848734629679 -0.000266309266317003 -0.000599179995373167 -0.000673398407378104 -0.000278689809491498 -0.00018210989901308 -0.000137984591405195 0.00012516311146282 0.000300304631643025 -0.000474855627980721 0.000773338738787144 -0.000511842697162911 7.24957403572358e-05 -0.000189130387320127 0.000117210476228961 9.11491505920645e-07
"167" -0.000919892575507147 -0.000270221293807111 -0.000600933231973698 -0.000630622845735578 -0.000273316546243426 -0.000189905827987309 -0.000114544208680592 0.000122299566464701 0.000282424851269473 -0.000487246919963179 0.00076506638082984 -0.000497772034535091 8.54366879474487e-05 -0.000167002814065979 0.000124256994912401 2.50324173408765e-06
"168" -0.000930305821938821 -0.000271696758618754 -0.000600645364636526 -0.000583930322287204 -0.000266454367263291 -0.000194313706555207 -8.92604009162844e-05 0.000120962515908485 0.000266982647604417 -0.000496437990295282 0.000758609601718117 -0.000478733651207217 0.000101008313802315 -0.000142074999908493 0.000134713249999749 5.39912465885853e-06
"169" -0.000938016107246999 -0.000270604695277311 -0.000598239151947023 -0.000533184300661907 -0.000258133522982681 -0.000195346537359832 -6.22722232029781e-05 0.000121178275386319 0.000254049956057202 -0.000502400773282623 0.000754002724656352 -0.000454870842586032 0.000119131484860607 -0.000114390418557481 0.000148535368478537 9.58233771136563e-06
"170" -0.000942973324842688 -0.000266821842109366 -0.000593667077293738 -0.000478289959820814 -0.000248391517372161 -0.000193052953660319 -3.37246250402046e-05 0.000122959849694023 0.000243676495425035 -0.000505126144317996 0.000751276813468554 -0.000426354550157515 0.000139717593778291 -8.40020571135424e-05 0.000165666425280763 1.50379206895057e-05
"171" -0.000945134852261596 -0.000260268245685317 -0.000586871213818321 -0.000419205879832669 -0.000237277927038169 -0.000187487905950988 -3.78570967839316e-06 0.000126309305337187 0.00023589948805519 -0.000504618551673207 0.000750434982943886 -0.000393395003310498 0.000162647447671509 -5.10016736087058e-05 0.000186011319779211 2.17329573451546e-05
"172" -0.000944487490015757 -0.000250887068827932 -0.000577832534479461 -0.000355928182396825 -0.000224845151190825 -0.00017873804530965 2.73748467766874e-05 0.000131220925884154 0.000230736332573367 -0.000500900224694441 0.000751473639963737 -0.000356225879257808 0.000187796462679772 -1.54914089386855e-05 0.000209456468248352 2.96281340893599e-05
"173" -0.00094102539517344 -0.000238650132209995 -0.000566532049660595 -0.000288497476749939 -0.000211159265680716 -0.000166903515272859 5.95652426839203e-05 0.000137673714110457 0.000228189970416281 -0.000494006438645792 0.000754369299442873 -0.000315123565545011 0.000215006150438414 2.24011186366126e-05 0.000235856342687128 3.86729346075558e-05
"174" -0.000934762637063397 -0.000223564003666417 -0.000552975200915653 -0.00021700741715808 -0.000196287445476649 -0.00015210860988798 9.25923421936348e-05 0.000145638379684228 0.000228242433675947 -0.000483989424019738 0.000759086088507719 -0.000270385518588425 0.000244115763805605 6.25278431631977e-05 0.000265045487518769 4.88067622395179e-05
"175" -0.000925739045669902 -0.000205664721915747 -0.000537181078446428 -0.000141609888799356 -0.0001803086473725 -0.00013449473167322 0.000126250795596977 0.000155068204676976 0.000230858116373157 -0.00047092177215506 0.000765574313298624 -0.000222338815607666 0.000274941540696293 0.000104720166576574 0.000296834215901629 5.99647579554623e-05
"176" -0.000914007301925371 -0.000185012723419763 -0.000519189012395728 -6.24865409901496e-05 -0.00016330558875961 -0.000114224006727258 0.000160331615352083 0.000165907181970254 0.000235985932537797 -0.000454887138800401 0.000773768856197705 -0.000171341709619122 0.00030728555405863 0.00014878966471683 0.000331007440501651 7.20684034745265e-05
"177" -0.000899638086034817 -0.000161721047795756 -0.000499057466940428 2.00998241585615e-05 -0.000145365981177899 -9.14767480683643e-05 0.000194614317095536 0.000178090919615562 0.000243553679648194 -0.00043599239939534 0.000783585776740791 -0.000117775021797481 0.000340936988463164 0.000194525389129917 0.000367325398911016 8.50347600428527e-05
"178" -0.000882728760012572 -0.000135918794095248 -0.00047685978519824 0.000105858549712744 -0.000126584122051915 -6.64465170927335e-05 0.000228892092626793 0.00019153653311851 0.000253473227921428 -0.000414353002994268 0.000794935457763181 -6.20355639259829e-05 0.000375677971106867 0.00024170965826344 0.000405538885495262 9.8774147518486e-05
"179" -0.000863389498002998 -0.000107766977586271 -0.000452691027285444 0.000194438311415044 -0.00010705634484544 -3.93459370591565e-05 0.000262945513507909 0.000206158007357689 0.00026563775397682 -0.000390102489431948 0.000807710318600638 -4.54292129945805e-06 0.000411278278213878 0.000290103011051795 0.000445368890654011 0.000113185529130522
"180" -0.000841747334866419 -7.74669345377251e-05 -0.000426662324556114 0.000285446225206635 -8.68852887584075e-05 -1.04043239663281e-05 0.000296556214292353 0.000221847007021042 0.000279929428363901 -0.000363392385640985 0.000821790281714242 5.42686107748032e-05 0.000447499362372987 0.000339454053868178 0.000486525032424534 0.000128170432510281
"181" -0.000817951523086219 -4.52403723434894e-05 -0.000398900660624445 0.000378437385875832 -6.61739606820863e-05 2.01401800106268e-05 0.000329526849291938 0.000238497635040585 0.000296208514218672 -0.000334386033012842 0.000837050207568104 0.000113957717771408 0.000484106225885304 0.000389504175676671 0.000528707591395809 0.000143618071013443
"182" -0.000792163522533218 -1.13413969724576e-05 -0.000369558612209183 0.000472928709493372 -4.50281310173315e-05 5.2034929509315e-05 0.000361645507666267 0.000255985660492293 0.000314324074899457 -0.00030325474951812 0.000853350484747767 0.000174067950877158 0.000520847081589912 0.00043998206761743 0.000571603411075228 0.000159420983981072
"183" -0.000764564579252147 2.39555825552872e-05 -0.000338799624247189 0.00056840438580071 -2.35552649298675e-05 8.50176871942066e-05 0.000392725843185117 0.000274176793394698 0.000334109443027357 -0.000270194888070352 0.000870547101047337 0.000234146870500893 0.00055748434748367 0.000490619562881376 0.000614890274424841 0.000175463900326531
"184" -0.000735349612704766 6.03453254482164e-05 -0.000306800469043998 0.000664309901121459 -1.86317098939506e-06 0.000118816246190493 0.000422578901525192 0.000292935109478228 0.000355386621674574 -0.000235402453040611 0.000888483214526252 0.000293738485300432 0.000593775308988607 0.000541140313529598 0.000658243476080396 0.000191635021095703
"185" -0.000704729769977393 9.75079357387902e-05 -0.000273762913242742 0.000760071186690143 1.99407024558285e-05 0.000153148377596302 0.000451035726692075 0.000312110946970211 0.000377966425824062 -0.000199090373522956 0.000907004216614425 0.000352394692277468 0.000629481779284248 0.000591265184503689 0.000701336309628354 0.000207818311401151
"186" -0.000672919043940256 0.000135109753259648 -0.000239893516915757 0.000855095807144207 4.17484959843948e-05 0.000187734382292785 0.000477936908678211 0.000331553638078376 0.000401651310267818 -0.000161476300704056 0.00092594932251471 0.000409671295068194 0.000664377138765771 0.000640728412143579 0.000743842303984694 0.000223901524352501
"187" -0.000640148939499126 0.000172796563911629 -0.000205409444603695 0.000948767973743395 6.34569428639284e-05 0.00022228722368933 0.000503142640079684 0.000351100073738466 0.000426233454589647 -0.000122788756715179 0.000945150076653432 0.000465152108413515 0.000698233750727746 0.000689256404041109 0.000785440150958371 0.000239771365211312
"188" -0.00060666576958887 0.000210207315190001 -0.000170553568201166 0.00104048093937504 8.49608591641404e-05 0.000256512987256414 0.000526521030695743 0.000370587723007023 0.000451497745606748 -8.32638196639278e-05 0.000964444227163428 0.000518420671929353 0.000730847817865576 0.000736602088957745 0.000825818075383004 0.000255319584970211
"189" -0.000572711265179976 0.000246981360178246 -0.000135563575530012 0.00112962447402716 0.000106160312564967 0.000290127225273046 0.000547967987696198 0.000389851917466017 0.000477227546102161 -4.31349274205003e-05 0.000983667803303415 0.00056909940478084 0.00076202139013893 0.000782512576194089 0.000864679422384481 0.000270445327300193
"190" -0.000538532335154711 0.000282744006639888 -0.000100685878075765 0.00121559421730471 0.0001269609143249 0.000322844192131491 0.00056738383075595 0.0004087233492929 0.000503203247841918 -2.64213829155692e-06 0.00100265450959733 0.000616828662713485 0.00079156858266699 0.000826754814197498 0.000901726237553734 0.000285042134717655
"191" -0.000504388677987816 0.000317132968005161 -6.61719952536329e-05 0.00129781272980251 0.000147267893902392 0.000354386721759398 0.000584699459071658 0.000427033405349344 0.000529200074102153 3.79714540201428e-05 0.00102124834644306 0.000661280735587893 0.000819330418384605 0.000869115880367825 0.000936694722847649 0.000299021886704333
"192" -0.000470533660435307 0.000349789971222002 -3.22805344166182e-05 0.00137571461302288 0.000166996093253733 0.000384481974880831 0.000599857720817649 0.000444618342775359 0.000555000647822115 7.84703678550509e-05 0.00103929157686473 0.000702164737782736 0.000845153932907426 0.000909389374542393 0.000969330566502205 0.000312295236593466
"193" -0.000437217240635512 0.000380366350358364 7.35100518407477e-07 0.00144877655124691 0.000186060669725958 0.000412871456730475 0.000612822359552503 0.000461310976944865 0.000580385243499336 0.000118618346903096 0.00105663520461938 0.000739226133105017 0.000868910326152642 0.000947396444974121 0.000999398208205683 0.000324782545054073
"194" -0.000404692952538492 0.000408529821146808 3.26243952820268e-05 0.00151651507806408 0.000204390010760384 0.000439305697523284 0.000623576771880709 0.000476951602575619 0.000605138967166975 0.000158181442494155 0.00107313799080807 0.000772246063871168 0.000890494922473456 0.000982975106679292 0.00102669358470186 0.000336412698373521
"195" -0.000373204577696233 0.000433960872084421 6.3139965654705e-05 0.00157848362306853 0.000221909251429481 0.000463550992999615 0.000632115887622658 0.000491390114564462 0.000629058721478328 0.000196937973335364 0.00108866068142118 0.000801052968987614 0.000909814888684294 0.00101598546753288 0.00105102942345149 0.000347118947027431
"196" -0.000342984306611274 0.000456375138360636 9.20460979077416e-05 0.00163428860270194 0.000238561315614892 0.000485392859188118 0.000638460253119896 0.000504477299906713 0.000651943129326508 0.000234673656367931 0.00110308358717816 0.000825514821462111 0.000926804121062009 0.00104630654868892 0.00107224857053737 0.000356849572041926
"197" -0.000314254780129392 0.000475503458379414 0.000119123208967769 0.0016835997323051 0.000254284081880562 0.000504636257308982 0.000642644824019851 0.000516078068654526 0.000673607810525542 0.000271181794700352 0.00111627923598098 0.000845540186967899 0.000941416071027454 0.00107383840358171 0.0010902196332923 0.000365557501596901
"198" -0.000287238595635719 0.000491100635315245 0.000144149844716903 0.00172612642575828 0.000269032781902121 0.000521107085261896 0.000644716702618663 0.000526065400828562 0.000693872490333246 0.000306272043253357 0.0011281424720424 0.000861087800161235 0.000953622939616376 0.00109850557524244 0.00110483526686782 0.00037320518663294
"199" -0.000262124558012639 0.000502969759847682 0.000166942948688344 0.00176165293497639 0.000282769245939031 0.000534653376392433 0.000644743536213785 0.000534324507907488 0.00071257719461713 0.000339765015817544 0.00113857771737761 0.000872156428827342 0.000963416869121639 0.00112025657253514 0.00111601973947782 0.000379764961112496
"200" -0.000239098125586516 0.000510935443076263 0.00018732366387709 0.00179003300717029 0.000295457388043628 0.000545148217515724 0.000642802184366647 0.000540752183377117 0.000729572477766361 0.000371497069540874 0.00114749459989299 0.000878789209022871 0.000970812737321921 0.00113905318111298 0.00112372336069612 0.000385217953627535
"201" -0.000218322877367321 0.000514861737779248 0.000205139696208915 0.00181117280001681 0.000307072442205163 0.000552491185351436 0.000638980697613092 0.00054526153884863 0.000744726627466943 0.000401324134019591 0.00115481730358945 0.000881068818837074 0.000975835500676582 0.00115488576123374 0.0011279250455626 0.000389554044779592
"202" -0.000199939778184803 0.000514650487065151 0.000220265869323799 0.00182504369753747 0.000317599139168277 0.000556613783540384 0.000633381443891189 0.000547778650876165 0.000757925340068901 0.000429115588081801 0.0011604748495654 0.000879115994187344 0.000978540916074573 0.00116775349832471 0.00112862737543636 0.000392773158650678
"203" -0.000184077838946277 0.000510245847045702 0.000232598420192204 0.00183168655522477 0.000327031251952987 0.000557467936594999 0.000626116305348302 0.00054824929901811 0.000769065434522475 0.000454761413752089 0.00116441487288029 0.000873096346132133 0.000978988341167705 0.00117768573665064 0.00112585830757616 0.000394878309650248
"204" -0.000170828991404996 0.000501622299461509 0.00024206419693984 0.00183120981693653 0.000335361991501982 0.000555039046178111 0.000617296360969501 0.000546629445383177 0.00077807416121194 0.000478170495912524 0.00116659505448327 0.00086320173284201 0.000977256183971862 0.0011847254278761 0.00111967347529259 0.000395887544394358
"205" -0.000160277269225394 0.000488805712369481 0.000248613174463358 0.00182377361625547 0.000342599814375821 0.000549338890863519 0.000607050226504295 0.000542896771055214 0.00078488846382274 0.00049927421587872 0.00116697743156947 0.00084965508561184 0.000973438595723369 0.00118892338183361 0.0011101476687204 0.000395821728528854
"206" -0.000152473074191873 0.000471852073927021 0.000252235104587157 0.00180959569946247 0.000348761663600688 0.00054040890224456 0.000595502550581318 0.000537042946918152 0.000789465074293826 0.000518020423279646 0.00116553871157532 0.000832713569337415 0.000967639457538542 0.00119036230031407 0.00109738593747425 0.000394709992112663
"207" -0.000147445380195714 0.000450860980764623 0.000252933148267523 0.00178895445407013 0.000353865106473377 0.000528318442400685 0.000582784182217509 0.000529079312237519 0.000791785451899033 0.000534379795648512 0.00116226932073096 0.000812650879079641 0.000959967366773514 0.00118911704387137 0.00108150249129606 0.000392584445465183
"208" -0.000145199809808044 0.000425967551792713 0.000250754300445925 0.00176217460120144 0.00035793686882985 0.000513158417614377 0.00056902721154338 0.000519031122041902 0.000791844162063645 0.000548341162251804 0.00115716854322705 0.00078976874713066 0.000950550144223774 0.00118529325083733 0.00106264209613691 0.000389485456110366
"209" -0.00014571478724206 0.000397342367919222 0.000245769859978853 0.00172962455589145 0.000361015347008884 0.000495054306488197 0.000554364788811746 0.000506941558010852 0.000789657299147699 0.000559913319399864 0.00115023794870805 0.000764382410965733 0.000939513086806389 0.00117899489001713 0.0010409540838725 0.000385459384145866
"210" -0.000148948859197016 0.000365193586938085 0.000238073329586783 0.0016917260051399 0.000363136239833994 0.000474147398866357 0.000538923091306906 0.00049286906332339 0.000785257717248425 0.000569128265843637 0.00114150122193479 0.000736821231770145 0.000926988344777743 0.00117034424774364 0.0010166116038479 0.000380554763545741
"211" -0.000154835079870159 0.000329757432932723 0.000227795555386795 0.00164892882299591 0.000364340468769133 0.000450604851309434 0.000522834432609787 0.000476885994218513 0.000778699416874777 0.000576031249016073 0.00113098172274948 0.000707417983469788 0.000913116407084386 0.00115946870086316 0.000989801877626246 0.000374822439312103
"212" -0.000163285218896402 0.000291295820736044 0.000215078873389698 0.00160170374003287 0.000364682379411926 0.00042461548296032 0.00050622014267537 0.000459081426562682 0.000770048498597147 0.000580690611848848 0.0011187232282861 0.000676517529761841 0.000898034283012011 0.00114649794383601 0.000960719871308624 0.000368318533734936
"213" -0.000174189337021642 0.000250114156568118 0.000200098576130843 0.00155057999460927 0.00036420758033708 0.000396375722722932 0.000489194540243945 0.000439549680683207 0.000759388205162348 0.000583183340311284 0.00110476714529954 0.000644466990054027 0.00088187969641944 0.00113158092652939 0.000929576053227163 0.000361100881695302
"214" -0.000187415324115382 0.000206517957336305 0.00018304918815255 0.00149607410963343 0.000362979902490404 0.000366110953723184 0.000471876264755353 0.000418408852651484 0.000746813257770629 0.000583607608796063 0.0010891649714431 0.000611607962395377 0.000864794184686686 0.00111485668534617 0.00089658256331977 0.000353227467576069
"215" -0.000202818997959135 0.000160851076706723 0.000164144785015544 0.00143873848805467 0.000361050196045818 0.000334050086213007 0.000454366807217202 0.000395776657100335 0.000732435056917306 0.00058207778585354 0.00107198615038834 0.000578282521287637 0.000846914171082265 0.00109648082459964 0.000861961795169125 0.00034475846029183
"216" -0.000220235374123636 0.000113463453747759 0.000143604625991904 0.00137914182032686 0.000358483287370757 0.000300433866116234 0.000436765333298473 0.000371782015520072 0.000716377207775377 0.000578713695577833 0.00105329664904278 0.000544813627260585 0.000828369460164845 0.00107660629674775 0.000825943444169203 0.000335755426441435
"217" -0.000239490683614517 6.47228851042469e-05 0.000121668597104367 0.00131784481851826 0.0003553368492011 0.000265510726761253 0.000419159734572247 0.000346562976878124 0.000698766424176256 0.000573648911087043 0.00103317636607028 0.000511530731352904 0.000809293194359364 0.00105539157655634 0.000788756278747204 0.000326274685292119
"218" -0.000260394366254827 1.50108226034776e-05 9.85897108268661e-05 0.00125542604865464 0.000351674931098792 0.000229529715016653 0.000401634525144209 0.000320259401218446 0.000679743745569128 0.000567027027892901 0.00101171146581118 0.000478735506744356 0.000789807052363232 0.00103299917930108 0.00075063291944338 0.000316379519121983
"219" -0.000282744920628855 -3.52924061404964e-05 7.46190665519408e-05 0.00119244993004148 0.000347560469590104 0.000192746239000377 0.000384262513573321 0.000293020344848781 0.000659452810843094 0.000558995696848597 0.000988992007472808 0.000446721117614034 0.000770032050761783 0.00100958732128649 0.00071181120353266 0.000306124725794815
"220" -0.000306336050802893 -8.57993484633835e-05 5.00108459309417e-05 0.00112948516335509 0.000343053124180052 0.000155410983649728 0.000367104622846196 0.000264991128936606 0.000638041879920114 0.00054971496290581 0.000965115182616683 0.000415760611026847 0.000750073284315178 0.000985319702081163 0.000672519512649143 0.000295567918273585
"221" -0.000330960056777669 -0.000136128271586886 2.50312097294131e-05 0.00106707876360455 0.000338217046864704 0.000117773269581216 0.000350213138670782 0.000236321732608055 0.000615662948994171 0.000539339690611519 0.000940180182347264 0.000386106300869288 0.000730041520494544 0.000960357092304118 0.000632982644447606 0.000284765914357893
"222" -0.000356401448253584 -0.000185895354919571 -6.8018641623449e-08 0.00100577087794052 0.000333107833757041 8.00751344064057e-05 0.000333634657093144 0.000207158457733116 0.000592470304588776 0.000528035368190195 0.000914303884430213 0.000357993569181599 0.000710027916899862 0.000934863436704255 0.000593433396961548 0.000273768645942304
"223" -0.000382443830140866 -0.000234730052586975 -2.50409629602917e-05 0.000946079249779025 0.000327785135151207 4.25481060281159e-05 0.000317406843901144 0.000177649583897959 0.000568610611913141 0.000515958766715063 0.000887585871554923 0.000331627390757015 0.000690124218215874 0.000908997737046225 0.000554085277694401 0.000262623999444272
"224" -0.000408873565530769 -0.00028226525175845 -4.96383978590664e-05 0.000888506834288269 0.000322303707102123 5.4168784259838e-06 0.000301561027062655 0.000147935857249986 0.000544240403784123 0.000503271950890717 0.00086015071136389 0.000307196760945448 0.000670408851607705 0.000882921116958776 0.000515156205852182 0.000251380189134482
"225" -0.000435483412645166 -0.000328158413898862 -7.36377273321324e-05 0.000833513090092543 0.000316715348582582 -3.11118212296135e-05 0.000286110742924996 0.000118156278849149 0.000519498026074777 0.000490133157980053 0.000832112457589446 0.000284861191816844 0.000650952283852612 0.000856791694469626 0.00047684731134157 0.000240083660305091
"226" -0.000462075309504626 -0.000372078692032329 -9.68094907406297e-05 0.000781540684278772 0.000311073414716715 -6.68393971708774e-05 0.000271077030148036 8.84419737318307e-05 0.000494524958619026 0.000476693767469858 0.000803590732418732 0.000264754108501992 0.00063182078439498 0.000830760595231928 0.000439355647430759 0.000228769172230272
"227" -0.000488446204213478 -0.000413720224582304 -0.000118961030662889 0.0007329861657959 0.000305421817095083 -0.000101587134839505 0.000256457677996445 5.89167428059061e-05 0.000469453171292442 0.000463101524452635 0.000774707221142669 0.000246984555439289 0.000613064357037958 0.000804978628012677 0.000402865529609909 0.000217478558468728
"228" -0.000514417555024251 -0.000452802480360259 -0.0001399012352093 0.000688217345847167 0.000299803591518188 -0.000135190550973973 0.00024225669133799 2.96978300472225e-05 0.000444404185837746 0.000449494192730313 0.000745580283401402 0.000231631502412703 0.000594732903459195 0.000779590778966407 0.00036754912260449 0.000206244861350572
"229" -0.000539815197091673 -0.000489058124740783 -0.000159460432784976 0.00064756282334357 0.000294261560186679 -0.000167507049544853 0.000228471227884649 8.93977729657058e-07 0.000419493677726857 0.000436003487663666 0.000716332841545773 0.000218751319352425 0.000576861687533167 0.000754734500124194 0.000333567853377372 0.00019509754387581
"230" -0.000564482640622871 -0.000522264083554219 -0.000177490488597814 0.000611299513888918 0.000288833257902242 -0.000198410041608597 0.000215087969724408 -2.73943868711946e-05 0.000394824165010904 0.00042274851152758 0.000687082497510342 0.000208368436192136 0.000559480760705672 0.000730547599372243 0.000301066084320128 0.000184065462693718
"231" -0.000588269902959656 -0.000552222149753911 -0.000193871430780139 0.000579659042338157 0.000283547262707428 -0.000227791715453778 0.000202094851579308 -5.50817839775875e-05 0.00037048593293373 0.000409838421488537 0.000657945702612477 0.000200483320216479 0.000542610756901506 0.000707152916451663 0.000270178017132428 0.000173171199387293
"232" -0.000611054711306804 -0.000578757683647785 -0.000208490852911903 0.000552834873766681 0.000278437417452204 -0.000255570268460446 0.000189476897638204 -8.20853055074455e-05 0.00034656002078675 0.000397377229724888 0.000629034769010161 0.000195070129276275 0.000526266881381943 0.000684673100366783 0.000241020637459151 0.000162434345003156
"233" -0.000632720321408826 -0.00060174949588827 -0.00022126802924247 0.000530952212535145 0.000273529239662637 -0.000281675534017543 0.000177218718685278 -0.000108337159422918 0.000323109863154712 0.000385446683678858 0.000600458231671692 0.000192079132294071 0.000510459853970092 0.000663211720693745 0.000213689252876549 0.000151874381299229
"234" -0.000653176289392933 -0.000621097695465121 -0.000232144962774285 0.000514095847251361 0.000268844143401204 -0.000306062021464665 0.000165301416786023 -0.000133777921373904 0.000300188519620062 0.000374121933477718 0.000572319650783926 0.000191431495147514 0.000495185737910289 0.000642874955248152 0.000188271073920735 0.000141506726551602
"235" -0.000672343614311415 -0.000636742002040419 -0.000241089115727645 0.000502298229256346 0.000264403806888411 -0.000328706808046335 0.000153700803538339 -0.000158360488347297 0.000277839896800015 0.000363461922653667 0.000544716313058965 0.00019302391956954 0.000480440632571721 0.000623753411472239 0.000164830039796373 0.000131342905333634
"236" -0.000690172965005686 -0.000648661368785217 -0.000248082378480924 0.000495529772865267 0.000260220823902046 -0.000349601844651173 0.000142407853359251 -0.000182050621382945 0.000256084415306068 0.000353512716779165 0.000517736616700047 0.000196738153890897 0.000466213005406276 0.000605925850983408 0.000143412398188062 0.000121393196909605
"237" -0.000706623734231552 -0.000656871328932843 -0.000253143704087592 0.000493713338824527 0.00025630879981207 -0.000368761680656558 0.000131397059498816 -0.000204818442014152 0.000234937733209115 0.000344308729267611 0.000491464708013966 0.000202421245248815 0.000452488638610828 0.000589461677641213 0.000124047852988015 0.000111663233033654
"238" -0.000721680114308724 -0.000661425135324977 -0.000256302173538164 0.000496717583978865 0.000252677304844178 -0.000386218769390576 0.000120658188077553 -0.000226649695257049 0.000214396000590475 0.000335866724490121 0.000465972515623284 0.00020991469657166 0.00043924474916715 0.000574418983311601 0.000106751154131803 0.000102162781651703
"239" -0.000735339291300263 -0.000662411258323835 -0.000257619703804003 0.000504359264203289 0.000249331070756537 -0.000402024732545624 0.000110178062988754 -0.000247539002737913 0.000194448053231373 0.000328192904206163 0.000441325268614364 0.000219031742701983 0.000426454760151579 0.000560843606234005 9.15133615107189e-05 9.28943451828596e-05
"240" -0.000747623781843129 -0.000659960025220739 -0.000257173420309 0.000516398442766646 0.000246273599040777 -0.00041624350166963 9.99440735287668e-05 -0.000267488071540876 0.000175065556492407 0.0003212797235222 0.000417573571431513 0.000229572653048577 0.000414094594879383 0.000548770074693741 7.8311863683761e-05 8.38609600870901e-05
"241" -0.000758572396708349 -0.000654230069151117 -0.000255062798434579 0.00053255034621708 0.000243502745946116 -0.000428961126626161 8.99497807711886e-05 -0.000286510734513489 0.000156212470870706 0.000315104330019093 0.000394768159332934 0.000241324984229866 0.000402128985805188 0.000538221026774556 6.71073756417545e-05 7.50661956951346e-05
"242" -0.000768240033563885 -0.000645418021949758 -0.000251412165149101 0.000552484497342449 0.000241016730448401 -0.000440277133261634 8.01894894420525e-05 -0.00030462722099797 0.000137835428765423 0.000309631277695354 0.000372940497430809 0.000254063731404749 0.000390531139003365 0.000529208500988597 5.78394269967857e-05 6.65159622328607e-05
"243" -0.000776700249092322 -0.000633746534157606 -0.000246359360011884 0.000575835194798579 0.000238805905704507 -0.000450303292604349 7.066531381463e-05 -0.000321868650707315 0.00011988421608583 0.000304816432672367 0.000352112030692726 0.000267556117284019 0.00037925995818314 0.000521728573036092 5.04362927126568e-05 5.82067322615363e-05
"244" -0.000784034574407501 -0.000619471886364131 -0.000240059035083301 0.000602181914436011 0.000236863772045521 -0.000459163439815254 6.13761269629216e-05 -0.000338272192379945 0.000102285336198952 0.000300601127212885 0.000332298489155568 0.000281559526860488 0.000368283357511334 0.000515764558460961 4.48097912901822e-05 5.01443416027113e-05
"245" -0.000790354904957607 -0.000602881797201626 -0.000232687175903121 0.000631081718990248 0.000235175664845909 -0.00046699246794331 5.23273590478522e-05 -0.000353879451981823 8.49648981163473e-05 0.000296918821726634 0.000313497008417414 0.000295830794906791 0.000357561804045251 0.000511296280769032 4.08560056513692e-05 4.23319817605826e-05
"246" -0.000795765248282942 -0.000584277619277845 -0.000224421455880427 0.000662057473173984 0.000233729327815079 -0.000473936146106797 4.35290224428864e-05 -0.000368742776840802 6.78425703141436e-05 0.000293692529330592 0.000295702040320995 0.000310121460146915 0.000347063923574915 0.000508285976990936 3.846181394428e-05 3.47723730700874e-05
"247" -0.000800392885229742 -0.000563986861156243 -0.000215463802271656 0.000694599537090493 0.000232503992949913 -0.000480143415375327 3.49858881049888e-05 -0.000382910415627088 5.08297472512615e-05 0.000290836979166261 0.000278889125757823 0.000324189120714032 0.000336749152946522 0.000506686018357414 3.7498858370169e-05 2.74729702211961e-05
"248" -0.000804375289024027 -0.000542347068866571 -0.000206020795052043 0.000728200591392011 0.00023148092774803 -0.000485776833902904 2.67148284998904e-05 -0.000396447378440172 3.3838881452446e-05 0.000288259512920773 0.000263031212146832 0.000337787960360003 0.000326586688812092 0.000506441153423271 3.78313907236055e-05 2.04391467296696e-05
"249" -0.000807855043923812 -0.000519721405641132 -0.000196300445688291 0.000762309355829414 0.000230638663951131 -0.000490994805501473 1.87290492211654e-05 -0.000409412960969399 1.67719739421248e-05 0.000285861923144949 0.000248084446458026 0.00035068982377959 0.000316540166537345 0.000507480207273931 3.93116614107206e-05 1.36789165150707e-05
"250" -0.000810977636701528 -0.000496468404381324 -0.000186523219511021 0.000796400500437741 0.000229949669786619 -0.000495962590432907 1.10468042124069e-05 -0.000421868783702006 -4.62625483661395e-07 0.000283541887426678 0.000234003767573713 0.000362665694146646 0.000306583727446496 0.000509736526526631 4.17887399874097e-05 7.20056867976962e-06
"251" -0.000813895376297008 -0.000472962517800541 -0.000176905054907759 0.000829913887953738 0.00022938675697878 -0.00050084188376757 3.68034194050642e-06 -0.00043388081343185 -1.79592568293486e-05 0.000281192038727932 0.000220721840081834 0.000373505932691743 0.000296682302759741 0.000513115660100824 4.50976640837065e-05 1.01617646913183e-06
"252" -0.000816762543688282 -0.000449571254139981 -0.000167668270558601 0.000862314253998247 0.000228923792780799 -0.000505799577758202 -3.3477623098817e-06 -0.000445518221414732 -3.58114015973496e-05 0.000278707501363557 0.000208180384633893 0.000383008853946724 0.000286811642948495 0.000517535137968634 4.90818080894399e-05 -4.8605916747539e-06
"253" -0.000819735111672495 -0.000426664364113692 -0.000159020342733729 0.00089307133216518 0.000228526824634904 -0.000510990419690625 -1.00249026050425e-05 -0.000456840634413535 -5.41105794489675e-05 0.00027597502754942 0.000196298116523802 0.000390993978356495 0.000276946787101118 0.000522892783674713 5.35702257330125e-05 -1.04165199942827e-05
"254" -0.000822963237436581 -0.000404600104535539 -0.000151174560145755 0.00092166859977239 0.000228166797077943 -0.000516568536835645 -1.63313235243851e-05 -0.000467912355117108 -7.29449226736305e-05 0.000272889558013573 0.00018499645891871 0.00039729346486072 0.0002670650021151 0.000529084115398253 5.83929699297365e-05 -1.56368623152121e-05
"255" -0.000826595080702773 -0.00038372934126062 -0.000144325249441988 0.000947620410729908 0.00022780962812235 -0.000522681959912998 -2.22540045460603e-05 -0.000478796742463014 -9.2394086873912e-05 0.000269345040811005 0.000174186102546576 0.000401767161349639 0.000257150195798002 0.000535999312510232 6.33823011823798e-05 -2.05068054926185e-05
"256" -0.000830778028517816 -0.000364384478965819 -0.000138661589998057 0.000970448770190048 0.000227417965482119 -0.0005294648316375 -2.77784265597197e-05 -0.000489546034341337 -0.000112536005500267 0.000265237427803613 0.000163773696979013 0.000404291151194943 0.000247183223086231 0.000543520584006126 6.83715114054882e-05 -2.50057780911111e-05
"257" -0.000835641225796239 -0.0003468772041771 -0.000134356256581452 0.000989729015673617 0.000226961209803293 -0.000537043336191289 -3.28892171864988e-05 -0.000500217428563016 -0.000133440042919847 0.000260468329431891 0.000153661609974809 0.000404762532430455 0.000237149020287126 0.000551529329164702 7.31958363401932e-05 -2.91189298701652e-05
"258" -0.000841313828714827 -0.000331495892327223 -0.000131560518788535 0.00100507388501602 0.000226399606411367 -0.000545531303601961 -3.75779765478104e-05 -0.000510854840174761 -0.000155162658233911 0.000254948098367928 0.000143757756063115 0.000403103868833165 0.000227042927168148 0.000559904810007888 7.77002698965813e-05 -3.28262315238166e-05
"259" -0.000847910639574261 -0.000318508796728814 -0.00013042102704372 0.00101612115718979 0.000225699518541444 -0.000555032217481554 -4.18426458668148e-05 -0.000521506136666223 -0.000177760234754233 0.000248589781581533 0.000133951225189934 0.000399262030687695 0.000216850122370417 0.000568518732751311 8.17242706794829e-05 -3.6111768305068e-05
"260" -0.000855537533068428 -0.000308149394804724 -0.000131045860723131 0.00102257137543046 0.00022482762244948 -0.000565627695520279 -4.56722565224281e-05 -0.000532199692058329 -0.000201274207707561 0.000241315705113382 0.000124144880351168 0.000393207761921762 0.000206571995565486 0.000577240234432763 8.5125211916666e-05 -3.89599520826829e-05
"261" -0.00086428463669616 -0.000300619911325659 -0.000133534543736068 0.00102416208195688 0.00022374387155581 -0.000577389208522599 -4.9068369249165e-05 -0.000542969958791749 -0.000225736429246666 0.000233057135127503 0.000114231569312297 0.000384932461843617 0.000196198099856249 0.000585940568681138 8.77625824532939e-05 -4.13541283069741e-05
"262" -0.000874224506195712 -0.000296090904122324 -0.000137953389970518 0.00102069696103441 0.000222418328336424 -0.000590366464626171 -5.20307091927291e-05 -0.000553835196057584 -0.000251170930398936 0.000223755857838356 0.000104110672399083 0.000374459642214236 0.000185731730381397 0.000594487499357101 8.95050118544459e-05 -4.32790121079968e-05
"263" -0.000885421259054521 -0.000294695727893488 -0.000144351956775718 0.0010120215685597 0.000220815790507926 -0.000604597042285956 -5.45661245031834e-05 -0.000564810145990057 -0.000277584525885518 0.000213365497753188 9.3681889346586e-05 0.000361823540126768 0.000175172489583469 0.000602745490921343 9.02368522598628e-05 -4.47269425627445e-05
"264" -0.0008979148961548 -0.000296521628654045 -0.000152747414557036 0.000998049205768319 0.000218904585131778 -0.000620097437235187 -5.66836124361686e-05 -0.000575901156376321 -0.000304979117517556 0.000201845667199579 8.28434356291413e-05 0.000347094275808914 0.000164524033313269 0.00061058578047644 8.98455740511662e-05 -4.56853713183846e-05
"265" -0.000911737583346655 -0.000301630397242298 -0.000163134610433789 0.000978744823742141 0.000216651262176342 -0.000636866493720064 -5.83931318488662e-05 -0.000587104713115134 -0.000333342978223872 0.000189169666810601 7.15074797760047e-05 0.000330353928422941 0.000153791523512559 0.000617875874386625 8.82395013231032e-05 -4.61492785126471e-05
"266" -0.000926897852349361 -0.000310036570031389 -0.000175488718896942 0.000954128993905351 0.000214032677611496 -0.000654886688883486 -5.97154490518428e-05 -0.000598413593180306 -0.000362653089559286 0.000175327191738781 5.95835387913012e-05 0.000311704162594944 0.000142980830573443 0.000624483337945221 8.533509378064e-05 -4.61171536372518e-05
"267" -0.00094339037445472 -0.000321717895659372 -0.000189747720761389 0.000924290037433607 0.000211017838277752 -0.00067412190554715 -6.06581889436919e-05 -0.000609807425313376 -0.000392872272400637 0.000160313123078469 4.69874986897795e-05 0.000291274570911426 0.00013209938319977 0.000630283865664179 8.10650222394272e-05 -4.55906279078666e-05
"268" -0.000961194668408494 -0.00033660756976676 -0.000205833803565351 0.000889368623301596 0.000207585508415606 -0.000694516190333835 -6.12499223058174e-05 -0.000621263710458535 -0.000423955159945549 0.000144139137818108 3.36402092079106e-05 0.000269202643920047 0.000121154461171948 0.00063515130852629 7.53723146881717e-05 -4.45769170523239e-05
"269" -0.000980268093602308 -0.000354605538615956 -0.000223643634366643 0.00084955770938814 0.00020370903562531 -0.000716002716219545 -6.15118199322477e-05 -0.000632750479653867 -0.000455844032037533 0.000126826323738103 1.94813380656888e-05 0.000245645036962612 0.000110158720451666 0.000638967526970892 6.82231574027533e-05 -4.30823024328952e-05
"270" -0.00100055925172093 -0.000375579600157965 -0.000243047710977247 0.000805109595650595 0.000199372556938597 -0.000738492455887568 -6.1469170939204e-05 -0.00064422892755256 -0.000488473810474819 0.000108408829690478 4.44186273830666e-06 0.000220770250411827 9.91190940061021e-05 0.000641610787327192 5.95864437647804e-05 -4.1125611351434e-05
"271" -0.00102199568500891 -0.000399347598881866 -0.000263901718195586 0.000756334053157262 0.000194554282522805 -0.00076189042590069 -6.11501974398348e-05 -0.000655655458663214 -0.000521763026048469 8.89306942413081e-05 -1.15252125972907e-05 0.000194760550756326 8.80485439101126e-05 0.000642979530392099 4.94593473348171e-05 -3.8726985366468e-05
"272" -0.00104448984830496 -0.000425701686562307 -0.000286046514306873 0.000703583772636096 0.000189243513626866 -0.00078607939335951 -6.05822582290564e-05 -0.000666979082332624 -0.000555627925362342 6.84485782902116e-05 -2.8462540142074e-05 0.000167810050149068 7.69630503111629e-05 0.000642973121672342 3.78480020291601e-05 -3.59099622766928e-05
"273" -0.00106794333926382 -0.000454407440957618 -0.000309291244596059 0.000647252101797878 0.000183426736609429 -0.000810934584610195 -5.98001996130629e-05 -0.000678146682288574 -0.000589969911108156 4.7029125765911e-05 -4.63992861779503e-05 0.000140112783252396 6.5868178083776e-05 0.000641488161905814 2.47728448847682e-05 -3.27058878622955e-05
"274" -0.0010922490953499 -0.000485189408626215 -0.00033345036662486 0.000587795164125717 0.000177090675089945 -0.000836323022528792 -5.88291853605439e-05 -0.000689102478217282 -0.000624685866423606 2.47470251624322e-05 -6.53543944013425e-05 0.000111878846028151 5.47822224333809e-05 0.000638450400718243 1.02757844514812e-05 -2.91508629468895e-05
"275" -0.00111727854208865 -0.000517754970044914 -0.000358309927055864 0.000525680069711666 0.000170234620559177 -0.000862095441361626 -5.77055090333832e-05 -0.000699783800601644 -0.000659660412616494 1.68828427720141e-06 -8.53366473788427e-05 8.33158059904825e-05 4.37183729031744e-05 0.000633777543038135 -5.58810045010986e-06 -2.5283296794589e-05
"276" -0.00114289855339496 -0.000551790464031253 -0.000383657844284768 0.000461428052209281 0.000162851221936639 -0.000888103920705928 -5.64572755171851e-05 -0.000710126565970402 -0.000694781807011788 -2.20508918197677e-05 -0.000106341766598118 5.46375260414562e-05 3.26900274159996e-05 0.000627413246880929 -2.27532130565911e-05 -2.11523918756343e-05
"277" -0.00116896641629858 -0.000586955712541448 -0.000409265024772314 0.000395580571826743 0.000154937839240251 -0.00091418594923585 -5.51145921852242e-05 -0.000720067752276639 -0.000729918106309167 -4.63731257466288e-05 -0.000128352940569734 2.60556050668126e-05 2.17123674878683e-05 0.000619303064489669 -4.11314372016669e-05 -1.68038645762724e-05
"278" -0.00119533425513591 -0.000622891703686702 -0.000434912263846373 0.000328704619017865 0.000146501523059804 -0.000940181346815312 -5.3709673756479e-05 -0.000729542772591225 -0.000764945987308866 -7.11710022631662e-05 -0.000151336608111075 -2.21866426333504e-06 1.08028683336069e-05 0.000609413077011482 -6.06264485995132e-05 -1.22928543054907e-05
"279" -0.00122184198392704 -0.00065924694745546 -0.000460359860533094 0.000261374399814154 0.000137544003612515 -0.00096592374400025 -5.22714479850354e-05 -0.000738485401624514 -0.000799732067481434 -9.63277723294477e-05 -0.000175255767889331 -2.99739451800057e-05 -2.41532600892458e-08 0.000597716594340552 -8.11266468131003e-05 -7.67706710292205e-06
"280" -0.00124832749743656 -0.000695633289819985 -0.000485382786720371 0.000194203262041254 0.000128071017619596 -0.00099124575336368 -5.08178678875531e-05 -0.000746832224523507 -0.000834140129977073 -0.000121728467231243 -0.000200052439852928 -5.70052943125871e-05 -1.07488503718517e-05 0.000584208578951181 -0.000102512038289017 -3.01543258666246e-06
"281" -0.00127462696771791 -0.000731678109472498 -0.000509755643474195 0.000127783385195097 0.000118095071653182 -0.00101598222293459 -4.93845416478703e-05 -0.000754520233295537 -0.000868033427850023 -0.000147253281304575 -0.00022565687209973 -8.31164913192303e-05 -2.13560358356195e-05 0.000568895854313682 -0.00012464532302452 1.63106952623816e-06
"282" -0.00130056765935382 -0.000766997607653498 -0.000533251138996093 6.27190102542109e-05 0.000107632610817885 -0.00103996414098352 -4.7984313818084e-05 -0.000761489867613463 -0.000901272962542187 -0.000172775999702607 -0.000251993879416102 -0.000108110054309084 -3.18243407252738e-05 0.000551802333109852 -0.000147383099428604 6.19344672548445e-06
"283" -0.00132598352514776 -0.000801216616214037 -0.000555653389252066 -3.88540434917829e-07 9.66976092905022e-05 -0.00106303343723148 -4.66373562153431e-05 -0.000767682943494712 -0.000933723977013602 -0.000198173520079028 -0.000278968307206763 -0.000131805204769065 -4.21355052682905e-05 0.000532969317576697 -0.000170573983967535 1.06096701386516e-05
"284" -0.00135070588319278 -0.000833962763070111 -0.000576756672574468 -6.09467625593358e-05 8.53068102179436e-05 -0.00108503052523555 -4.53591677451197e-05 -0.000773049659015557 -0.000965247478812632 -0.000223322449903621 -0.000306479279555916 -0.000154028558863765 -5.22654183031745e-05 0.000512452701981539 -0.00019405763766279 1.4811110825533e-05
"285" -0.00137456404131026 -0.000864874562549535 -0.000596361099654637 -0.000118388206911096 7.34867569220294e-05 -0.0011058016949125 -4.4160161641692e-05 -0.000777537368211233 -0.000995711428049068 -0.000248095970524867 -0.000334412157974555 -0.000174614005447833 -6.21963609686769e-05 0.000490327521194958 -0.000217669481497418 1.87364755200545e-05
"286" -0.00139739350761836 -0.000893598237896474 -0.000614279757707624 -0.000172162127974335 6.12681169064324e-05 -0.00112520298205255 -4.30490632748592e-05 -0.000781102483604538 -0.00102498611767123 -0.000272372768785021 -0.000362643892796672 -0.000193407575710129 -7.18969543768346e-05 0.000466683847600503 -0.000241238745799696 2.23194860380212e-05
"287" -0.00141903426461242 -0.000919811681682261 -0.00063033701838837 -0.000221751424891088 4.86741868922459e-05 -0.00114309217147635 -4.20273582477893e-05 -0.000783702397137959 -0.00105294278826132 -0.000296032233404522 -0.000391044023312599 -0.00021026986961108 -8.13534224765986e-05 0.000441622207852071 -0.000264595835867011 2.54961712507628e-05
"288" -0.00143932768594207 -0.000943197547828007 -0.000644371337538255 -0.000266658437208823 3.5740662316968e-05 -0.00115933841361116 -4.10970113741751e-05 -0.000785304736922025 -0.00107946154322616 -0.000318957909239882 -0.000419471265514558 -0.00022507458768541 -9.05311508353621e-05 0.000415265942198469 -0.000287566675982774 2.82105807768432e-05
"289" -0.00145812189090995 -0.00096346012866872 -0.000656246126029768 -0.000306431169584897 2.2505089301019e-05 -0.00117381921867808 -4.0248002488436e-05 -0.000785878875808346 -0.00110442753535771 -0.000341036099567553 -0.000447780714592027 -0.000237707364353056 -9.94082818907686e-05 0.000387746324939209 -0.000309982973994064 3.04078346751811e-05
"290" -0.00147527344808369 -0.00098034231400733 -0.000665824298429025 -0.000340661232698749 9.0075715019691e-06 -0.00118642240767916 -3.94779845707236e-05 -0.000785400595236497 -0.0011277297556301 -0.000362163591237361 -0.00047582360335833 -0.000248069105549421 -0.000107953272049759 0.000359213493987047 -0.00033167304932151 3.20353613102594e-05
"291" -0.0014906447339877 -0.000993606419433596 -0.000672994912731017 -0.000368985281039683 -4.70667682349566e-06 -0.00119704484352282 -3.87715552841743e-05 -0.000783852850734252 -0.00114926879543211 -0.000382234386590709 -0.000503444690939065 -0.000256077895862237 -0.000116142533517019 0.000329821755684037 -0.000352473347962662 3.30468876497738e-05
"292" -0.00150410462928837 -0.0010030422393172 -0.000677661527994448 -0.00039109065174086 -1.8592578587197e-05 -0.0012055922920776 -3.81108745354417e-05 -0.000781220810041857 -0.00116895072722214 -0.000401157478485544 -0.000530489772836229 -0.000261663660666678 -0.00012394199834443 0.000299732820033322 -0.00037223112125503 3.34059122460704e-05
"293" -0.0015155334871265 -0.00100847479322947 -0.000679745747070289 -0.000406712391386018 -3.2595901709421e-05 -0.00121198626841513 -3.74792510884289e-05 -0.000777498015977671 -0.00118668985751032 -0.000418841848975039 -0.000556796313570154 -0.000264774363796719 -0.000131323473221052 0.00026912469330209 -0.000390790457330557 3.3078863394159e-05
"294" -0.00152481892562281 -0.00100976314383088 -0.000679183111931716 -0.00041564636097564 -4.66634028078389e-05 -0.001216151540299 -3.68575606016887e-05 -0.000772682345388855 -0.00120241192279891 -0.000435211831721894 -0.000582217200110502 -0.000265372598233452 -0.000138256799809492 0.000238176611727362 -0.000408014746631194 3.20400532060544e-05
"295" -0.00153185835408769 -0.00100679926036313 -0.000675934377809707 -0.0004177492814379 -6.07373278835955e-05 -0.00121803281550533 -3.62137434890914e-05 -0.000766781392431688 -0.00121604962781879 -0.000450192593798093 -0.000606593274048399 -0.000263437554863979 -0.000144710894362087 0.000207071211013646 -0.000423774392459563 3.02701430964178e-05
"296" -0.00153656107222419 -0.000999507854842632 -0.000669970658471419 -0.000412932153021988 -7.47573949894646e-05 -0.00121758038079362 -3.55293541408336e-05 -0.000759801702855889 -0.00122754624534101 -0.000463720241885544 -0.000629779250552117 -0.00025896890960155 -0.000150657197931531 0.000175994252392426 -0.000437948835931382 2.77623510300159e-05
"297" -0.00153884422220954 -0.000987855946794666 -0.000661287422945669 -0.000401170728258517 -8.86586173198908e-05 -0.00121475936894112 -3.47730599705295e-05 -0.00075176021103626 -0.00123685860138587 -0.000475743622105142 -0.000651631883205922 -0.000251975135034131 -0.000156066090081097 0.000145126448493499 -0.000450437637243517 2.45127790803759e-05
"298" -0.00153863935894904 -0.000971841859595736 -0.000649884318659256 -0.000382502923325946 -0.0001023718535393 -0.00120954270139987 -3.39135730946082e-05 -0.000742678206000086 -0.00124394840577253 -0.000486215525024505 -0.000672014891700091 -0.000242490953154103 -0.000160907648490875 0.000114650638638406 -0.00046115340043495 2.05288839599587e-05
"299" -0.00153588196349546 -0.000951500720528678 -0.000635797274760665 -0.000357028851651825 -0.000115832723032427 -0.00120192097119966 -3.29252009006118e-05 -0.000732583254016945 -0.00124879389147652 -0.000495104399947546 -0.000690803103463687 -0.000230555648632078 -0.000165156237572885 8.47457640024893e-05 -0.000470020050363832 1.58280849583963e-05
"300" -0.00153052843162738 -0.00092690526111619 -0.000619064094098884 -0.000324902385258697 -0.000128968854987177 -0.0011918897173042 -3.17791938289784e-05 -0.000721504205587551 -0.00125137582313345 -0.000502378369999756 -0.000707878594744464 -0.000216235165965626 -0.00016878285691291 5.55810219325573e-05 -0.000476983297941305 1.04337312204984e-05
"301" -0.0015225365879111 -0.000898162185543647 -0.000599741875534493 -0.000286345559659255 -0.000141709258001752 -0.00117946276497242 -3.0446884969165e-05 -0.000709477775175623 -0.00125169241679207 -0.000508025067052811 -0.000723140855949625 -0.000199604129932457 -0.000171766105047837 2.73197433270171e-05 -0.000482002151562873 4.37828991143114e-06
"302" -0.00151188202890935 -0.000865415389221477 -0.000577911555143968 -0.000241633226765497 -0.00015398244629774 -0.00116465986329925 -2.89021433816443e-05 -0.000696546336786223 -0.00124975208113071 -0.000512037761833764 -0.00073649524383841 -0.000180756140917747 -0.000174086229572988 1.17659786811845e-07 -0.000485058683881222 -2.29554798673141e-06
"303" -0.00149854581063302 -0.00082883060789788 -0.00055365380253131 -0.000191096792250296 -0.000165714726500785 -0.00114751546966423 -2.7121630958142e-05 -0.000682754818955295 -0.00124556827112352 -0.0005144184870061 -0.000747863601668002 -0.000159797251978687 -0.000175717470104457 -2.58879455906261e-05 -0.000486146779522486 -9.54109949209344e-06
"304" -0.00148252350440645 -0.000788619641572826 -0.000527079028102728 -0.000135122368695542 -0.00017683250732236 -0.00112807095892568 -2.50800709465774e-05 -0.000668154226350991 -0.00123917085791493 -0.000515180082313303 -0.000757182313502073 -0.000136848815859035 -0.000176648845722906 -5.05631203499045e-05 -0.000485281604748484 -1.72990856327586e-05
"305" -0.00146381952269945 -0.000745012477464991 -0.000498304317095686 -7.41355260939801e-05 -0.000187269033198542 -0.00110638524798085 -2.27667381915975e-05 -0.000652796941031305 -0.00123059375806639 -0.000514343932681783 -0.00076440607230726 -0.000112045077316519 -0.000176868486020707 -7.37945243204258e-05 -0.000482499019062804 -2.55068495290067e-05
"306" -0.00144245103782047 -0.000698269729499183 -0.00046745295603405 -8.62053025166088e-06 -0.000196953138255437 -0.0010825217176752 -2.01645518246547e-05 -0.000636738965115301 -0.00121988516747624 -0.000511939600464473 -0.000769499947768847 -8.55319932690792e-05 -0.00017636223230819 -9.54810804311851e-05 -0.000477849246544881 -3.40957478135486e-05
"307" -0.00141844253750658 -0.000648678307222071 -0.000434673854975386 6.09104611243562e-05 -0.000205818435485728 -0.00105655565895758 -1.72695612095558e-05 -0.000620043657230033 -0.00120710040405785 -0.000508006496281083 -0.000772448933238244 -5.74700465939457e-05 -0.000175131577452915 -0.000115536354543295 -0.00047140302949262 -4.29894214695122e-05
"308" -0.00139182819155122 -0.000596536181179187 -0.000400115180830999 0.000133909465066067 -0.000213804289687737 -0.00102857363001494 -1.40698894237913e-05 -0.000602772842330838 -0.00119230060988708 -0.000502590629857805 -0.000773257626557531 -2.80254412524947e-05 -0.000173168014802685 -0.000133888523496463 -0.000463245034944573 -5.21098863924192e-05
"309" -0.00136265140160815 -0.000542173095822195 -0.000363940420930533 0.000209796145853471 -0.000220850919878879 -0.000998669780100513 -1.05732771759883e-05 -0.000584994965173225 -0.00117555853445713 -0.000495747153409653 -0.00077193946732053 2.62440611617895e-06 -0.000170478229261927 -0.000150487588159059 -0.000453485668324977 -6.13711132578345e-05
"310" -0.00133096794243924 -0.000485925455597031 -0.000326311983104737 0.000287963036731874 -0.000226901302164548 -0.000966949033968251 -6.78835078566824e-06 -0.000566775409083904 -0.00115695692539403 -0.000487539794364244 -0.000768531158244945 3.42931456992595e-05 -0.000167071030740038 -0.000165291276624951 -0.000442236446533238 -7.06874290443931e-05
"311" -0.00129683637243055 -0.00042814521567132 -0.000287413361173278 0.000367790303597414 -0.000231910286190359 -0.00093352172703789 -2.72574023978819e-06 -0.00054818482093388 -0.00113657982983266 -0.000478033878786094 -0.000763087891455326 6.67858203495029e-05 -0.000162957121900086 -0.000178283833604375 -0.000429638734001135 -7.99718063221733e-05
"312" -0.00126033428969061 -0.000369186704107993 -0.000247421053289761 0.000448653908931369 -0.00023583553560437 -0.000898509413513125 1.59221894913339e-06 -0.000529298362151909 -0.00111451902914864 -0.000467305569428809 -0.000755669876384722 9.99050282305055e-05 -0.000158154194752927 -0.000189450332918783 -0.000415838126268929 -8.91334780701107e-05
"313" -0.00122153128417932 -0.000309416308231186 -0.000206523640631833 0.000529906056446449 -0.000238637210184218 -0.000862035914842803 6.14036161221922e-06 -0.000510184460695749 -0.00109087647348389 -0.00045543199068161 -0.000746372364558908 0.000133450582387918 -0.000152683186392993 -0.000198813052102831 -0.000400995841042455 -9.80831583549922e-05
"314" -0.0011805141073258 -0.000249200595316854 -0.000164903083319831 0.000610909110176987 -0.000240288815714222 -0.000824236903163871 1.08816207989764e-05 -0.000490914441481187 -0.00106575570968958 -0.000442501413979434 -0.000735287654453561 0.000167217437865299 -0.000146571635519576 -0.000206388396265858 -0.000385286890575119 -0.000106729644960218
"315" -0.00113737472659936 -0.000188897107170257 -0.00012275367956602 0.000691038731751162 -0.000240766534913575 -0.000785249183980634 1.57808672729189e-05 -0.00047156396531422 -0.00103926350651693 -0.000428597342411665 -0.000722528865434024 0.000200996956744596 -0.000139852033555163 -0.000212221369945834 -0.000368887673336053 -0.000114990820903847
"316" -0.00109221089897787 -0.000128866236181324 -8.0258439517146e-05 0.00076967208957629 -0.00024005935452735 -0.000745215486665838 2.07937150808154e-05 -0.000452201897591067 -0.00101151688092708 -0.000413814813059444 -0.000708229572716411 0.000234588723407061 -0.000132558060908052 -0.000216365067569409 -0.000351994588888879 -0.000122782419588202
"317" -0.00104512789558291 -6.94507455629639e-05 -3.7607549025874e-05 0.000846216891552123 -0.00023815892968497 -0.00070428698746566 2.58651551483799e-05 -0.000432898714184082 -0.000982631178087928 -0.000398244065499022 -0.00069252260071754 0.000267785561778826 -0.000124732858466093 -0.000218883184346066 -0.000334798250937297 -0.000130025550159777
"318" -0.000996232216763621 -1.09891690243804e-05 5.02143403883079e-06 0.000920090835095269 -0.000235068829406286 -0.000662608070361282 3.09419318173595e-05 -0.000413723825549102 -0.000952725801645277 -0.000381984000462903 -0.000675567302764811 0.000300391417013062 -0.000116420831179375 -0.00021986219763899 -0.000317504710618407 -0.000136644027194988
"319" -0.000945638760490304 4.62009723582989e-05 4.74481967644398e-05 0.000990758106802695 -0.000230800201486004 -0.000620334858235629 3.59636976599804e-05 -0.000394743599260787 -0.000921921041434517 -0.000365127291655462 -0.000657519943121836 0.000332206379697423 -0.000107673948265043 -0.000219384280353326 -0.000300315846886287 -0.000142574022288627
"320" -0.000893462822890971 0.000101817548441882 8.95021950707613e-05 0.00105769729484112 -0.000225370654739966 -0.000577620001014843 4.08621561760178e-05 -0.000376018927419307 -0.000890344411497424 -0.000347771316827046 -0.000638557723390394 0.000363048817628613 -9.85465910660966e-05 -0.000217557229562893 -0.000283434180111425 -0.000147750702978257
"321" -0.000839832321732669 0.000155583088438376 0.000131020814358688 0.001120452706924 -0.000218807973412392 -0.000534618700729356 4.55713548167422e-05 -0.000357610496699124 -0.000858118109550347 -0.000330011903495071 -0.000618855298639156 0.00039273812157699 -8.90944841653569e-05 -0.00021448646348248 -0.000267067377727915 -0.00015212206192653
"322" -0.000784866683502875 0.000207243421333324 0.000171847025396663 0.00117859529719072 -0.000211151556494021 -0.000491484700174623 5.00188003613672e-05 -0.00033957624011552 -0.000825365723957684 -0.000311944121076287 -0.000598598345498743 0.000421103215509502 -7.93779370834446e-05 -0.000210288136191941 -0.000251410579609606 -0.000155643088198725
"323" -0.000728702504934392 0.000256564398438194 0.000211839484919002 0.00123174934006595 -0.000202438951733921 -0.000448370770143987 5.41299999997028e-05 -0.000321966193073633 -0.000792215989127087 -0.000293657317886795 -0.00057797871927873 0.000447984605308528 -6.94661510826211e-05 -0.000205087154604228 -0.000236664086033532 -0.000158278037585376
"324" -0.000671464165626193 0.000303341315854724 0.000250859034644382 0.00127958073898998 -0.000192728943948458 -0.000405421051386548 5.78315504115937e-05 -0.00030483106258835 -0.000758787426324398 -0.00027524228509472 -0.000557192041027193 0.000473234705343504 -5.9428373014755e-05 -0.000199020170184018 -0.000223017803580082 -0.000160001051772399
"325" -0.000613291040612906 0.000347404218059436 0.000288786114824814 0.00132183073070224 -0.000182075111056055 -0.000362790479558834 6.10487170944836e-05 -0.00028821163568369 -0.000725205570220974 -0.000256783664922558 -0.000536428472809967 0.000496721639654815 -4.93284247013113e-05 -0.000192214252879768 -0.000210648727643318 -0.000160795292840474
"326" -0.000554316427036386 0.000388611244258893 0.000325508705693728 0.00135828210548581 -0.000170548332966699 -0.000320616460216332 6.37078748459262e-05 -0.000272151339508237 -0.000691585180069752 -0.000238362007924855 -0.000515883907969816 0.0005183198343449 -3.92446253367268e-05 -0.000184809761918339 -0.000199726995534598 -0.00016065352358453
"327" -0.000494683537472226 0.000426841419153294 0.000360930353399655 0.00138876075382411 -0.000158218374057842 -0.000279038424696542 6.57356732420355e-05 -0.00025667870475184 -0.00065805107743834 -0.000220059014361724 -0.000495757682432069 0.000537926629385221 -2.92528408351302e-05 -0.000176948564888723 -0.000190413407839236 -0.000159583770761093
"328" -0.000434530771350654 0.000462016571499027 0.000394963039164861 0.00141318127811041 -0.000145161118896535 -0.000238187993821405 6.70654095908272e-05 -0.00024182390301057 -0.000624711987044969 -0.000201939068865155 -0.000476229855369696 0.000555454348561088 -1.94245549125604e-05 -0.000168765698692696 -0.000182847305944028 -0.000157599727808857
"329" -0.000373998662473258 0.000494079611002793 0.000427534875201547 0.00143149151955121 -0.000131462407380259 -0.000198192486084354 6.76286915084382e-05 -0.000227611131786065 -0.000591678284614713 -0.000184073222268893 -0.000457490457273059 0.000570825552299905 -9.83796672116294e-06 -0.00016040254857236 -0.00017716217260078 -0.000154728537880377
"330" -0.000313231193610183 0.00052301045649172 0.000458586998827396 0.00144370319054114 -0.000117212095914146 -0.00015917113623755 6.73642637064217e-05 -0.000214056420588603 -0.000559055645673534 -0.000166521809401157 -0.000439718186074998 0.000583985101313905 -5.73809187775896e-07 -0.000152003968714546 -0.000173468584231522 -0.000151007260324519
"331" -0.000252373984044703 0.000548810480513588 0.000488074489338595 0.00144988401343937 -0.000102498350624324 -0.000121234430976668 6.62189405913337e-05 -0.00020117632680355 -0.00052694488024394 -0.000149334268173968 -0.000423081012373889 0.000594887955783147 8.29581785981336e-06 -0.000143703017544176 -0.000171862638510655 -0.000146483521180516
"332" -0.000191569890992777 0.000571523344404464 0.000515964634983311 0.00145015492004194 -8.74182589060546e-05 -8.448875693017e-05 6.41415816738812e-05 -0.000188977550927412 -0.00049544120512879 -0.000132562266972037 -0.000407737053184372 0.000603512167113973 1.6695642474001e-05 -0.000135627378836566 -0.000172417292248719 -0.000141215387452448
"333" -0.000130966905961473 0.000591205922187279 0.00054222667487123 0.00144469391659646 -7.20706220018209e-05 -4.90327440307999e-05 6.10940970245128e-05 -0.000177463858676078 -0.000464630681691692 -0.000116242988945607 -0.00039383124555107 0.000609848012292684 2.45448493705202e-05 -0.000127906545835857 -0.000175188640626012 -0.000135270074309516
"334" -7.07035186043518e-05 0.000607940043676524 0.00056686018526979 0.00143371081702726 -5.65529289660539e-05 -1.49469283761542e-05 5.70372861157994e-05 -0.000166634810361769 -0.000434594277646944 -0.000100410963409113 -0.000381504195152736 0.000613905631360884 3.17758793559454e-05 -0.000120662032197511 -0.000180217986012162 -0.000128727736908421
"335" -1.09320707755955e-05 0.000621840658024153 0.000589859450938828 0.00141747153093006 -4.09627758812599e-05 1.76810752661193e-05 5.19491272738614e-05 -0.000156482169467673 -0.000405413287723805 -8.50935962956392e-05 -0.000370871884255318 0.000615708551821745 3.83172579791041e-05 -0.000114005311957144 -0.000187518807271315 -0.000121668289392134
"336" 4.82093377944969e-05 0.000633034930032767 0.000611241408285852 0.0013962767441054 -2.54040229384999e-05 4.87895666112566e-05 4.58160850072226e-05 -0.000146999910519127 -0.00037714855462566 -7.03087443482606e-05 -0.000362039921348156 0.00061529531255535 4.40978236076393e-05 -0.00010804554373474 -0.000197086559134285 -0.000114188810231474
"337" 0.000106572378843079 0.000641673441070117 0.000631017864561343 0.00137046261471981 -9.9735758988427e-06 7.83098362403216e-05 3.86272606794979e-05 -0.00013817403068947 -0.000349863282755382 -5.60741450052634e-05 -0.000355096493871527 0.000612721798921583 4.90578487811852e-05 -0.000102872590216042 -0.000208897985068767 -0.000106384234179264
"338" 0.000164021878365516 0.000647917618370649 0.000649222147784981 0.00134039917051579 5.23001377962145e-06 0.000106196616266832 3.03923841196888e-05 -0.000129986673437963 -0.00032360464530414 -4.23868275691177e-05 -0.000350112759397537 0.000608052447746274 5.31348939477514e-05 -9.85783613828725e-05 -0.000222907274771378 -9.83665822774366e-05
"339" 0.000220413988958887 0.000651946986802706 0.000665885560074037 0.0013064657417917 2.01156879098713e-05 0.000132401241860985 2.1119878642014e-05 -0.000122416822262256 -0.000298422124704007 -2.92546544747008e-05 -0.000347137550302491 0.000601371642693316 5.6271327420093e-05 -9.52356807469986e-05 -0.000239049588672913 -9.02393981331555e-05
"340" 0.000275615138868849 0.000653947930916396 0.000681055001234077 0.00126908370464618 3.45845567776848e-05 0.000156895712333592 1.08388981682902e-05 -0.000115442310251586 -0.00027434177433169 -1.66663935264338e-05 -0.000346209187869117 0.000592773759504585 5.84168116541686e-05 -9.2914558620016e-05 -0.000257242495601661 -8.21196986257578e-05
"341" 0.000329486767754303 0.000654121448497391 0.000694772019454251 0.00122867792177893 4.85494228507377e-05 0.000179650299636505 -4.17354391773714e-07 -0.000109041533113379 -0.000251391825797669 -4.61085463456425e-06 -0.000347336903082342 0.000582356440535912 5.9523821231561e-05 -9.16574145629345e-05 -0.000277385934653606 -7.41197567028717e-05
"342" 0.000381897590155028 0.000652658149419608 0.000707092157465204 0.00118567036384157 6.19272578992384e-05 0.000200652827482925 -1.26087798336419e-05 -0.000103181506092569 -0.000229591917821553 6.92881098828187e-06 -0.000350523749719977 0.000570241277608421 5.95544704485622e-05 -9.15132557498513e-05 -0.000299363144113366 -6.6358573312493e-05
"343" 0.000432724321192717 0.000649776267222657 0.000718067180263708 0.00114051063589222 7.46390640322342e-05 0.000219894285601316 -2.56730631275789e-05 -9.78375575405655e-05 -0.000208945916468227 1.79748495517867e-05 -0.000355737957622878 0.000556544686987996 5.84714443661604e-05 -9.25064325551542e-05 -0.000323040054429963 -5.89510849573611e-05
"344" 0.00048183877954867 0.000645669939649304 0.0007277576935546 0.00109361842682883 8.66115622032146e-05 0.000237376279647333 -3.95510812719677e-05 -9.29774557110596e-05 -0.000189455290718605 2.85514240917025e-05 -0.000362938465772631 0.000541398875812245 5.62482625193969e-05 -9.46510505790738e-05 -0.000348268840222857 -5.20112309564586e-05
"345" 0.000529128904861209 0.00064054559270174 0.000736223424287276 0.00104542902520528 9.77744473670009e-05 0.000253108853799426 -5.41710240222811e-05 -8.85686489522023e-05 -0.000171109279427395 3.869484179386e-05 -0.000372066076123294 0.000524940488696807 5.28598919104976e-05 -9.79555381418123e-05 -0.00037489233659333 -4.56512582234976e-05
"346" 0.000574479564727893 0.000634594709704111 0.000743519921626634 0.000996354244009311 0.000108066295427204 0.000267107784371001 -6.94521781392475e-05 -8.45841497594169e-05 -0.000153888659914722 4.84314016159784e-05 -0.000383040565025544 0.000507308412752955 4.82869482184405e-05 -0.000102410119618693 -0.000402738250790682 -3.99789623332371e-05
