"V1" "V2" "V4" "V5" "V7" "V8" "V10" "V11" "V13" "V14" "V15" "V17" "V18" "V20" "V21" "V23"
"1" 0.000339310284765553 0.000170081041656818 0.00035378027089294 -2.16113702627168e-05 0.000647977947777882 1.12498073936764e-05 8.62161944242372e-05 -5.88649567301945e-05 0.000468512777314123 0.000435867339824781 0.000378266351151436 0.000163645093217277 0.000350032894751521 0.000263706634274133 0.000413417613526925 0.000228149594399415
"2" 0.000343398070542171 0.000163610089414849 0.000364813753942734 -2.29894071908494e-05 0.000658625975028215 8.52958365516438e-06 9.23273187033358e-05 -5.2720421580172e-05 0.000473209732391668 0.000428436565661701 0.000381443702353846 0.0001556373616498 0.000349615195608786 0.000269811929472288 0.000415131277770176 0.000230188209958399
"3" 0.000346491890158333 0.000157398329701619 0.000375400739060648 -2.50060340063947e-05 0.000668669502062217 4.83987714916329e-06 9.82410867867283e-05 -4.77522393007159e-05 0.000477760627644672 0.000420414042093803 0.000384455717353102 0.000147036460330144 0.000348948934529234 0.000275351658166262 0.000416606725868337 0.000232090439057105
"4" 0.000348531863125841 0.000151491441066143 0.00038542956475758 -2.76323535748578e-05 0.000677998539343624 2.42999324542694e-07 0.000103925205691271 -4.38981450587172e-05 0.000482052317068493 0.000411793257740344 0.000387245090719756 0.000137910868413546 0.000348060302727379 0.000280233045094659 0.000417797090448262 0.000233849669612678
"5" 0.000349465631571791 0.000145937344998982 0.00039479040686301 -3.08355551025482e-05 0.000686512817996501 -5.18346263604775e-06 0.000109360723714476 -4.10830847854402e-05 0.00048598080736845 0.000402578435356418 0.000389756713489323 0.000128339101098853 0.000346985704365168 0.000284378806407434 0.00041866351888587 0.000235464119503023
"6" 0.000349236712487924 0.000140763009427604 0.000403361744871432 -3.45834121980666e-05 0.000694096206766597 -1.13683703866017e-05 0.000114522222915596 -3.92370277664481e-05 0.000489440816896885 0.000392775283016677 0.000391938108268672 0.00011839300623194 0.000345757724618312 0.000287715121952398 0.000419165096812035 0.00023693372244883
"7" 0.000347821218586484 0.000136011670057223 0.000411034300859751 -3.88386350202498e-05 0.000700657196601688 -1.82145837635158e-05 0.000119399152079005 -3.82531426239082e-05 0.000492332499541699 0.00038239761665694 0.000393732851879582 0.000108165931703589 0.000344420100463254 0.000290174071366631 0.000419264584546986 0.000238252097093912
"8" 0.000345182125830066 0.00013169542710267 0.00041770444469838 -4.35585650811478e-05 0.00070610018362386 -2.56355238193224e-05 0.000123967112322122 -3.80480690594017e-05 0.000494546298977502 0.000371455282204282 0.000395084588092364 9.77289475451549e-05 0.000342994035384307 0.000291682894907993 0.000418914655545526 0.000239412027227064
"9" 0.000341296920578049 0.000127844085524242 0.00042326627975893 -4.87002723987969e-05 0.00071033241858048 -3.35309756499744e-05 0.000128213463461296 -3.85066169252969e-05 0.000495987916874692 0.000359963816197249 0.000395942595887711 8.71701654373638e-05 0.000341517876871952 0.000292192354810216 0.00041808118480405 0.000240411523034792
"10" 0.000336150620378891 0.000124464890880959 0.000427621697181797 -5.42160486589855e-05 0.000713273816747904 -4.17999282998339e-05 0.000132126142400953 -3.95191724422828e-05 0.000496555276038155 0.000347944348758464 0.000396252635637613 7.65742979521003e-05 0.000340017727098514 0.000291642416190821 0.000416723485958615 0.000241240780852019
"11" 0.000329742344069698 0.000121567525452066 0.000430685982704759 -6.00585767878048e-05 0.00071484395393694 -5.03401912696739e-05 0.000135693753558235 -4.09798446976704e-05 0.000496162320646369 0.000335419628555335 0.000395963231684903 6.60166933072673e-05 0.000338519386245717 0.000289990070599609 0.00041479939481583 0.000241888792389707
"12" 0.00032207754124352 0.00011916078514885 0.000432376132294526 -6.61777985691828e-05 0.000714983916176183 -5.90442936190959e-05 0.000138916023387596 -4.27627267643668e-05 0.000494722865738897 0.000322414971163837 0.000395033021219892 5.55767459398228e-05 0.000337052389436337 0.000287197240403029 0.000412281858246295 0.000242346769554948
"13" 0.000313167562872829 0.000117232714192426 0.00043262648616658 -7.25246506708907e-05 0.000713636134471363 -6.7807076208391e-05 0.000141781547250044 -4.47567628846073e-05 0.00049216457958639 0.000308961590545261 0.00039341744303399 4.53323567536098e-05 0.000335635108520178 0.000283237269877138 0.000409133737270563 0.000242605299630705
"14" 0.000303038392575831 0.000115788195836473 0.000431370383492361 -7.90487409917275e-05 0.000710754803263924 -7.65230167045456e-05 0.000144296620617141 -4.68335405566543e-05 0.000488407690547995 0.000295081341045527 0.000391070530315925 3.53493075521378e-05 0.000334285156561074 0.000278070587421067 0.000405321829175621 0.000242641629459644
"15" 0.000291724679974434 0.000114818661002258 0.000428574322003459 -8.56927498027572e-05 0.0007063142726815 -8.50838869136079e-05 0.000146467524078716 -4.8880437580919e-05 0.000483401732612062 0.000280813576888737 0.000387962288799411 2.56955240049426e-05 0.000333019885626521 0.000271699208694674 0.000400823545485526 0.000242450320764812
"16" 0.00027926874156331 0.000114304282778972 0.000424197359982913 -9.24118554139596e-05 0.000700286759863621 -9.33944248799755e-05 0.000148291052313594 -5.07885231292323e-05 0.000477092495806501 0.000266191582006334 0.000384058610967942 1.64316505696016e-05 0.000331846581165933 0.000264110391599127 0.00039561331252351 0.000242007838425632
"17" 0.000265720643247447 0.000114235734717657 0.000418228049602813 -9.9152187279755e-05 0.000692664832516116 -0.000101354545753338 0.000149783239903397 -5.24433178509839e-05 0.000469436583428697 0.00025124665322791 0.000379332369316321 7.60805746312226e-06 0.000330770483868651 0.000255297237758374 0.000389669228488126 0.000241295005194396
"18" 0.000251142564416787 0.00011459969085826 0.000410658176307624 -0.000105865370533483 0.000683459484606176 -0.000108867670251483 0.000150955466808352 -5.37464291632745e-05 0.000460405945480907 0.000236022181276267 0.000373763413476404 -7.30034460765789e-07 0.000329798042263036 0.000245276705139363 0.000382978191936602 0.000240298609211017
"19" 0.000235600224017866 0.000115377241613539 0.000401508000047493 -0.00011250264963438 0.000672682783840753 -0.000115847847439985 0.000151829949816252 -5.45917550102133e-05 0.000449984573832836 0.000220552561891263 0.00036733352163031 -8.53769174250085e-06 0.000328927416499856 0.000234063821968746 0.000375527742027706 0.000238990565525061
"20" 0.000219178167818908 0.00011655730507449 0.00039080204420139 -0.00011902144950044 0.000660382081707495 -0.000122207232501561 0.000152426976240318 -5.48909539192029e-05 0.000438163384529495 0.00020488107088454 0.000360037841984506 -1.5784639026381e-05 0.000328155809432302 0.000221680525852244 0.000367311825248313 0.000237353362386127
"21" 0.000201953836031579 0.000118117936035628 0.000378583020986508 -0.000125377589122 0.000646594010229823 -0.000127872130053995 0.000152763513624802 -5.45679606702503e-05 0.000424951697502193 0.000189046241345955 0.000351871516046636 -2.24510351361612e-05 0.000327471958012171 0.000208161953095994 0.000358328402088472 0.0002353621987369
"22" 0.000184021232588524 0.000120048658204649 0.000364920834750351 -0.000131524819477851 0.000631389517004702 -0.000132773332480506 0.000152866995160769 -5.35482335064087e-05 0.00041036401900631 0.000173087678431608 0.000342833390392719 -2.85157571681234e-05 0.000326862237938517 0.000193548169316841 0.000348580951494042 0.000232996284954551
"23" 0.000165482501579781 0.000122328291892754 0.000349892310768425 -0.000137430467012046 0.000614838869150304 -0.000136845355627491 0.000152773373537121 -5.17711386881816e-05 0.000394433434915328 0.000157052115720241 0.000332939022633472 -3.39698864404886e-05 0.00032631511393456 0.000177892769673634 0.00033808211443148 0.00023023337595148
"24" 0.000146437689037821 0.000124961773129222 0.000333591235079863 -0.000143052957362077 0.000597044990213114 -0.000140031844862168 0.000152516215948044 -4.91807252877143e-05 0.000377202449388026 0.000140979947123034 0.000322201975326884 -3.88149186396882e-05 0.000325813317144896 0.000161246490477048 0.000326844631569916 0.000227051695466202
"25" 0.000126995113988978 0.000127932863553462 0.000316128719538183 -0.000148367706211012 0.0005781039657452 -0.000142288704223962 0.000152127024484847 -4.57362449395053e-05 0.000358724325665511 0.000124912677146756 0.000310642664897843 -4.30536828261425e-05 0.000325331041355874 0.00014367091912608 0.000314886974488963 0.000223426886793967
"26" 0.000107272922987909 0.000131233840932651 0.000297629909398353 -0.00015334378228477 0.000558138253120583 -0.000143576309260017 0.000151641210350765 -4.14169779117164e-05 0.000339076772456679 0.000108899531095294 0.000298296669264992 -4.66956724629073e-05 0.000324853141733642 0.000125247601732925 0.000302242770184011 0.000219341870592627
"27" 8.73785476059701e-05 0.000134870061566707 0.00027823596406603 -0.00015795569638832 0.000537272527894146 -0.0001438686347002 0.000151100187764924 -3.62004998794424e-05 0.000318326467273997 9.29762919544346e-05 0.000285194226650099 -4.97690893019258e-05 0.000324348116570812 0.000106040424070137 0.000288936076910266 0.000214776067870852
"28" 6.74334223965325e-05 0.000138846280753793 0.000258097730732355 -0.000162189213961817 0.000515662363346532 -0.000143138495239737 0.000150550649935973 -3.00797603641482e-05 0.000296577271304702 7.71957733396367e-05 0.000271383442431636 -5.22909647856724e-05 0.000323794631975363 8.61475923341938e-05 0.000275012857768175 0.000209714464075427
"29" 4.75595593766105e-05 0.000143164799585409 0.000237375612915874 -0.000166024508286953 0.000493446652307037 -0.000141381028500864 0.000150021384631625 -2.30692950763346e-05 0.000273922713030631 6.15986528517086e-05 0.000256910126820661 -5.42987147519521e-05 0.000323161159136618 6.56491327118805e-05 0.000260514106348634 0.000204142387976734
"30" 2.78722357202041e-05 0.000147832387596359 0.000216236945990673 -0.000169458664894106 0.000470785779381178 -0.000138595963510876 0.000149561590660197 -1.51928492497694e-05 0.000250477615828873 4.62236715362247e-05 0.000241831304696717 -5.58322884826518e-05 0.000322418734683084 4.46460782779789e-05 0.000245490000370361 0.000198044878354881
"31" 8.4947318897477e-06 0.000152873220193897 0.000194875520474183 -0.000172479186758062 0.000447864744322624 -0.000134783801435575 0.000149219408996538 -6.46410868202684e-06 0.00022636857111335 3.11251088394212e-05 0.000226210382883242 -5.69243548013495e-05 0.000321547176467611 2.32448449391839e-05 0.000229999043952977 0.000191419250916327
"32" -1.04654021158939e-05 0.000158302579277846 0.000173472718046002 -0.000175087657142746 0.000424842906894794 -0.000129968656614502 0.000149028111659126 3.05683419816969e-06 0.00020171860194865 1.63355968469709e-05 0.000210109627901361 -5.76287393897486e-05 0.000320509197496434 1.54201440568202e-06 0.000214098320556496 0.000184256091918378
"33" -2.88864896321679e-05 0.000164141858396743 0.000152221802460568 -0.000177283533716366 0.00040191657954424 -0.000124167295290818 0.000149032698497489 1.333136325371e-05 0.000176669601416401 1.90728454647838e-06 0.00019359984712471 -5.79926078444138e-05 0.000319281181221526 -2.03478113802113e-05 0.000197852468098798 0.000176551875697867
"34" -4.66567165993241e-05 0.000170406926207702 0.000131316861672386 -0.000179087694898121 0.000379262860198597 -0.000117420846715532 0.00014926876237768 2.42877954422077e-05 0.000151375027676018 -1.2122568456331e-05 0.000176763636130108 -5.80650978122792e-05 0.000317843975205256 -4.23082212197298e-05 0.000181338354384125 0.000168314694207564
"35" -6.36819002050225e-05 0.000177128408410286 0.000110950672304532 -0.000180506113596103 0.000357068571442345 -0.000109770579307723 0.000149770801246501 3.58486030574813e-05 0.000125976233540049 -2.57078145829441e-05 0.000159677670564779 -5.79058160497924e-05 0.000316161310486146 -6.4224760218295e-05 0.000164626952954121 0.000159544601296019
"36" -7.98617747838323e-05 0.000184342299047752 9.13203936684254e-05 -0.000181556557608442 0.000335529531473303 -0.000101268470488578 0.000150582105802438 4.79449593715307e-05 0.000100624261358333 -3.88166256898927e-05 0.000142421067664445 -5.75716473219967e-05 0.000314215738350466 -8.59838001042752e-05 0.000147789803728072 0.000150253740213099
"37" -9.50984296482405e-05 0.000192066497204826 7.2618209669382e-05 -0.000182261031089718 0.000314825065883669 -9.19663033484586e-05 0.000151730710245577 6.04877361125933e-05 7.5489623805e-05 -5.13989761450978e-05 0.000125088276390324 -5.71073134050311e-05 0.000311993265808589 -0.000107461082184336 0.000130916316967673 0.000140461629803434
"38" -0.000109303225778047 0.000200323165413469 5.50237719113274e-05 -0.000182653598662817 0.000295139041484844 -8.1935469512361e-05 0.000153243513364589 7.33715629903766e-05 5.07358933239671e-05 -6.34133644087868e-05 0.000107767988456664 -5.65773231701989e-05 0.000309475414057559 -0.000128533175532226 0.000114093846180368 0.00013018657953586
"39" -0.000122416592640707 0.000209142783580872 3.87139687719984e-05 -0.000182760934744996 0.00027664977823213 -7.12502463256081e-05 0.000155139893089301 8.64971986818659e-05 2.65188874255764e-05 -7.48298960122615e-05 9.05479667142669e-05 -5.60370198743338e-05 0.000306643021306755 -0.000149089870612714 9.73982951218131e-05 0.000119447737043401
"40" -0.000134360213852091 0.00021855725726099 2.38545413358928e-05 -0.000182612307340067 0.000259530684059809 -5.99810796825023e-05 0.000157446833054711 9.97668517228734e-05 2.99956196225248e-06 -8.56087714657612e-05 7.35203035851354e-05 -5.55357291213886e-05 0.000303493221010697 -0.000169007963375504 8.092225346811e-05 0.000108281745643327
"41" -0.000145083316081291 0.000228568214996889 1.0594467627099e-05 -0.000182256687426747 0.000243932900407811 -4.82197563844931e-05 0.000160168761410094 0.000113055431803323 -1.96549727039426e-05 -9.57117907126189e-05 5.67840342637726e-05 -5.51238367196068e-05 0.000300017910792987 -0.000188172669009015 6.47559141867282e-05 9.67203770792391e-05
"42" -0.000154538592889665 0.000239199870469871 -9.29162476075104e-07 -0.000181723891290113 0.000230011877401072 -3.6046432689956e-05 0.000163320034269844 0.000126258719274062 -4.12909116350032e-05 -0.000105108036550507 4.0425098416336e-05 -5.48505845295925e-05 0.000296217869837723 -0.000206473932374239 4.89866350683454e-05 8.48032865641616e-05
"43" -0.00016269980406231 0.000250460245153269 -1.05924660925677e-05 -0.000181061540615351 0.000217899621152191 -2.35615678594401e-05 0.000166896733923699 0.000139262890850338 -6.17591648208584e-05 -0.00011376350437706 2.45344998419091e-05 -5.47574873398394e-05 0.000292093903957811 -0.000223807810978792 3.36967914123947e-05 7.2570106484002e-05
"44" -0.000169537118451735 0.000262341712064822 -1.83029011660153e-05 -0.00018031820300599 0.000207721553930237 -1.08526569150003e-05 0.000170895976716271 0.000151946518600672 -8.09001881093426e-05 -0.000121646794852511 9.20991444229289e-06 -5.48824397305642e-05 0.000287660085870282 -0.000240067135900958 1.8979787169589e-05 6.00769739628217e-05
"45" -0.000175045211584184 0.000274846803168433 -2.3971695561893e-05 -0.000179530056061535 0.000199572880430542 1.97738919446395e-06 0.000175305373219286 0.000164200525692239 -9.85880331798536e-05 -0.000128733956257278 -5.47144805536762e-06 -5.52593308000706e-05 0.000282921845492457 -0.000255167599022217 4.91141608956015e-06 4.73688420696482e-05
"46" -0.000179231156972674 0.000287955356196617 -2.75523695118725e-05 -0.000178752752400183 0.00019353893121419 1.48341279635014e-05 0.000180109242645273 0.00017591417168246 -0.000114685786329469 -0.000134994099521717 -1.94218804455515e-05 -5.59151044412552e-05 0.00027790318475271 -0.000269019439878983 -8.42518740702428e-06 3.45029567683985e-05
"47" -0.00018210303404053 0.000301633315966875 -2.90052003397315e-05 -0.000178029757226472 0.000189683874708079 2.76188679769584e-05 0.000185277051450175 0.000186971078205202 -0.00012907406253705 -0.000140409334584144 -3.25613354706042e-05 -5.68716959551721e-05 0.000272626160410774 -0.000281546657492647 -2.09553074270664e-05 2.15377161165886e-05
"48" -0.000183698156070738 0.000315849836615155 -2.83298654707486e-05 -0.000177409492795278 0.000188044239380654 4.02299611365105e-05 0.000190778551471695 0.000197273727374759 -0.000141641608496682 -0.00014495668577804 -4.48135675803789e-05 -5.81448653584341e-05 0.000267115994494658 -0.000292679600995377 -3.26061236909125e-05 8.54011405137014e-06
"49" -0.000184053668453523 0.000330556572236233 -2.55393982065201e-05 -0.000176936001539482 0.000188639188178841 5.25802918293519e-05 0.000196572668698517 0.000206727415885268 -0.000152298233774803 -0.000148615010138151 -5.61128385450697e-05 -5.97369420835789e-05 0.000261412320083432 -0.000302370705894043 -4.33177181397171e-05 -4.42999461320806e-06
"50" -0.000183225162145523 0.000345683013928713 -2.06857151822741e-05 -0.00017665234213898 0.00019145362301364 6.45681877494821e-05 0.00020261333787318 0.000215229932018892 -0.000160960993678423 -0.000151379771065067 -6.63966859371019e-05 -6.16581774141932e-05 0.00025554310115381 -0.000310567639062638 -5.30284651901136e-05 -1.73038476354208e-05
"51" -0.000181278400618808 0.000361155243725606 -1.38418049676538e-05 -0.000176603304809848 0.000196458465173165 7.61104468255537e-05 0.000208847450980344 0.000222708839780096 -0.000167557246939904 -0.000153227186696156 -7.56055622649903e-05 -6.38913187852699e-05 0.000249558209017357 -0.000317240985255217 -6.16900633728176e-05 -3.00127732996919e-05
"52" -0.000178292875986462 0.000376873933884353 -5.11183139764848e-06 -0.000176829248846705 0.000203586820502148 8.71183811667076e-05 0.000215203830768637 0.000229076592904739 -0.000172047338699168 -0.000154157591614875 -8.36939696521979e-05 -6.64251256257941e-05 0.000243492953800171 -0.000322368957325627 -6.92585420333229e-05 -4.24894166984117e-05
"53" -0.000174358768798308 0.00039275293994618 5.37633328636031e-06 -0.000177362238887962 0.000212751503065662 9.75160462285263e-05 0.000221628031943737 0.000234284374476995 -0.000174394209309506 -0.000154167819854129 -9.06256951686463e-05 -6.92417818256842e-05 0.000237402533551601 -0.000325953811518501 -7.57069649678843e-05 -5.46637108184071e-05
"54" -0.000169572409009082 0.000408660369712602 1.74607573377025e-05 -0.000178236345109567 0.000223834468383055 0.000107231423623837 0.000228040747089777 0.000238268620210383 -0.000174583909727146 -0.000153252868892632 -9.63655442315716e-05 -7.2306514987204e-05 0.000231338509854331 -0.000327988004747729 -8.10013725853356e-05 -6.64622159839451e-05
"55" -0.000164046208299346 0.000424464534877975 3.09501547623225e-05 -0.000179485299852168 0.000236686747378523 0.00011619665590078 0.000234362104796053 0.000240984917874405 -0.000172618073968003 -0.000151418005948225 -0.000100891983921655 -7.55878928137004e-05 0.000225351664567181 -0.000328499198541893 -8.51309438883375e-05 -7.78194822080822e-05
"56" -0.000157895332478021 0.000440018401689573 4.56384133983161e-05 -0.00018113246000198 0.000251143321844356 0.000124358483563284 0.000240506619219075 0.00024240766155982 -0.000168522137670496 -0.000148668156467627 -0.000104194843630324 -7.90372233600723e-05 0.00021949803480492 -0.000327517075328107 -8.80948255587619e-05 -8.86717574467761e-05
"57" -0.000151249326705858 0.000455175595965633 6.12928453373749e-05 -0.000183193421162495 0.000267003668093157 0.000131668747125157 0.000246393816635737 0.000242532242836818 -0.000162347007381881 -0.000145018990934416 -0.000106275414784936 -8.26066474971473e-05 0.000213832761678475 -0.000325087080116022 -8.98979006581857e-05 -9.89492104282838e-05
"58" -0.000144242577815759 0.000469749529845501 7.76450363588013e-05 -0.000185687351708347 0.000284037800253097 0.000138085623784307 0.000251917158383098 0.000241330975275411 -0.000154143610733174 -0.000140486588341537 -0.000107140753722677 -8.6245981725775e-05 0.000208412097532386 -0.000321267367259506 -9.05583711490195e-05 -0.000108595243041851
"59" -0.000137005290592539 0.000483568941957106 9.4426273009732e-05 -0.000188620619608557 0.00030201207795288 0.000143583593850442 0.000256999488917777 0.00023883563036735 -0.000143999439418198 -0.000135091226944215 -0.000106809330427648 -8.98890401339973e-05 0.000203291549114953 -0.00031612505564944 -9.01009532443152e-05 -0.000117546711194843
"60" -0.000129680849489428 0.000496437066365251 0.000111336133304648 -0.000191999008033545 0.000320646759338051 0.000148143163720874 0.000261534506514848 0.000235062271226982 -0.000132017098164811 -0.000128854890098337 -0.000105311274399784 -9.34699353129388e-05 0.000198524715075778 -0.00030973709803999 -8.85695993757003e-05 -0.000125752409463608
"61" -0.000122422858358371 0.000508159520810488 0.000128059003468561 -0.000195820725832321 0.000339658824997688 0.000151753411872793 0.000265430726050986 0.000230048070904437 -0.000118315207900713 -0.000121810702832671 -0.000102691726928689 -9.69267971960374e-05 0.00019416046186263 -0.000302198571793144 -8.60129462326721e-05 -0.000133165692016671
"62" -0.000115361384306318 0.000518526398275119 0.0001442791251494 -0.000200080048901963 0.000358745602739079 0.000154421694762469 0.000268588170292959 0.00022384897000604 -0.000103020400398993 -0.000113986578933521 -9.89931121431054e-05 -0.000100177620077017 0.000190254573477182 -0.000293593057189454 -8.24807607232689e-05 -0.000139736165696164
"63" -0.000108653278899356 0.000527323282492006 0.000159660443741597 -0.000204762776542266 0.000377585880848724 0.000156149147407377 0.000270904502967905 0.000216521097916617 -8.62983427660141e-05 -0.000105425815139883 -9.42861437573159e-05 -0.000103156668925858 0.000186837208103758 -0.000284035116013439 -7.80534023742172e-05 -0.000145433017958002
"64" -0.000102429832541348 0.000534354120404637 0.000173871755792942 -0.00020984893861383 0.000395856051007966 0.000156969730871199 0.000272302028001074 0.000208155455911162 -6.83112555857491e-05 -9.61696353085805e-05 -8.86377801511577e-05 -0.000105785520692378 0.000183958802983421 -0.000273632749282215 -7.28061548233195e-05 -0.000150221475755629
"65" -9.68314650907103e-05 0.000539405194193667 0.000186584378586248 -0.000215308999815276 0.000413223032426911 0.000156914064079721 0.000272685837456779 0.000198840311429881 -4.9240507761669e-05 -8.62591456221792e-05 -8.21252688802464e-05 -0.000107988617827406 0.000181649904133485 -0.000262499866832075 -6.68209074000454e-05 -0.000154075543302281
"66" -9.19910074863718e-05 0.00054226851155142 0.00019745855352962 -0.000221115369436694 0.000429346483341207 0.000156021479313478 0.000271975383045593 0.000188679812013728 -2.92785379838002e-05 -7.57513965428753e-05 -7.48428475196466e-05 -0.000109693648930415 0.000179936395778706 -0.00025075256836096 -6.01956510221959e-05 -0.000156978893803626
"67" -8.80419321489973e-05 0.000542736111917338 0.000206174578157036 -0.000227230487488806 0.000443886134460989 0.000154336700922541 0.000270080372376064 0.000177772037216367 -8.63337437577463e-06 -6.46989076601503e-05 -6.68838383923074e-05 -0.000110830656616366 0.000178832139161613 -0.000238507309637506 -5.30289134153929e-05 -0.000158920560795995
"68" -8.50856376141086e-05 0.00054063002224884 0.000212423726229399 -0.000233613029240856 0.000456515385556451 0.000151932421055155 0.000266944036344431 0.000166259910713491 1.24939214394066e-05 -5.31550344884404e-05 -5.83505741372804e-05 -0.000111325205640876 0.000178361323688952 -0.000225887081413548 -4.54229345887781e-05 -0.000159894386649252
"69" -8.32326473575122e-05 0.000535769973215128 0.000215921903116043 -0.000240209635882598 0.000466913975223039 0.000148866196471386 0.000262499487792386 0.00015426407364359 3.38788138746112e-05 -4.1180929650432e-05 -4.93521515828629e-05 -0.00011111649808245 0.000178521849306233 -0.000213010468557253 -3.74920627866586e-05 -0.000159909384492779
"70" -8.25776854233678e-05 0.000528000310561056 0.000216392741630687 -0.000246967446380247 0.00047477824526847 0.000145217996245984 0.000256694499425745 0.000141931173461291 5.53010682296778e-05 -2.88443582190059e-05 -4.0006546996532e-05 -0.00011014050568114 0.000179308647128348 -0.000199994586458007 -2.93480492467402e-05 -0.00015897487273271
"71" -8.32030335080958e-05 0.00051716579642669 0.000213589295779381 -0.000253829330182708 0.000479803877173345 0.000141062829105683 0.000249479648981319 0.000129391841444047 7.65407182703178e-05 -1.62097420159514e-05 -3.04284696859225e-05 -0.000108350391977144 0.000180709995176152 -0.000186954185412102 -2.11073945552284e-05 -0.000157111298574413
"72" -8.51708113596018e-05 0.000503162379225355 0.000207301334849697 -0.000260730423112898 0.000481738027222265 0.000136490892695636 0.000240833169508481 0.000116811519590789 9.73776940936758e-05 -3.3485594877931e-06 -2.07405513489322e-05 -0.000105691511170194 0.000182704095908826 -0.000173996481047537 -1.28854365242112e-05 -0.000154346950906964
"73" -8.85319356906694e-05 0.000485883025008774 0.000197345869119337 -0.000267597954167659 0.000480332601282779 0.000131590531182895 0.000230731384454516 0.000104333112376573 0.00011759435252617 9.67727715247558e-06 -1.10657790073103e-05 -0.000102123597694334 0.000185259463009983 -0.00016122394075386 -4.79840729607413e-06 -0.000150715411467353
"74" -9.3316821960436e-05 0.000465267457739378 0.000183584594053978 -0.000274364152618978 0.000475379957056384 0.000126456221787973 0.000219168383149382 9.21083513520253e-05 0.000136981722376167 2.27913327193193e-05 -1.52317051343327e-06 -9.76182132619639e-05 0.000188342659398665 -0.000148736806729434 3.04316723990508e-06 -0.000146255830830009
"75" -9.95430450842151e-05 0.000441270193214308 0.000165904907615187 -0.000280954772189877 0.000466696802550154 0.000121183235521778 0.00020615133885646 8.02928589956515e-05 0.00015533860130816 3.59212185450868e-05 7.7648546580677e-06 -9.21474512098062e-05 0.000191904589884756 -0.000136622698449081 1.05245525770629e-05 -0.000141016057302971
"76" -0.000107208233323321 0.000413898085729047 0.000144242889702237 -0.000287282382254375 0.000454143345397571 0.000115870353889648 0.000191701439228764 6.90391768728881e-05 0.000172464757187011 4.89951939355056e-05 1.66748198837031e-05 -8.56992488351699e-05 0.00019588514146505 -0.000124968049985988 1.75377509706876e-05 -0.000135053063390584
"77" -0.000116297244071851 0.000383181506712709 0.000118582365686929 -0.000293271125469539 0.000437613078600687 0.000110611088554393 0.000175854315591491 5.8492777346939e-05 0.000188179068771361 6.19368076861651e-05 2.50918778837666e-05 -7.82744960056039e-05 0.000200223484613715 -0.000113850288236375 2.39789281686346e-05 -0.000128429047594395
"78" -0.000126756346504605 0.00034917907148262 8.89473187323794e-05 -0.000298833616217688 0.000417047641764196 0.000105510755171585 0.000158663811480778 4.88005564795034e-05 0.000202323985987568 7.46817549431632e-05 3.2910317897236e-05 -6.9863834185922e-05 0.000204859622936348 -0.000103326651970051 2.97562116807773e-05 -0.000121200854452674
"79" -0.000138534462324096 0.000311990372093967 5.54115558262984e-05 -0.000303885597546254 0.000392419293277309 0.000100658612277586 0.000140181775171205 4.00913890977199e-05 0.000214740319367009 8.71547313957932e-05 4.00182555685976e-05 -6.04907393913947e-05 0.000209706543297404 -9.34643550338938e-05 3.47763712906574e-05 -0.000113443597432143
"80" -0.00015155450110507 0.000271768378083543 1.80853438564374e-05 -0.000308340433008022 0.000363752728164002 9.61513675060951e-05 0.000120500212354921 3.25052721372874e-05 0.000225291669220923 9.92833369836744e-05 4.63183686434927e-05 -5.0178921939387e-05 0.000214691107370015 -8.43140176704652e-05 3.89570964771157e-05 -0.000105231357067933
"81" -0.000165715766356682 0.000228665542320109 -2.28688475523968e-05 -0.000312112624914818 0.000331102088753236 9.20756761486922e-05 9.96965972189186e-05 2.6146196639425e-05 0.000233872826003275 0.000111010279795071 5.1727542784684e-05 -3.89621370586929e-05 0.000219726953634194 -7.59034942599415e-05 4.22310063488581e-05 -9.66343071481607e-05
"82" -0.000180906307316367 0.000182915337868496 -6.72389183624963e-05 -0.000315110762202531 0.000294587755745419 8.85227990995773e-05 7.78900304237772e-05 2.11388490089335e-05 0.000240377210068814 0.00012226026896729 5.61514517793626e-05 -2.68813636320109e-05 0.000224725819919687 -6.8274472545228e-05 4.45281353082047e-05 -8.77373367164919e-05
"83" -0.000196990509346456 0.000134754602251481 -0.00011478046457408 -0.000317257319319021 0.00025435679409931 8.55720661601627e-05 5.51957608834037e-05 1.75810308642209e-05 0.000244734525072322 0.000132982004233486 5.95302650405764e-05 -1.39902820147788e-05 0.00022960098974874 -6.14454270914384e-05 4.57995322457668e-05 -7.86157452132254e-05
"84" -0.000213833207039607 8.44601153395679e-05 -0.000165213027373537 -0.000318472388213798 0.000210587912402127 8.32923851427551e-05 3.17320834205487e-05 1.55484811853419e-05 0.00024688400165106 0.000143106363645962 6.17933878653212e-05 -3.57439449424023e-07 0.000234254558770977 -5.543138670815e-05 4.59944762672711e-05 -6.93575481038743e-05
"85" -0.000231258896217372 3.23424767114189e-05 -0.000218197875069299 -0.000318671366309097 0.000163521471018702 8.175960315367e-05 7.65197646934907e-06 1.51215922919798e-05 0.00024679305923803 0.000152589866215968 6.28966409889491e-05 1.39540970213721e-05 0.000238602284114179 -5.02347214577959e-05 4.50885626626763e-05 -6.00376811894002e-05
"86" -0.000249101837217424 -2.12647867555412e-05 -0.000273382749853531 -0.000317781720051474 0.000113415055935606 8.10358767984687e-05 -1.69027465625416e-05 1.63610074591769e-05 0.000244454893206606 0.000161377666108308 6.27982136136706e-05 2.88627149156492e-05 0.000242549790776369 -4.58502163278412e-05 4.30549497699277e-05 -5.07399510937442e-05
"87" -0.00026717206282561 -7.59869134601691e-05 -0.000330375793125219 -0.000315731335028585 6.05755130447493e-05 8.11711478428642e-05 -4.1768574659969e-05 1.9321307864567e-05 0.000239862395320964 0.000169423299370137 6.14659554381201e-05 4.42835147605308e-05 0.00024600779170204 -4.2274326953401e-05 3.98795781032798e-05 -4.15456238437629e-05
"88" -0.000285269447446524 -0.000131454421827998 -0.000388760327397162 -0.000312457841615419 5.32789505441288e-06 8.22152311938011e-05 -6.67873564485262e-05 2.40219231641981e-05 0.000233061236343243 0.000176690200375197 5.88947498005767e-05 6.01248699908425e-05 0.000248894986690834 -3.94709813637376e-05 3.5571058905844e-05 -3.25225374968109e-05
"89" -0.000303193210677701 -0.000187263730929883 -0.000448101587240444 -0.000307903124945721 -5.19719323762744e-05 8.42027847279742e-05 -9.17857796146579e-05 3.048346439733e-05 0.000224093976910935 0.000183139957886311 5.50747695278977e-05 7.62880519634254e-05 0.000251125120291261 -3.74255789485909e-05 3.01338879206276e-05 -2.37557424046195e-05
"90" -0.000320733503259361 -0.000242998973925037 -0.000507938275246067 -0.000302019952505508 -0.000110941168065153 8.71634820857768e-05 -0.000116586313254149 3.87156669039674e-05 0.000213027728357782 0.000188742618516714 5.00161224716362e-05 9.26703845857749e-05 0.000252621059053876 -3.6098812050377e-05 2.35911587592328e-05 -1.53108014375092e-05
"91" -0.000337671154023489 -0.000298246270512767 -0.000567798037880695 -0.000294758132204727 -0.000171180003057241 9.11188180878365e-05 -0.000141023818656839 4.87002420830738e-05 0.000199952547587455 0.00019347725791315 4.37403662192258e-05 0.000109163978305034 0.000253314378683834 -3.54470427731756e-05 1.59751671024167e-05 -7.25694160165459e-06
"92" -0.000353793030099174 -0.000352575775534874 -0.000627213232399315 -0.000286092322243051 -0.000232277195227656 9.60769738112248e-05 -0.000164917281324623 6.04152305271336e-05 0.000184974173874939 0.000197321125549125 3.62820176288027e-05 0.000125661508904124 0.000253138842250413 -3.54255151448618e-05 7.33135537723728e-06 3.46417717847172e-07
"93" -0.000368879431360339 -0.000405556199843344 -0.000685694209057097 -0.000275990162582522 -0.000293801911558167 0.000102042990050521 -0.000188091225112896 7.38295692529925e-05 0.000168210505762314 0.000200258907657657 2.76818191480843e-05 0.000142053034197982 0.000252036266788178 -3.59841900181265e-05 -2.29225233396943e-06 7.44026452634178e-06
"94" -0.00038271597321946 -0.000456774289642721 -0.000742765521101838 -0.000264440240759572 -0.000355328722624702 0.000109005032459773 -0.000210374436755653 8.88815311543556e-05 0.000149805343363709 0.000202289561262378 1.79998202280977e-05 0.000158224564446874 0.000249960339927624 -3.70530612451494e-05 -1.28280797141853e-05 1.39782875577836e-05
"95" -0.000395103600159186 -0.000505809930462614 -0.000797958088373336 -0.000251438637509833 -0.000416421678141887 0.000116943847419519 -0.000231603593625015 0.000105507179925897 0.000129901401777543 0.00020340167024974 7.29485205570059e-06 0.000174058436835265 0.000246862232624888 -3.85819262626679e-05 -2.42159716755587e-05 1.9907222978825e-05
"96" -0.000405828219956695 -0.000552265910821726 -0.00085080094908053 -0.00023698223001872 -0.000476646593688709 0.000125834540283999 -0.000251620512039583 0.000123634702096455 0.000108669164451523 0.000203602753617496 -4.35531196777859e-06 0.000189449893198271 0.00024271152521683 -4.04966205161813e-05 -3.63711510661843e-05 2.51944835644663e-05
"97" -0.000414700727735932 -0.00059575777610822 -0.000900849784327811 -0.000221101725180596 -0.000535575095400016 0.000135645950770334 -0.0002702646918073 0.000143179838375694 8.62762044158023e-05 0.000202902854571567 -1.6864133261205e-05 0.00020429262817395 0.000237490695741811 -4.27306081978845e-05 -4.92113493831452e-05 2.98076206278972e-05
"98" -0.000421545449020774 -0.000635919322748088 -0.000947681569352095 -0.000203811987074337 -0.000592797595979736 0.000146327445119072 -0.000287404560456862 0.000164038456079546 6.29000615636013e-05 0.000201309988971227 -3.01490069764051e-05 0.000218470843951172 0.000231173448119539 -4.52147868284193e-05 -6.26478720810108e-05 3.37153827528929e-05
"99" -0.00042618794107154 -0.00067241131916109 -0.000990895626165949 -0.000185157428491023 -0.000647913244112951 0.000157828140934803 -0.000302902583321137 0.000186108410818134 3.8738075875096e-05 0.000198845223365387 -4.41044417906497e-05 0.000231888653156332 0.000223761938536427 -4.78759164334637e-05 -7.65832713105105e-05 3.69048885768105e-05
"100" -0.000428469930991226 -0.000704920737090891 -0.00103010548606684 -0.000165187458252016 -0.000700531109670404 0.000170094807448146 -0.000316641849585155 0.000209275740322522 1.39837486151394e-05 0.000195538982347685 -5.86243982602369e-05 0.000244455045806557 0.000215262426029813 -5.0633092693263e-05 -9.0912400237507e-05 3.93633143850189e-05
"101" -0.000428272016257007 -0.000733157952435014 -0.00106498252716597 -0.00014396036804653 -0.000750297753189072 0.000183046911892535 -0.000328518021443879 0.000233415797225544 -1.11721635748408e-05 0.000191407959355531 -7.36074945150893e-05 0.000256070085662438 0.000205678284332329 -5.34253638224652e-05 -0.000105539388456309 4.10832556680029e-05
"102" -0.000425466555724356 -0.000756874369021992 -0.00109520219662335 -0.000121546795334002 -0.000796871432366762 0.000196623023361018 -0.00033843542544718 0.0002584047708543 -3.6524543808092e-05 0.000186490721072738 -8.89356579182561e-05 0.000266655774990381 0.000195040940693029 -5.61695430953588e-05 -0.000120353741520142 4.20706890183064e-05
"103" -0.000419959068437355 -0.000775848949176374 -0.00112050152765867 -9.80249746519029e-05 -0.000839941262386829 0.000210734118113388 -0.000346326861285283 0.000284109881309482 -6.18764503517121e-05 0.000180821719729732 -0.000104494666757952 0.000276136972396824 0.000183379935866071 -5.88005107343366e-05 -0.000135248359112496 4.23316529259027e-05
"104" -0.000411677232528269 -0.000789902276666052 -0.00114064529564397 -7.34906519983514e-05 -0.000879227599827332 0.000225300263085344 -0.000352130481703364 0.000310390753974188 -8.70352957369613e-05 0.000174440942592953 -0.000120165557018251 0.000284446583419015 0.000170729601907763 -6.12520806418523e-05 -0.00015011525708373 4.18802118615247e-05
"105" -0.000400572686877196 -0.000798880227635163 -0.0011554390386304 -4.80361982210258e-05 -0.000914480102344363 0.000240230079564196 -0.00035579863643303 0.000337117215887951 -0.000111806284468399 0.000167391586362043 -0.000135831827521864 0.000291526813639175 0.000157143143728464 -6.34592712392891e-05 -0.000164848742163527 4.07371511351962e-05
"106" -0.000386614612517699 -0.000802680725934512 -0.00116474654512853 -2.17716331711159e-05 -0.00094549219939254 0.000255430241131545 -0.000357316722507079 0.00036414534312595 -0.000136001414002703 0.000159722148726846 -0.000151377197987486 0.000297331822664131 0.000142674273036838 -6.53660590510505e-05 -0.000179344607897191 3.89292762052329e-05
"107" -0.000369805624702024 -0.000801233401261045 -0.00116845561415437 5.19016665111003e-06 -0.000972078999111665 0.000270802171776946 -0.000356672901554034 0.000391332348784349 -0.000159444967863652 0.000151474440110992 -0.000166686761848198 0.000301820567409814 0.000127384567944387 -6.69161388555028e-05 -0.000193502006851514 3.64888698907011e-05
"108" -0.000350166704485998 -0.000794502829569097 -0.00116651976483964 3.27277908291325e-05 -0.000994102865376564 0.000286250339315591 -0.000353879095188574 0.000418549896534166 -0.000181968796858094 0.000142707757744772 -0.000181646214585534 0.000304969793325373 0.000111345469896278 -6.80668332870983e-05 -0.000207219891943509 3.34506650403737e-05
"109" -0.000327747472075987 -0.000782507875030563 -0.00115892392001195 6.07191221871616e-05 -0.00101146156046133 0.000301680790785398 -0.000348970034088044 0.000445655191608364 -0.000203406343833528 0.000133470901935128 -0.000196146036741997 0.000306765615755538 9.46306612098632e-05 -6.87674914062525e-05 -0.000220405474964708 2.98547242038271e-05
"110" -0.000302626103722585 -0.000765286273142098 -0.00114570737072138 8.90390765034548e-05 -0.00102408417265769 0.000316990858971292 -0.000341981950264854 0.000472521926225843 -0.0002236194911003 0.000123821637833495 -0.000210088375148674 0.000307203661287225 7.73171858728309e-05 -6.89916440015758e-05 -0.000232974933603188 2.57475960267058e-05
"111" -0.000274907798621748 -0.000742939199722594 -0.00112697137685977 0.000117541915192321 -0.00103196763115965 0.000332077992756016 -0.00033298755055196 0.000499013880896944 -0.00024246982814105 0.000113806476794666 -0.000223372757363203 0.000306286735336535 5.94902449682174e-05 -6.87128498015255e-05 -0.000244846683432801 2.11747383484026e-05
"112" -0.000244712884808281 -0.000715577522131794 -0.00110282587229871 0.000146111357232827 -0.00103510196976465 0.000346857879237782 -0.000322059867143929 0.000525024135108725 -0.000259841376941304 0.000103491034935007 -0.000235909207611495 0.000304039618007197 4.12397028884474e-05 -6.79091614960262e-05 -0.000255943074643902 1.61881081204931e-05
"113" -0.00021220346131636 -0.000683385800488441 -0.00107346466329633 0.000174599592844817 -0.00103356140292246 0.000361224764674496 -0.000309306049675661 0.00055041602804146 -0.00027563054424914 9.29242703007073e-05 -0.000247617259048889 0.000300482128190523 2.26481031091988e-05 -6.65732307483538e-05 -0.000266209179140479 1.08347535280022e-05
"114" -0.000177549911469792 -0.000646544698663623 -0.00103910730154076 0.000202882145844821 -0.00102742395085493 0.000375100026062617 -0.000294829493465422 0.000575103198587442 -0.000289751455601262 8.21625902766877e-05 -0.000258421690708919 0.000295663303649872 3.81150873801765e-06 -6.47018816026887e-05 -0.000275583118906585 5.17277238087146e-06
"115" -0.000140957725961438 -0.000605308152012799 -0.00100002355430124 0.000230815802581723 -0.00101683612065139 0.000388388124153553 -0.000278764698203031 0.000598964304276177 -0.000302133019345124 7.12609698826076e-05 -0.000268256369928108 0.000289623141294858 -1.51829737131891e-05 -6.22974052088961e-05 -0.000284023267407942 -7.49875394039735e-07
"116" -0.000102642680579036 -0.000559928120250959 -0.000956506072727863 0.000258281560234603 -0.00100194853487705 0.000401019067930735 -0.000261242049224656 0.000621926049643305 -0.000312729254012209 6.02734191337505e-05 -0.00027707143982743 0.000282427617373034 -3.42396013185274e-05 -5.93772503956227e-05 -0.000291490515268236 -6.87222329201246e-06
"117" -6.28514440377382e-05 -0.000510725576453754 -0.000908911746921721 0.00028514697990963 -0.000982971681973533 0.000412910690574411 -0.000242421449768916 0.000643897807319967 -0.000321502453537671 4.92528432542924e-05 -0.000284819451242742 0.000274144522265168 -5.32682992966861e-05 -5.59554608256796e-05 -0.000297959052596602 -1.31466459852507e-05
"118" -2.18509163555558e-05 -0.000458022504301122 -0.000857614630036519 0.00031129612526875 -0.00096014144092525 0.000423994988960634 -0.000222462985651266 0.000664799877455693 -0.000328448089193956 3.82437113882299e-05 -0.000291473737296024 0.000264839051394998 -7.21930318135732e-05 -5.2065435667903e-05 -0.000303418476845282 -1.95204497417065e-05
"119" 2.00848056092119e-05 -0.000402179617623793 -0.000803025922196122 0.000336607932859048 -0.000933712685524879 0.000434210357178456 -0.00020153418842955 0.000684580197061914 -0.00033356283434954 2.72891662860931e-05 -0.000297007742400153 0.000254597612398276 -9.09197171884771e-05 -4.7741482395234e-05 -0.000307864468277183 -2.59427068383883e-05
"120" 6.26741797393816e-05 -0.000343588398197862 -0.000745580383208941 0.000360982224446859 -0.000903978176157299 0.000443512088146007 -0.000179818058921483 0.000703190885941661 -0.000336869829115471 1.64443822253209e-05 -0.000301410341377307 0.000243515351384769 -0.000109365682275002 -4.30181002674723e-05 -0.000311299856657119 -3.23636213563276e-05
"121" 0.000105594617274004 -0.000282656090315321 -0.000685756058643274 0.000384309892345778 -0.000871270620915099 0.000451836714449057 -0.000157503600520463 0.00072057351736351 -0.000338417186188372 5.73623866889179e-06 -0.000304687339775249 0.000231673066912372 -0.000127464855990734 -3.79361881400002e-05 -0.000313743575417107 -3.8739982833601e-05
"122" 0.000148550082467667 -0.000219813833988317 -0.000624018827833088 0.000406503663794361 -0.0008359089227176 0.000459156738538141 -0.000134772225409437 0.000736713348097592 -0.000338258820879246 -4.79108108592236e-06 -0.000306848044534663 0.000219174154038302 -0.000145137515497554 -3.25571032650841e-05 -0.000315224140587071 -4.50282637651254e-05
"123" 0.000191211285120303 -0.000155513141708776 -0.000560887554254594 0.000427476309397264 -0.000798266471603929 0.000465435104131831 -0.000111827019708105 0.000751580096580099 -0.000336469331102609 -1.51107243798152e-05 -0.000307915735902539 0.000206110323117424 -0.000162325094845143 -2.69239923810165e-05 -0.000315777137127419 -5.11895443119006e-05
"124" 0.000233262714631598 -9.02102168148763e-05 -0.000496861438162341 0.000447155007301162 -0.000758711767006324 0.000470654018273249 -8.88514373405577e-05 0.000765173138388953 -0.000333142382389021 -2.51891835019166e-05 -0.000307924617666486 0.000192590390520237 -0.000178965480004584 -2.1091488735969e-05 -0.000315450745070905 -5.71876736765134e-05
"125" 0.000274375680495527 -2.4384575765271e-05 -0.000432466981055889 0.000465476480553871 -0.000717641802239014 0.000474788892297918 -6.60435131473122e-05 0.000777479346834482 -0.000328385154692896 -3.50092339717672e-05 -0.000306921440873965 0.000178703782773303 -0.000195012810503404 -1.5119390111073e-05 -0.000314295605502955 -6.29918937130152e-05
"126" 0.000314238901475546 4.1480637951933e-05 -0.000368221995167041 0.000482383560447132 -0.000675443855896821 0.000477842651064669 -4.3595317555345e-05 0.000788525822424801 -0.000322308212263251 -4.45484848666291e-05 -0.00030495563753728 0.000164560518935449 -0.000210416497027276 -9.06469825122597e-06 -0.000312380380606044 -6.85784504221312e-05
"127" 0.000352533365626276 0.000106899384964043 -0.000304645228054763 0.000497833416862766 -0.000632526337068979 0.000479805324007452 -2.16923659230818e-05 0.000798314318771461 -0.0003150441119028 -5.37933747398867e-05 -0.000302092698355667 0.000150252911432691 -0.00022514564006369 -2.97874590359953e-06 -0.000309768780377213 -7.3918509361868e-05
"128" 0.000388953626540331 0.000171386824216943 -0.000242247598688989 0.000511796257537925 -0.000589295300302109 0.000480689750555381 -5.16630612809664e-07 0.00080688159032946 -0.000306738713491307 -6.27413845513614e-05 -0.000298408192073895 0.000135872820179381 -0.000239171862996446 3.07723633978838e-06 -0.000306542213625243 -7.899847527662e-05
"129" 0.00042321311366694 0.000234461324075426 -0.000181523757449197 0.00052424753273146 -0.000546142448125455 0.000480510989583136 1.97630196648083e-05 0.00081426718572736 -0.000297531491538768 -7.13776984445397e-05 -0.000293975775811649 0.000121519921687989 -0.000252473528336674 9.05165620750238e-06 -0.000302778623730591 -8.3804937713713e-05
"130" 0.000455032155493906 0.000295645911300457 -0.000122947111112627 0.000535179669681058 -0.000503473465837326 0.000479290384645194 3.89755602794826e-05 0.00082050221725206 -0.000287584362180905 -7.97119425840096e-05 -0.000288881217619792 0.000107271939831841 -0.000265038700550535 1.48933710626616e-05 -0.000298563400013706 -8.83238270186611e-05
"131" 0.000484155163401126 0.000354482438365749 -6.69790370788422e-05 0.00054458717417245 -0.000461671503661449 0.000477056297465509 5.69733430637894e-05 0.000825647427739122 -0.000277052909130198 -8.77462340670361e-05 -0.000283216235766147 9.32130517089882e-05 -0.000276858823594362 2.05532471040538e-05 -0.000293987037417611 -9.25566880354955e-05
"132" 0.000510346326186057 0.000410522135141731 -1.40404353183167e-05 0.000552482152341265 -0.000421106636094623 0.000473844355184305 7.36170238051041e-05 0.000829751951559232 -0.00026609194097892 -9.54875405042058e-05 -0.000277073083313331 7.94187799190816e-05 -0.000287939484341091 2.59855237711084e-05 -0.000289135006073324 -9.64986901307847e-05
"133" 0.000533387530382555 0.000463349292342727 3.54699594937768e-05 0.000558887527909362 -0.000382139585654426 0.000469689422152827 8.87671630600047e-05 0.000832875541353246 -0.000254878100533443 -0.000102954509832091 -0.000270555653003231 6.5951865040344e-05 -0.000298293534974082 3.11508077628166e-05 -0.000284104374011261 -0.000100155142102054
"134" 0.000553091661520383 0.000512571498365279 8.12004974036109e-05 0.000563831276168367 -0.000345105342786595 0.000464638953489913 0.000102323558653783 0.000835086775977497 -0.000243569182897977 -0.000110164315205548 -0.000263762349857766 5.28749043643007e-05 -0.000307935418563943 3.60076285819088e-05 -0.00027898976244336 -0.000103535738336864
"135" 0.000569307075477385 0.000557819162865743 0.000122833335445932 0.000567354417482602 -0.000310313934536006 0.00045874743385004 0.000114182716515179 0.000836449886381501 -0.00023231386250592 -0.000117131009778499 -0.000256790906468906 4.02425043716445e-05 -0.000316880036319647 4.0532996574629e-05 -0.000273869548273933 -0.000106644002691268
"136" 0.000581893033123421 0.000598763909415537 0.000160097922225433 0.00056950809951018 -0.000278054013857427 0.000452058509808319 0.000124263520701379 0.000837032213530542 -0.000221283851641759 -0.000123892772138952 -0.000249750956342144 2.80917136467664e-05 -0.000325167976036546 4.46927103311136e-05 -0.000268845048592766 -0.000109503904160054
"137" 0.000590758041850081 0.000635117397492539 0.000192763506090939 0.000570346590967561 -0.000248580493567578 0.000444634945881656 0.000132502527371359 0.000836905251745169 -0.000210617229038372 -0.000130466263169547 -0.000242738151369678 1.64649444712463e-05 -0.000332829900444637 4.84663927604683e-05 -0.000263996476402973 -0.00011212913386508
"138" 0.00059583524805991 0.000666630378004615 0.000220655456320175 0.000569934608987528 -0.000222124258026243 0.000436533844334986 0.000138848788201332 0.000836138098470986 -0.000200458489592809 -0.00013688277443896 -0.000235851509443036 5.38781328088246e-06 -0.000339902584898654 5.183709027597e-05 -0.000259405712245206 -0.000114536893421864
"139" 0.000597083521811352 0.000693110966094776 0.000243644818630462 0.000568347957480332 -0.000198868097584816 0.000427817081234295 0.000143280650656024 0.000834808537769926 -0.000190946045182825 -0.000143176452793888 -0.000229191842779792 -5.12221434391263e-06 -0.000346428556603053 5.47917974715942e-05 -0.000255155323406049 -0.000116753949141085
"140" 0.000594505998651861 0.000714403949890332 0.000261661707560674 0.000565666650502001 -0.000178977473859626 0.000418545592793772 0.000145786968300533 0.000832975242797186 -0.000182197311221961 -0.000149382472807629 -0.000222848065849999 -1.50569835631925e-05 -0.000352459174146735 5.73255688826312e-05 -0.000251310068155678 -0.000118801362501171
"141" 0.000588135415685876 0.000730415405793174 0.00027467680782568 0.000561970982446123 -0.000162566006692478 0.000408787506598656 0.000146372783851753 0.000830715906036352 -0.000174320839166156 -0.000155526121611357 -0.000216902544921732 -2.4406529907911e-05 -0.000358035217736861 5.94336340624097e-05 -0.000247941112412631 -0.000120703733709842
"142" 0.000578027925010306 0.000741089975019023 0.000282717397487772 0.000557354972573158 -0.000149724812078517 0.000398603757752806 0.0001450626233664 0.000828085591808523 -0.000167425468961602 -0.00016165251304132 -0.000211447163297007 -3.31828985050122e-05 -0.000363215603525041 6.11189635802849e-05 -0.000245111785323552 -0.000122493270788991
"143" 0.000564285488066336 0.00074645276966663 0.000285867971895178 0.000551912108741231 -0.000140485593835418 0.000388064559625939 0.00014190760473298 0.000825157288717889 -0.000161592915475003 -0.000167787748023094 -0.000206550164859 -4.13907800417675e-05 -0.000368043146285522 6.23858942310936e-05 -0.000242868610077315 -0.000124190400941921
"144" 0.000547024710290006 0.000746553775251909 0.000284250657379715 0.000545736914918273 -0.0001348715847393 0.000377224688638806 0.00013696299847808 0.000821981031278934 -0.000156901749498132 -0.000173970785989025 -0.000202283214333737 -4.90573187908876e-05 -0.000372573968477824 6.32463121172271e-05 -0.000241262315752365 -0.000125824456065977
"145" 0.000526402237997156 0.000741523258579007 0.000278039478396675 0.000538934948609948 -0.000132837894049048 0.000366156772133301 0.0001303096422332 0.000818621281729472 -0.000153409439324623 -0.000180230347091831 -0.000198705467577995 -5.61993491742189e-05 -0.000376863774121996 6.37144660364617e-05 -0.000240332090955016 -0.000127422304924612
"146" 0.000502598486914156 0.000731511638523655 0.000267457012956227 0.000531596895807389 -0.000134332008775503 0.000354914776939859 0.00012203089151123 0.000815112073742413 -0.000151161000189 -0.000186599433967101 -0.000195872306210685 -6.28521671000524e-05 -0.000380960099651337 6.38040858416105e-05 -0.000240108051741333 -0.000129014919663769
"147" 0.000475809649100799 0.000716755521996547 0.000252762512456526 0.000523833150455513 -0.000139242372819168 0.000343562999881073 0.00011224299741047 0.000811509153474996 -0.000150186590248121 -0.000193107138968149 -0.000193825707693309 -6.90506579767427e-05 -0.000384914902335928 6.35435404673538e-05 -0.000240609618906607 -0.000130619222499685
"148" 0.000446266352800971 0.000697520909043728 0.000234255710522336 0.000515747706020857 -0.000147434604832017 0.000332162168386913 0.000101057437300486 0.000807852937387538 -0.000150513330331898 -0.000199779689665325 -0.000192604851249581 -7.48313998629889e-05 -0.000388774365005434 6.29504530225133e-05 -0.000241856360233886 -0.000132261720839645
"149" 0.000414211514388937 0.000674120288710926 0.000212258906922195 0.000507434611653057 -0.000158741006905746 0.000320763458308877 8.8611728277649e-05 0.0008041836860269 -0.000152141555011287 -0.000206639408486527 -0.000192238426628254 -8.02383499164648e-05 -0.000392582484045683 6.20511884529251e-05 -0.000243855908098153 -0.00013397002843277
"150" 0.000379900340484204 0.000646901214355284 0.00018713360904725 0.000498993856313319 -0.000172964687099311 0.000309414901963138 7.50336832510268e-05 0.000800519466852609 -0.000155060165610582 -0.000213709088718523 -0.000192743480268729 -8.53208673726134e-05 -0.000396390695474372 6.08755282921777e-05 -0.000246606314961294 -0.000135756407641101
"151" 0.000343610230832268 0.00061626089431073 0.000159272088467803 0.000490524540022849 -0.000189882646852391 0.000298174982960039 6.04861721576743e-05 0.000796898364840198 -0.000159255219995273 -0.000221011982397737 -0.000194134845427156 -9.01224052512821e-05 -0.000400228443314983 5.94507578105736e-05 -0.00025010320544904 -0.000137644898572295
"152" 0.000305630637481439 0.000582612929664281 0.000129072454261915 0.000482118313992088 -0.000209241207246466 0.000287085062589735 4.51137589572275e-05 0.000793335129759558 -0.000164686523795431 -0.000228551807562305 -0.000196411604685022 -9.46912761997424e-05 -0.000404136759598397 5.78116000388654e-05 -0.000254330329965402 -0.000139648492024296
"153" 0.000266254098191791 0.000546403642337149 9.69528571449607e-05 0.000473862448718671 -0.000230771237625412 0.00027619391854826 2.90861736824088e-05 0.000789853575632245 -0.000171307726849614 -0.00023634355094072 -0.000199565451177096 -9.90717299155945e-05 -0.000408143616422886 5.59984571670003e-05 -0.000259257867938254 -0.000141774477123512
"154" 0.000225769828430721 0.000508098242375447 6.33437509973213e-05 0.000465844296723896 -0.000254188543318601 0.000265529870447552 1.25540208448022e-05 0.000786454661225182 -0.000179069148492056 -0.000244399123057398 -0.000203588840787496 -0.000103325686213767 -0.000412281755055894 5.40307058004646e-05 -0.000264872943278993 -0.000144042045720246
"155" 0.000184488770326811 0.000468175992637261 2.86769858085904e-05 0.000458139840506181 -0.000279179902379214 0.000255139124938688 -4.30546143910078e-06 0.000783153434300457 -0.000187904847704322 -0.000252715397612613 -0.000208458245622 -0.000107489338647189 -0.000416572705421872 5.19515015269401e-05 -0.000271130808310179 -0.000146451366390013
"156" 0.000142710197545577 0.000427117739077194 -6.61700460435352e-06 0.00045081573675504 -0.000305445402970639 0.000245049125284446 -2.13315646774156e-05 0.000779947423566972 -0.000197730670376631 -0.000261288049381439 -0.000214139400743084 -0.000111609933436386 -0.000421032346374781 4.97961175520106e-05 -0.000277991503590422 -0.000149011220019935
"157" 0.000100726914871848 0.000385426399685668 -4.21036065536539e-05 0.000443948337416907 -0.000332651282892107 0.000235289690717572 -3.83609314912278e-05 0.00077684408820336 -0.000208474818842386 -0.000270117399029831 -0.000220600633246358 -0.000115729859192351 -0.000425675376437906 4.76029955159765e-05 -0.000285410037109909 -0.000151714595871136
"158" 5.88353731929413e-05 0.000343578285680747 -7.73655482662668e-05 0.000437591773331299 -0.00036047373771755 0.000225880820966917 -5.52328794496979e-05 0.000773834837003318 -0.000220042531813206 -0.000279193698089378 -0.000227799103402312 -0.000119892912953233 -0.000430511805675825 4.53981013627433e-05 -0.000293335457226996 -0.000154564863199512
"159" 1.73194023686778e-05 0.000302055246457851 -0.000111998375951052 0.000431792405937855 -0.000388595839901519 0.000216849484989361 -7.17866866652685e-05 0.000770915836042239 -0.000232338476165532 -0.000288502702961905 -0.000235686606595585 -0.000124134089774927 -0.000435541777718878 4.32192050613305e-05 -0.00030171600201004 -0.000157555363278039
"160" -2.35491307608652e-05 0.000261320658967598 -0.00014561340531488 0.000426600017641646 -0.000416685023149357 0.000208207936499823 -8.78799483604774e-05 0.000768072518924358 -0.000245262495372423 -0.00029802697474418 -0.000244209206590405 -0.000128484861371337 -0.000440768731201536 4.10951516225906e-05 -0.000310492244554384 -0.000160680474889712
"161" -6.34989392587375e-05 0.000221827587443057 -0.000177842248895254 0.000422049076664313 -0.000444422414610757 0.000199975181611946 -0.000103364162808278 0.00076529795595637 -0.000258704902132527 -0.000307742394177624 -0.000253303818771638 -0.000132970778319861 -0.000446181346839728 3.90692094768393e-05 -0.000319595137883263 -0.000163920352759006
"162" -0.00010228727527495 0.000183993992897889 -0.00020833984703635 0.000418163332817984 -0.000471505847092347 0.000192157025587288 -0.000118108639017598 0.000762574236238695 -0.000272561809884561 -0.000317628113839499 -0.000262910372295491 -0.000137616480612387 -0.000451767842617931 3.71629267276845e-05 -0.000328964183529531 -0.000167264944432085
"163" -0.000139675410016819 0.000148221394994691 -0.000236791569303182 0.00041496209359207 -0.000497633857618818 0.000184764851417017 -0.00013198590458934 0.000759889454825768 -0.000286716078229482 -0.000327651892442709 -0.000272957683982813 -0.000142433144729933 -0.000457513804942718 3.54064959033994e-05 -0.00033852950846841 -0.000170697374673455
"164" -0.000175446480106709 0.000114878174029564 -0.000262915459592339 0.000412457296940085 -0.000522529288474627 0.000177798064416922 -0.000144882872656003 0.00075722394294471 -0.000301065770535407 -0.000337788103583223 -0.000283379133740041 -0.000147440720765182 -0.000463398974546948 3.38220143190714e-05 -0.000348225289228355 -0.000174199912284351
"165" -0.000209395744370453 8.43018293842756e-05 -0.000286450722760578 0.000410648920608839 -0.000545926505149184 0.000171262863759448 -0.000156691156167247 0.00075455833422429 -0.000315490044947958 -0.000347994223409108 -0.000294095195630729 -0.000152636614165436 -0.000469393899989504 3.24400879610347e-05 -0.000357973445163336 -0.000177745212521782
"166" -0.000241349132140766 5.6790940374594e-05 -0.000307187094126391 0.00040952909805655 -0.000567587572447974 0.000165154335196528 -0.000167324999122434 0.000751878861935433 -0.000329883988638215 -0.000358240102049731 -0.000305039221774415 -0.000158028588513372 -0.000475469857651581 3.12739849309381e-05 -0.000367711451093328 -0.000181315654904171
"167" -0.000271133677050901 3.2610567785758e-05 -0.000324928336063782 0.000409090615730235 -0.000587281564625362 0.000159472440529799 -0.00017670297626284 0.000749163111868031 -0.000344138868818592 -0.00036848245976407 -0.00031612606718847 -0.000163602017749026 -0.000481595025074333 3.03441977397322e-05 -0.000377364664477234 -0.000184884241798353
"168" -0.000298613215402312 1.19768010707786e-05 -0.000339538605408654 0.000409299172267954 -0.00060481975980713 0.000154206452908413 -0.000184761857960352 0.000746381050116102 -0.00035814304915737 -0.000378683805620179 -0.000327281592893074 -0.00016935661067303 -0.000487732010465447 2.96598479662469e-05 -0.000386861163420169 -0.000188423880435702
"169" -0.000323657533986762 -4.91378387540121e-06 -0.000350896381931797 0.000410132863092257 -0.000620020668998239 0.000149353961717731 -0.000191442085229897 0.000743531791575909 -0.000371800722999701 -0.000388798519592161 -0.000338426091843322 -0.000175263913208415 -0.00049383428382592 2.92345223470176e-05 -0.000396132608528911 -0.000191908502915397
"170" -0.000346169064017761 -1.79280006165681e-05 -0.000358940537627716 0.00041154761172372 -0.000632747073734268 0.000144902369293603 -0.000196704044799296 0.000740584145207532 -0.000385004837537852 -0.000398779181007332 -0.000349482232256848 -0.000181303471783676 -0.000499858457650378 2.90787214416344e-05 -0.000405106406001686 -0.000195306764950788
"171" -0.000366060325975132 -2.69606105318501e-05 -0.00036361582000874 0.000413508893570353 -0.000642867559579962 0.00014084709270358 -0.000200518729356867 0.000737526447123108 -0.000397668126806827 -0.000408584055383304 -0.000360373360595226 -0.000187448212393458 -0.000505762399962341 2.9188235372102e-05 -0.000413722771558238 -0.000198596680587941
"172" -0.000383273990645632 -3.19591353004458e-05 -0.000364938141721253 0.000415957473369793 -0.000650298469048159 0.000137168365133145 -0.000202878322310797 0.000734326817408119 -0.000409700740031842 -0.000418165472028246 -0.000371022593802424 -0.000193669611615451 -0.000511497701760199 2.95639316695295e-05 -0.000421914307785591 -0.000201744332055626
"173" -0.000397768134120255 -3.28973744545406e-05 -0.000362932216232937 0.000418847324568809 -0.000654974611895311 0.000133860797952654 -0.000203768522204181 0.000730983892616686 -0.000421025912277345 -0.000427478762875707 -0.000381361167395016 -0.000199924171330654 -0.000517009108321942 3.01966825451546e-05 -0.000429622404039528 -0.000204722821074333
"174" -0.000409516125137437 -2.98060161502663e-05 -0.000357667752843332 0.000422108806078131 -0.000656851304503972 0.000130910196444276 -0.000203207531284616 0.000727474657911231 -0.000431560900369901 -0.00043647110887066 -0.000391310840032396 -0.000206170050452526 -0.000522248305946081 3.10865929978322e-05 -0.000436786392870036 -0.00020750538985339
"175" -0.000418523187407694 -2.27456565122975e-05 -0.000349254295067847 0.000425682060203867 -0.000655934482942074 0.000128300724448311 -0.000201213383454834 0.00072378377417981 -0.000441250687298211 -0.000445105991479534 -0.000400811726426538 -0.000212370094268808 -0.000527162707874282 3.22046214041338e-05 -0.000443361172987515 -0.000210071838970003
"176" -0.000424794528660438 -1.18164392477718e-05 -0.000337817018535774 0.000429498432456522 -0.000652230218973166 0.00012602479764237 -0.000197819317352394 0.000719896572707604 -0.000450024595075854 -0.000453328136702597 -0.000409792255323418 -0.000218468028983326 -0.000531697532193699 3.35455799135502e-05 -0.000449286441384381 -0.000212387248636189
"177" -0.000428377568007391 2.84144861897124e-06 -0.000323516232511649 0.000433490367944327 -0.000645784369085514 0.000124066966115035 -0.00019306962843116 0.000715801537458819 -0.000457840992687151 -0.000461103697046679 -0.000418199023172911 -0.000224417401458899 -0.000535810875518471 3.5084361359894e-05 -0.000454529450458983 -0.000214434826729996
"178" -0.000429316936653882 2.10505276027486e-05 -0.000306549921461909 0.000437580265245578 -0.000636676327359986 0.000122413972842231 -0.000187014457227915 0.000711486124220884 -0.000464656322967384 -0.000468381176506288 -0.000425972252513905 -0.000230167067943502 -0.000539443328345834 3.67953207266234e-05 -0.000459043233501396 -0.000216191692989315
"179" -0.000427683892947428 4.25973955851946e-05 -0.000287121397365041 0.000441698974535265 -0.000624993573568214 0.000121053428520714 -0.000179721706990473 0.000706934078129575 -0.000470435948488321 -0.000475126280587975 -0.000433060812610174 -0.000235661732498095 -0.000542554148035231 3.86544203560618e-05 -0.000462795919830974 -0.000217638994560261
"180" -0.000423559950603891 6.72490493206885e-05 -0.000265464120912603 0.000445771510230867 -0.000610846607045391 0.000119981448629086 -0.000171255950844189 0.000702146698753039 -0.0004751536494424 -0.000481291598710538 -0.000439418218147444 -0.000240847976047255 -0.000545092093257034 4.06299601353978e-05 -0.000465758222294948 -0.000218759946361205
"181" -0.000417043433511387 9.47402768150184e-05 -0.000241831495768188 0.000449722448161629 -0.000594381692589561 0.000119182634281462 -0.00016169498046037 0.000697116728171752 -0.000478799945452061 -0.000486850298130268 -0.000445003755667279 -0.000245673630602904 -0.000547015213206855 4.26853232744727e-05 -0.000467909363383134 -0.000219536701989112
"182" -0.000408247867958752 0.000124763872105021 -0.000216491202343998 0.000453480928380893 -0.000575753406268479 0.000118649128471569 -0.000151125907544865 0.000691830305933617 -0.000481364444351611 -0.000491761057277286 -0.000449782604842498 -0.000250083829733274 -0.00054828478806242 4.47895225882567e-05 -0.000469227343371327 -0.000219961881925325
"183" -0.00039729882718812 0.000157003315479657 -0.000189720970996673 0.000456976973170957 -0.0005551352295989 0.00011837318698556 -0.000139642376996429 0.000686281064528113 -0.000482854975636413 -0.000495997871966957 -0.000453722789476724 -0.000254029491754672 -0.00054886813490311 4.69065299877116e-05 -0.000469704973257366 -0.000220023869736231
"184" -0.000384329001677348 0.000191124833189206 -0.000161805058320951 0.000460143914836296 -0.000532711373708125 0.00011834969348698 -0.000127334022165794 0.000680470478889561 -0.000483274674031138 -0.00049953029976929 -0.000456800560502501 -0.00025746114609353 -0.000548729169396628 4.90010777005684e-05 -0.000469330402315262 -0.000219712575715465
"185" -0.000369492706440469 0.000226766438409375 -0.000133044033062968 0.00046291628736914 -0.000508691110669279 0.000118566106720497 -0.000114307663891778 0.000674393125367471 -0.00048265075568807 -0.000502337964747935 -0.000459000895093214 -0.000260335281901686 -0.000547851065969079 5.10303790439685e-05 -0.000468110326606351 -0.000219032546807689
"186" -0.000352930775584907 0.000263558733556644 -0.000103720342699721 0.00046523476099541 -0.000483282873825701 0.000119031211814231 -0.000100654466621172 0.000668047387606405 -0.000481006634021002 -0.000504394215453745 -0.000460308924986715 -0.000262602471200904 -0.000546200991062893 5.29598797610516e-05 -0.000466047196531508 -0.00021797371935894
"187" -0.000334807942609729 0.000301118604875407 -7.41388457631844e-05 0.000467046853605102 -0.000456704340833836 0.000119730568389997 -8.64836077666263e-05 0.000661434322568719 -0.000478379599095501 -0.00050568788964352 -0.000460716690547842 -0.000264228584617696 -0.000543770306052653 5.47546929872644e-05 -0.000463147303234068 -0.000216540169221812
"188" -0.0003152878683715 0.000339057568120635 -4.45836636456803e-05 0.000468302005555756 -0.000429185898751651 0.000120670594778459 -7.1901398943038e-05 0.000654550651382132 -0.000474805581234005 -0.00050620169030645 -0.000460222572091924 -0.00026517549320245 -0.000540541482215699 5.63776698437392e-05 -0.000459429611282666 -0.000214735800926008
"189" -0.000294542538472139 0.000376984028147691 -1.53359807611886e-05 0.000468951217405909 -0.000400956692708419 0.000121845959047854 -5.70085388274519e-05 0.000647399314494397 -0.000470333056684803 -0.00050592619133808 -0.000458829734666053 -0.000265411346408246 -0.000536514415692946 5.77993330278932e-05 -0.000454914921703948 -0.000212563860309479
"190" -0.000272742465739703 0.000414508794915276 1.33314550615337e-05 0.00046896706707517 -0.000372246430579183 0.000123262557638951 -4.19072984257757e-05 0.000639989836709085 -0.000465020675702565 -0.000504855420069422 -0.000456552230874382 -0.000264910456245869 -0.000531687425971185 5.89832691206961e-05 -0.000449629188356637 -0.000210036646421754
"191" -0.000250057797961319 0.000451244521900443 4.11605510334141e-05 0.000468311226883685 -0.000343288472540264 0.000124914266160125 -2.67068675626626e-05 0.000632314493661321 -0.000458918449120442 -0.000502986341849624 -0.000453399292064785 -0.000263655066432554 -0.000526064744319358 5.99122901595214e-05 -0.000443596048156081 -0.000207154843534404
"192" -0.000226668816770505 0.000486813830757811 6.79093083381799e-05 0.000466962329371809 -0.000314308092165023 0.000126808832203493 -1.15002459880764e-05 0.00062438474407858 -0.000452098168735277 -0.000500330474613892 -0.000449396458072731 -0.000261632672097026 -0.000519665795821959 6.05467664715806e-05 -0.000436860716955135 -0.00020394263679315
"193" -0.000202744201144461 0.000520851945018378 9.33546545673329e-05 0.000464904884754839 -0.000285525767074559 0.00012894653684747 3.61408548019949e-06 0.00061619917309858 -0.000444614841958137 -0.000496881868774323 -0.000444564669849285 -0.00025883165228272 -0.00051250266894739 6.08801438140662e-05 -0.000429452159796028 -0.000200402237098811
"194" -0.00017844508119357 0.000553008103527951 0.000117295089114225 0.00046212634318102 -0.000257153823559226 0.000131330263792215 1.8544630187792e-05 0.000607770640500477 -0.000436539757136231 -0.000492657327342488 -0.000438929127388711 -0.000255250043520319 -0.000504595429498864 6.08933265820244e-05 -0.000421410527917681 -0.000196551803808579
"195" -0.000153937205174882 0.000582958198119677 0.000139548404904634 0.000458629738168304 -0.000229395767802227 0.00013397011345707 3.32091230873514e-05 0.000599104228788661 -0.000427938337702202 -0.000487665879069565 -0.000432524712783492 -0.000250889413766595 -0.000495973371972076 6.05742983288304e-05 -0.000412782156905529 -0.000192404896376062
"196" -0.00012937981348956 0.000610399583153779 0.000159960151059966 0.000454419131673531 -0.000202442758546191 0.000136863646703804 4.75241259606501e-05 0.000590215937361847 -0.000418884088730987 -0.000481924821219412 -0.000425386034896945 -0.000245756171547669 -0.000486667168140686 5.99250713068656e-05 -0.000403612681999579 -0.000187977315849532
"197" -0.000104923642950552 0.00063505302221415 0.000178397445322435 0.000449508008457496 -0.000176479230003505 0.000140015426451981 6.14143245087792e-05 0.000581105187360029 -0.000409450453670763 -0.000475459495666679 -0.000417553858798653 -0.000239873371739627 -0.000476718093154732 5.8932091889251e-05 -0.000393952740865027 -0.000183285563904423
"198" -8.07048155583315e-05 0.000656672701244083 0.000194758578917665 0.000443918607294493 -0.000151655041288602 0.000143434729860588 7.48129306244893e-05 0.000571793823244068 -0.000399696258887442 -0.000468287091283931 -0.000409064487795279 -0.00023325490434751 -0.000466160433246605 5.76125281341701e-05 -0.000383845729145465 -0.000178344133712835
"199" -5.68606537419219e-05 0.000675044532086652 0.000208961927309924 0.000437680668116862 -0.000128126275468043 0.000147119798691183 8.76571308353048e-05 0.000562285770438344 -0.000389693170640868 -0.000460432844896035 -0.000399964301894707 -0.000225929653573661 -0.000455041092524714 5.5976328724022e-05 -0.000373346005488188 -0.000173169644281257
"200" -3.35180845319942e-05 0.00068999711470326 0.000220951759116333 0.000430824610220786 -0.000106023842351431 0.000151070593857416 9.98948814769992e-05 0.000552600102667011 -0.000379506204557937 -0.000451936420670647 -0.000390298365799706 -0.000217935515754828 -0.000443408277061607 5.40392457383246e-05 -0.000362505902710423 -0.000167778498238652
"201" -1.07819694387901e-05 0.000701385898483298 0.00023071840754825 0.000423391286122183 -8.54488219915268e-05 0.000155295878596027 0.000111480275966625 0.000542758125408188 -0.000369196435832451 -0.000442817922448823 -0.000380112020734188 -0.000209299958875087 -0.000431307059016491 5.18216516878969e-05 -0.00035137789306476 -0.000162185801330508
"202" 1.12458386345316e-05 0.000709106170240647 0.000238253545470805 0.000415433032603955 -6.65047120128763e-05 0.000159791173899645 0.000122375455257675 0.00053276914801092 -0.00035882087735791 -0.000433110733347853 -0.000369452060069375 -0.000200068839736896 -0.000418793122614637 4.93529288948977e-05 -0.000340008970062236 -0.000156407055929986
"203" 3.24769114629362e-05 0.000713107844046486 0.000243592144388066 0.000407004615896572 -4.92518106141361e-05 0.000164563751221406 0.000132551699935625 0.000522662960568479 -0.000348428211458403 -0.00042285277433332 -0.000358364130955304 -0.00019028494909527 -0.000405915054148774 4.66749004693083e-05 -0.000328449485015491 -0.000150450049611943
"204" 5.2831005699622e-05 0.00071336256385483 0.000246781944906182 0.000398157232347738 -3.37449560017702e-05 0.000169604580376614 0.000141987231288085 0.000512451161857332 -0.000338072379959431 -0.000412085978723534 -0.000346900852147736 -0.000180000860124194 -0.000392730559813559 4.38171247214477e-05 -0.000316755284472228 -0.000144331862641088
"205" 7.22466491276411e-05 0.000709895200312098 0.000247910634101424 0.000388961096961901 -2.00129517151112e-05 0.000174916731553378 0.000150665377007442 0.000502165701930338 -0.000327791039085567 -0.00040083652318274 -0.0003351024871388 -0.000169266625136908 -0.000379292500008594 4.08329007446225e-05 -0.000304968796375036 -0.000138062450031885
"206" 9.06722604828961e-05 0.000702768490420197 0.000247067329471489 0.000379481311329525 -8.06826845704034e-06 0.000180493938498968 0.000158578990059276 0.000491829660718594 -0.000317624700161345 -0.000389148102658246 -0.000323020487401961 -0.000158137532829515 -0.000365655591083116 3.77669889100879e-05 -0.000293136943704827 -0.000131649759627386
"207" 0.000108069055225204 0.000692084333007192 0.000244379027688929 0.000369788453573487 2.09974975483971e-06 0.000186330218829195 0.000165733759563131 0.000481476136354794 -0.000307607110037352 -0.00037706381342468 -0.000310699140868788 -0.00014667071751932 -0.000351872833666223 3.46697162424158e-05 -0.000281308019744806 -0.00012510502570013
"208" 0.000124409027894656 0.000677980147027293 0.000239984148976738 0.00035995610864478 1.05181451868929e-05 0.000192422080557727 0.000172142011774913 0.000471133128014183 -0.000297757164516765 -0.000364617387082816 -0.000298183926688652 -0.000134922276079547 -0.000337999480240168 3.16037023554741e-05 -0.000269522164858604 -0.0001184310078547
"209" 0.000139672830949186 0.00066063373816561 0.000234032113903299 0.000350060229091531 1.72386701939885e-05 0.000198754916423741 0.000177807541565319 0.000460829303592767 -0.000288104441821732 -0.000351856634929918 -0.000285518374705156 -0.000122957524208429 -0.000324091923850373 2.86195042618671e-05 -0.000257820755268758 -0.000111638379871708
"210" 0.000153861347768555 0.000640252802688398 0.000226697789464864 0.000340180246524781 2.23258873702369e-05 0.000205325409675635 0.000182766178367153 0.000450609707967803 -0.000278652348466006 -0.000338811167836106 -0.000272740531290204 -0.000110826752120604 -0.000310192214063209 2.57873806145097e-05 -0.000246238304885412 -0.000104727025844065
"211" 0.000166980236718335 0.000617074432767086 0.00021816053134305 0.000330391819303336 2.58601044437313e-05 0.000212118939855591 0.000187035124878212 0.000440501002726459 -0.000269411993539725 -0.000325521632085747 -0.000259890350435423 -9.85957968252688e-05 -0.000296355236107542 2.31705178852081e-05 -0.000234810394207196 -9.77001672147363e-05
"212" 0.000179043417904518 0.000591370834242026 0.000208601190115334 0.000320772931061496 2.79367639213347e-05 0.000219120115020024 0.000190655001184142 0.000430552053032182 -0.000260386737392094 -0.000312030670238352 -0.000247005744085089 -8.63188103148459e-05 -0.000282626681667038 2.08289801696511e-05 -0.00022356846013403 -9.05610857053039e-05
"213" 0.000190077104868621 0.000563432180685816 0.000198221236230229 0.000311404871116942 2.86720042141703e-05 0.000226319199916738 0.000193667656882347 0.00042079715121555 -0.000251573555084124 -0.000298372702627314 -0.000234121312141786 -7.40560604370753e-05 -0.000269050632413045 1.88324886083016e-05 -0.000212539115552017 -8.33085268970931e-05
"214" 0.000200116949165625 0.000533568296977869 0.000187222582952919 0.000302363621724375 2.81849616319319e-05 0.000233696421529033 0.000196108397582572 0.000411284082700411 -0.000242958632007381 -0.000284581709896177 -0.000221268272593963 -6.18560868271339e-05 -0.000255668335970369 1.72399064119523e-05 -0.000201748254339075 -7.59421843344081e-05
"215" 0.000209199659290349 0.000502114952857114 0.000175796314910651 0.000293720342566238 2.66151310909081e-05 0.000241231250761724 0.000198033870058689 0.000402056206549065 -0.000234536114189285 -0.000270701563193552 -0.000208479196371965 -4.97768668920319e-05 -0.000242524638237174 1.61219367015055e-05 -0.000191218542560897 -6.8461986113438e-05
"216" 0.000217385666726757 0.00046941040135635 0.000164154911471511 0.000285551669084628 2.41000548574598e-05 0.00024891441353521 0.000199494696809112 0.000393161016750837 -0.000226274227349596 -0.000256749087340343 -0.000195774857802382 -3.78583051180019e-05 -0.000229640300240268 1.55399167129352e-05 -0.000180961342497186 -6.08605028283689e-05
"217" 0.000224710615836191 0.000435801668866989 0.000152477100918885 0.000277918333186374 2.07843858451611e-05 0.000256712647906126 0.00020053479488371 0.000384635395705434 -0.0002181660938921 -0.000242771630653567 -0.000183188899408332 -2.6158852230915e-05 -0.000217067592443679 1.55473168935944e-05 -0.000171001007526648 -5.31445814443351e-05
"218" 0.000231247848863004 0.000401660650405773 0.000140967785730995 0.00027089551699779 1.68327188386609e-05 0.000264619523255923 0.000201225897674971 0.000376541374489638 -0.00021017888005835 -0.000228791518063781 -0.000170733778820852 -1.47079700367935e-05 -0.000204819007508004 1.62062069749664e-05 -0.000161341498902944 -4.53036331942213e-05
"219" 0.000237054007357067 0.000367331413020737 0.000129807753489885 0.000264537370506149 1.23988642083165e-05 0.000272603813686851 0.00020161276628693 0.000368913718160949 -0.000202279763704011 -0.000214835041321077 -0.000158434429095944 -3.54993549272524e-06 -0.000192929088168493 1.75715676235267e-05 -0.000151990982901929 -3.73362636878416e-05
"220" 0.000242193157222537 0.000333178966475949 0.000119161721734863 0.000258902215384838 7.64226099041084e-06 0.000280644749441013 0.000201758815393815 0.000361809003418951 -0.000194440893391943 -0.000200931691140233 -0.000146304808034244 7.28603489783253e-06 -0.000181419396145404 1.9692067766659e-05 -0.00014295054367415 -2.92363893823367e-05
"221" 0.000246734486842294 0.000299541170541109 0.000109189999990534 0.000254030643703578 2.72290318003987e-06 0.000288714588652 0.000201721051871405 0.000355259286384431 -0.00018663196768838 -0.000187108565488813 -0.000134359833543226 1.77607596040663e-05 -0.000170309527573649 2.26011450378044e-05 -0.000134231463412605 -2.10102705712942e-05
"222" 0.000250745334898949 0.000266769906490736 0.00010004738117098 0.000249978770825936 -2.20511200616082e-06 0.000296797898178754 0.000201561632405754 0.000349325890181263 -0.000178815134502969 -0.000173386953914703 -0.00012261153253495 2.78601169590664e-05 -0.000159613880472461 2.63463311408114e-05 -0.000125824009960337 -1.26503963012801e-05
"223" 0.000254292162878869 0.000235188831223572 9.18611664189803e-05 0.000246776977610143 -6.98701177191804e-06 0.000304866637378005 0.000201336013810221 0.000344046418823094 -0.000170956052777444 -0.000159787977882224 -0.000111070737932222 3.75619355351715e-05 -0.00014934738186631 3.0958002354256e-05 -0.000117724384909394 -4.15712317730176e-06
"224" 0.000257440662337341 0.000205109328204877 8.4754286385859e-05 0.000244459951044728 -1.14755734571549e-05 0.0003128980714421 0.000201100738039488 0.000339462677304814 -0.000163023879802988 -0.000146328226089085 -9.9744047662553e-05 4.68491913338345e-05 -0.000139517761750079 3.64543196069578e-05 -0.000109929947434745 4.469733634526e-06
"225" 0.000260262908764979 0.000176824374454135 7.88193961024783e-05 0.000243048073449858 -1.55310629701101e-05 0.000320868278144556 0.000200912402726703 0.000335617285664675 -0.000154978333641297 -0.000133029537189379 -8.86357114297931e-05 5.57118460400023e-05 -0.000130131418267103 4.28616432542978e-05 -0.000102425265342971 1.32296124872482e-05
"226" 0.0002628085118066 0.000150601545681261 7.41393216966992e-05 0.000242558649360923 -1.90342760827392e-05 0.000328746942841804 0.000200817843634131 0.000332536111662006 -0.000146795154198211 -0.000119913702241671 -7.77560539208255e-05 6.41382811187489e-05 -0.000121197112846505 5.0180994056971e-05 -9.52039049421677e-05 2.21134379617852e-05
"227" 0.000265149615196257 0.000126698449935281 7.07777100492278e-05 0.000243000006780182 -2.18485520831708e-05 0.000336520227126028 0.000200870523517635 0.000330266107763237 -0.000138436648207277 -0.000106989213548091 -6.70974201518038e-05 7.21312855819756e-05 -0.000112706283486112 5.84206595773727e-05 -8.8247209024709e-05 3.11235530023198e-05
"228" 0.000267332673739032 0.000105325296355301 6.87781377538848e-05 0.000244374919680869 -2.38723687912003e-05 0.000344157026935184 0.000201114514564688 0.000328824400024645 -0.000129877205022231 -9.42777488256349e-05 -5.66687753039063e-05 7.96873876025038e-05 -0.000104666726825875 6.75730296436089e-05 -8.15443797931294e-05 4.02470622664887e-05
"229" 0.000269410576951217 8.6681679533192e-05 6.81649022645793e-05 0.000246676783276963 -2.5019629940397e-05 0.000351638360845992 0.000201594236960621 0.000328238144535949 -0.000121086024754047 -8.17883496015175e-05 -4.64655754754199e-05 8.68150075272788e-05 -9.7069707845126e-05 7.76246062281278e-05 -7.50732534070992e-05 4.94778192836481e-05
"230" 0.000271430966140035 7.09332486792711e-05 6.8942707901508e-05 0.000249885277058083 -2.51978418919298e-05 0.000358941583999405 0.000202347394110314 0.000328527944514142 -0.000112047095881868 -6.95360837301163e-05 -3.64875273532885e-05 9.35175802233511e-05 -8.99063239121264e-05 8.85495959450483e-05 -6.88176092258033e-05 5.88045208606225e-05
"231" 0.000273431373999399 5.82165228390881e-05 7.10985770398284e-05 0.000253985495189396 -2.4345858795589e-05 0.000366043339964434 0.000203406164473223 0.000329706689190642 -0.000102742693610877 -5.75390070189622e-05 -2.67343637687869e-05 9.98067289062854e-05 -8.31741295128122e-05 0.000100316870265045 -6.27629914030258e-05 6.82110473453824e-05
"232" 0.000275438594083018 4.86350724970917e-05 7.4594637137896e-05 0.000258947227324198 -2.24132245048589e-05 0.000372919687723014 0.000204803403692734 0.000331784256910579 -9.31573409758054e-05 -4.58100475171355e-05 -1.72056526044791e-05 0.000105692428762773 -7.68620181203054e-05 0.000112887166192083 -5.68827482100199e-05 7.7683057929508e-05
"233" 0.00027749213292707 4.22583033054402e-05 7.9385768698534e-05 0.000264728165666962 -1.93644995486314e-05 0.000379558722508711 0.000206556921548918 0.000334759384816163 -8.32772411556439e-05 -3.43563163596638e-05 -7.89200844106869e-06 0.000111196948117726 -7.09498963522759e-05 0.000126220340128785 -5.11567272821817e-05 8.72028656177971e-05
"234" 0.000279605604062617 3.91271291187296e-05 8.5401807946561e-05 0.000271289372496175 -1.51769233448979e-05 0.000385938939525318 0.000208696222263078 0.000338626808274553 -7.30978486140265e-05 -2.3198104397857e-05 1.20579454490928e-06 0.000116330351799545 -6.543387027124e-05 0.000140250235024888 -4.55662239574038e-05 9.67480475094424e-05
"235" 0.000281790656988526 3.92450427094786e-05 9.2553489819274e-05 0.000278574301482354 -9.8588950127445e-06 0.000392035090421807 0.00021122582728617 0.000343375404435901 -6.26314894646651e-05 -1.23459672347333e-05 1.00900093298508e-05 0.000121106685260995 -6.02951862178072e-05 0.000154914201163828 -4.00956632730857e-05 0.000106291335091006
"236" 0.000284053885605219 4.25948536748765e-05 0.000100745131613288 0.000286532683838705 -3.40697321644249e-06 0.000397839803142921 0.000214163137282562 0.00034899369664953 -5.18728663388816e-05 -1.81899931259463e-06 1.87611471701609e-05 0.000125551021419845 -5.55204972926201e-05 0.000170143018484684 -3.4718365891546e-05 0.000115811578027378
"237" 0.00028639136391299 4.91004698938365e-05 0.000109858481349991 0.000295089698021029 4.1267473784772e-06 0.000403326969829826 0.000217499845300026 0.000355440461295157 -4.08358574449917e-05 8.36958301233405e-06 2.72265185611833e-05 0.000129675133976162 -5.10958675883304e-05 0.00018585885528036 -2.94191534865436e-05 0.000125277673668324
"238" 0.000288796595737064 5.86820325731946e-05 0.000119763385376405 0.00030418686860141 1.27084901374111e-05 0.000408489771038493 0.00022124807229935 0.000362698804280461 -2.95442105071981e-05 1.82047607778597e-05 3.54847728635436e-05 0.00013350337160369 -4.69954497001234e-05 0.000201978205324954 -2.41761979545369e-05 0.000134661010120216
"239" 0.000291247472351458 7.12102138065425e-05 0.000130320094871957 0.000313742060023132 2.22623557142082e-05 0.000413306264056052 0.000225387948272098 0.000370715071197217 -1.80175665921132e-05 2.76616845891115e-05 4.35312931599885e-05 0.000137039277006574 -4.32172241884938e-05 0.000218401306350478 -1.89805275487195e-05 0.000143920595367537
"240" 0.000293725998038787 8.65352385089863e-05 0.000141384823264529 0.000323681150259318 3.27277751999693e-05 0.000417769094849679 0.000229912464564912 0.000379453510797653 -6.2855134989379e-06 3.67337701449951e-05 5.13735911114022e-05 0.000140312058931894 -3.97346414276427e-05 0.000235043680588885 -1.38074554005179e-05 0.00015303255689935
"241" 0.0002961948925263 0.000104475157328654 0.00015279949637042 0.000333920292877607 4.39976139249795e-05 0.00042186431620533 0.000234807690599628 0.000388857562382131 5.60989247535252e-06 4.53888947938032e-05 5.9006258387898e-05 0.000143332637889311 -3.65308412664082e-05 0.000251793791805116 -8.6501819301791e-06 0.000161954572647548
"242" 0.000298606752921917 0.000124807915136392 0.000164383929884835 0.000344368562693621 5.59605168092075e-05 0.000425570670404622 0.000240029430871229 0.000398852265492853 1.76328711447305e-05 5.3605265755283e-05 6.64214406660218e-05 0.000146101117214971 -3.36036595086323e-05 0.000268552580615284 -3.49942130627496e-06 0.000170645971194666
"243" 0.000300925997817008 0.000147307137600118 0.000175982371248205 0.000354943462378608 6.85157238346741e-05 0.000428890934038265 0.000245570531677256 0.000409393601012319 2.9729582424315e-05 6.1364997006136e-05 7.36187354694998e-05 0.000148640340029054 -3.09242477011288e-05 0.000285208329220456 1.65825020025876e-06 0.000179069191435115
"244" 0.000303093764554255 0.000171700857719847 0.00018741970218321 0.000365553327248654 8.15136945126187e-05 0.000431804505398136 0.000251384312602037 0.000420387759933545 4.18540378228313e-05 6.86437546631663e-05 8.05923028619707e-05 0.000150951577842654 -2.84868673038931e-05 0.000301652747377905 6.82472659708958e-06 0.000187183172334089
"245" 0.000305054008152359 0.000197710589758577 0.000198521052602769 0.0003761053594949 9.48281838198614e-05 0.000434313422015064 0.000257433939365802 0.000431771704734428 5.39432716989655e-05 7.54166898491455e-05 8.73326397525917e-05 0.000153045162112685 -2.62741692642819e-05 0.000317772651291039 1.20070566539414e-05 0.000194950021652343
"246" 0.000306733222607137 0.000225027837394944 0.000209109110372675 0.000386511647698865 0.000108299386891821 0.000436397374421276 0.000263674009271429 0.000443450436548272 6.59363949302084e-05 8.16516611225372e-05 9.38315753636257e-05 0.000154911677471146 -2.4277750195887e-05 0.000333458004681341 1.72053348221207e-05 0.000202325715730336
"247" 0.000308068796600621 0.000253332652871756 0.000219019001293637 0.000396678157670807 0.000121773730567656 0.000438056126023448 0.000270053110078382 0.000455340398030215 7.77658945228722e-05 8.73269554823451e-05 0.000100075462717194 0.000156561521586114 -2.24841164040398e-05 0.000348598488385664 2.24137003075573e-05 0.000209267900566702
"248" 0.000308978496990691 0.000282288242878678 0.000228076513508603 0.000406516584119674 0.000135087689473041 0.000439276857358135 0.00027652124244913 0.000467351226122364 8.93604231533483e-05 9.24069803665537e-05 0.000106052080402651 0.000157983921052132 -2.08900291511243e-05 0.000363077223473206 2.76298196131357e-05 0.000215734102848059
"249" 0.000309386474561893 0.000311550106941322 0.000236126962563078 0.000415941572049203 0.0001480758582674 0.000440056210034173 0.000283022656839195 0.000479384155169254 0.000100644268107783 9.68669284536173e-05 0.000111748252284475 0.000159167615873641 -1.94842365698715e-05 0.000376790299196104 3.28443681554014e-05 0.000221687499579689
"250" 0.000309207995328245 0.000340759999584642 0.000243008818741962 0.00042487097379084 0.000160564154017253 0.000440389683964294 0.000289492896967208 0.000491348039098093 0.000111539874577678 0.000100675682561328 0.000117145040275238 0.000160107493044172 -1.82624452084991e-05 0.000389635101446569 3.80429366045714e-05 0.00022708625807376
"251" 0.000308356948130773 0.000369562084232868 0.000248584344983756 0.000433218563448393 0.000172384218757404 0.000440266124007488 0.000295870860943207 0.00050314184507004 0.000121972194420541 0.00010379808725393 0.000122226537701545 0.000160784381179034 -1.72192132556722e-05 0.000401511691557463 4.32134055613251e-05 0.000231895733911758
"252" 0.000306755052700613 0.000397597708384884 0.000252714107054655 0.00044091289474245 0.000183375907098727 0.00043968798463617 0.000302093518273532 0.000514673037899421 0.000131866376105931 0.00010621705832618 0.000126978230193537 0.000161191225503603 -1.63500074204926e-05 0.000412328125345951 4.83428995690924e-05 0.00023608222724944
"253" 0.000304305013085367 0.000424510335124291 0.00025528018005421 0.000447884993312508 0.000193360000286748 0.000438646795098763 0.000308094044044674 0.000525843004254493 0.000141127315144928 0.000107888616667586 0.000131374142556976 0.000161296844803652 -1.56557398051807e-05 0.00042199084070901 5.34023172689795e-05 0.000239607019410682
"254" 0.000300926493231479 0.00044994686943937 0.000256169184100643 0.000454065429957681 0.000202182967113118 0.000437139076476157 0.000313802638218154 0.000536554675658983 0.000149693984127501 0.000108793780315757 0.000135400376586314 0.000161089335557847 -1.51343602447023e-05 0.000430431176711646 5.83783907015783e-05 0.000242448663055449
"255" 0.000296529821618632 0.000473573641198656 0.000255286489888422 0.000459394710463689 0.000209681921120383 0.000435159789344083 0.000319150828421294 0.000546721531193192 0.000157475116863964 0.000108897169166408 0.000139029550410106 0.000160541283019533 -1.47883888803345e-05 0.0004375616729307 6.32330627449551e-05 0.000244570242996137
"256" 0.000291035535879439 0.000495058678615925 0.000252547260028389 0.000463824454026622 0.000215720474264727 0.000432711240673484 0.000324067073875854 0.000556247891988865 0.00016440424177973 0.000108180110673502 0.000142246444828947 0.000159626826825582 -1.46182812223149e-05 0.000443333741886242 6.79494549125033e-05 0.00024595933664019
"257" 0.000284360253209611 0.000514098861384994 0.000247893962557308 0.000467309087090834 0.000220148697728686 0.000429783710191353 0.000328487546665339 0.000565058847341979 0.000170402639784997 0.000106614658925604 0.000145024443842564 0.000158324463673986 -1.46282833668591e-05 0.000447690187005456 7.24926882952952e-05 0.000246586704148992
"258" 0.00027643165953323 0.000530406004282367 0.00024126980802156 0.000469808376151674 0.000222843130567227 0.000426381258933624 0.000332340951852637 0.000573072492141113 0.000175409725977255 0.000104182397830804 0.000147346571830757 0.000156603417561972 -1.48230790383536e-05 0.000450594254673679 7.68385909113883e-05 0.000246447348414093
"259" 0.000267170421513565 0.000543718123603556 0.000232644778564031 0.000471289277085679 0.000223688226061549 0.000422497533474159 0.000335563071354531 0.000580219571512909 0.000179348590884089 0.000100861037277439 0.000149185131306069 0.00015443869208189 -1.52074514953816e-05 0.000452000124417743 8.09385111029406e-05 0.000245519281498952
"260" 0.000256519991749378 0.000553809858691189 0.000221997689430539 0.000471736911717851 0.000222585184583268 0.000418135088179288 0.000338088504844078 0.000586442201476994 0.000182172034461806 9.66392986023117e-05 0.000150527315917744 0.00015180456616716 -1.57839973217547e-05 0.000451902023738997 8.47740049850816e-05 0.00024380541646113
"261" 0.000244412401154659 0.000560463184045478 0.000209329308751736 0.000471129452177302 0.000219432710258804 0.000413287233069475 0.000339856642559773 0.000591669942735094 0.000183821876905106 9.14963248486797e-05 0.000151347943369313 0.000148672676054066 -1.65630413877203e-05 0.000450287935397801 8.83051913349914e-05 0.000241299737809306
"262" 0.000230805319197442 0.000563510097054917 0.000194657345161369 0.000469459573848867 0.000214174546225327 0.000407960294550419 0.000340812720299222 0.000595869094240286 0.000184261874886365 8.54350602531607e-05 0.00015163687170644 0.000145019593542396 -1.75448151330655e-05 0.000447159104224118 9.14974166482705e-05 0.000238009756019112
"263" 0.000215647394800906 0.000562816106627656 0.000178014574202039 0.000466730566122884 0.000206742855748533 0.000402146601897723 0.000340894709041292 0.000598992977356916 0.000183444626747312 7.84450852437582e-05 0.000151368010993155 0.000140820918894451 -1.87447769699921e-05 0.000442532679023584 9.43136095073868e-05 0.000233936553784876
"264" 0.000198912946385008 0.000558282937274703 0.00015945339455396 0.000462953780714241 0.000197107869355672 0.000395861455899388 0.000340067560987554 0.000601029680358102 0.0001813486602071 7.05326704968992e-05 0.000150535769276248 0.000136066793285053 -2.01543981110189e-05 0.000436437557123128 9.67256860336835e-05 0.000229101868037316
"265" 0.000180569868323641 0.000549838422673762 0.000139025401373565 0.000458139503741385 0.000185239960547371 0.000389091197250314 0.000338274872716713 0.000601943750817799 0.00017795006928601 6.17006131729755e-05 0.000149122939876224 0.000130725312432048 -2.17908471742496e-05 0.000428914166907261 9.86991936189624e-05 0.000223521387817376
"266" 0.000160604439232194 0.000537458025880495 0.0001168193381877 0.000452318146427277 0.00017113450235292 0.00038184647343097 0.000335478523361401 0.000601731571927404 0.000173235752250995 5.19627909249696e-05 0.000147118060685386 0.000124790469464506 -2.36575893615678e-05 0.000420011874253842 0.000100198140536934 0.000217217177511374
"267" 0.000139016402496333 0.000521161070336134 9.29229910255402e-05 0.000445514174623401 0.000154813304359024 0.000374131500756983 0.000331655351003704 0.000600401137790447 0.000167207581402653 4.13332435529156e-05 0.000144520845392017 0.000118252886775872 -2.57528463090166e-05 0.000409801301054253 0.000101201080338673 0.00021022223770122
"268" 0.00011580331588374 0.000500991914954729 6.74428579523677e-05 0.00043776865778106 0.000136296561654835 0.000365947068956962 0.000326772195682494 0.000597960696040143 0.000159863300963534 2.98307706029475e-05 0.000141318752757294 0.00011110046329383 -2.80887994282288e-05 0.000398351674748639 0.00010167722089194 0.000202566387246282
"269" 9.09957643142917e-05 0.000477036553739652 4.04987687710719e-05 0.000429122598541916 0.00011564308676643 0.000357303638375939 0.000320813893629495 0.00059443640768788 0.000151232344476743 1.74906721458212e-05 0.000137518042441843 0.00010333926026323 -3.06597071267867e-05 0.000385748549614256 0.000101604174206991 0.000194290911345032
"270" 6.46170384367593e-05 0.000449422093401022 1.22180582296897e-05 0.000419631928684845 9.29168809944024e-05 0.000348211186482157 0.000313769072097242 0.000589864893615872 0.000141333243900267 4.34186052479936e-06 0.000133115662356843 9.49694344100138e-05 -3.34681104384449e-05 0.000372086988656296 0.00010095986925861 0.000185438289346593
"271" 3.67053190543366e-05 0.00041829749324889 -1.72583002176445e-05 0.000409345582626303 6.82031296240878e-05 0.000338672518534031 0.000305629753276241 0.000584281168622114 0.000130206925304552 -9.5742428906915e-06 0.000128121540062301 8.59998715118738e-05 -3.65173399802593e-05 0.000357473939103737 9.97321177118587e-05 0.000176053916344453
"272" 7.31987485530096e-06 0.000383864559357121 -4.77867112957756e-05 0.000398323968188325 4.16011354134225e-05 0.000328703712487234 0.00029640131049926 0.000577737898717836 0.0001178949176121 -2.42144508190974e-05 0.0001225415524968 7.64421074433751e-05 -3.98020524153898e-05 0.000342017814275893 9.79043963350049e-05 0.000166192665057192
"273" -2.3476938341431e-05 0.000346343622516489 -7.91993812551268e-05 0.000386636874600887 1.32319180933304e-05 0.000318321058398801 0.000286095548992491 0.000570305918579992 0.0001044504646053 -3.95259464358492e-05 0.000116390246524923 6.63172568407105e-05 -4.33176122298762e-05 0.000325837803608325 9.54697270544796e-05 0.000155906154661267
"274" -5.56050370718759e-05 0.000305977162797571 -0.000111341048757537 0.00037434906560761 -1.67755302045306e-05 0.000307536560551521 0.000274733185299285 0.000562045732065955 8.99418629635275e-05 -5.5452362020429e-05 0.000109686817705919 5.56531705653972e-05 -4.70565108327285e-05 0.000309059146445839 9.24223236193143e-05 0.000145252879926077
"275" -8.89805174082762e-05 0.000263041653567355 -0.000144038341215639 0.000361536339186348 -4.82823864629928e-05 0.000296364855275438 0.000262340352913126 0.000553032051481905 7.44332866732929e-05 -7.19345302801457e-05 0.000102444597453345 4.44734946850934e-05 -5.10189265298411e-05 0.000291813521895875 8.87661852554374e-05 0.00013429644492948
"276" -0.000123497334666363 0.000217840464495997 -0.000177111819531831 0.000348272941276152 -8.11177419663346e-05 0.00028483783278529 0.000248949597494633 0.000543354661195384 5.80121487004089e-05 -8.89044121685197e-05 9.46962537890067e-05 3.28198461386532e-05 -5.51874181366896e-05 0.000274240542522113 8.45066888730391e-05 0.000123099098453536
"277" -0.0001590447038299 0.000170685792045796 -0.000210386021252564 0.000334634852153726 -0.000115119765123777 0.000272970192388302 0.000234613716934737 0.000533100881848571 4.07625391615541e-05 -0.000106294946466679 8.6466999114407e-05 2.07346662028542e-05 -5.95510593873544e-05 0.000256469415800194 7.96540018648605e-05 0.000111725836772395
"278" -0.000195498722492359 0.000121909852021271 -0.000243674167458872 0.000320706697890101 -0.000150102756454352 0.00026079322428464 0.000219376867349909 0.00052236372005321 2.27775032020274e-05 -0.000124023007832708 7.77879740336604e-05 8.26005454335016e-06 -6.40956183321769e-05 0.0002386445504505 7.42261898305249e-05 0.00010024741341573
"279" -0.000232731635492139 7.1867496513815e-05 -0.000276799324190469 0.000306567075564641 -0.000185883161501511 0.000248332063521309 0.000203298326410634 0.000511233259026381 4.15008877186062e-06 -0.000142018086527975 6.86935542757002e-05 -4.55335784234315e-06 -6.88073146151331e-05 0.00022090235080574 6.82392784750557e-05 8.8729682374242e-05
"280" -0.000270596658435606 2.09079289474535e-05 -0.000309570073652527 0.000292301305681752 -0.000222257384493969 0.000235622949149712 0.000186451797219305 0.000499820611145233 -1.50079180580516e-05 -0.000160190544318958 5.92245847927703e-05 -1.76444936408782e-05 -7.36658698804049e-05 0.00020338530771602 6.17291595190635e-05 7.72449881054841e-05
"281" -0.000308938398317033 -3.0602459040164e-05 -0.00034180043520516 0.000277992893189136 -0.000259022583272904 0.000222698423879063 0.000168904778161355 0.000488217830309196 -3.45887055852441e-05 -0.000178458845630994 4.94231283133441e-05 -3.09564196461503e-05 -7.86526629566732e-05 0.000186229947256418 5.47213412356069e-05 6.58620943805656e-05
"282" -0.000347596092187787 -8.22976132674263e-05 -0.000373309700822272 0.000263721216460289 -0.00029596712887247 0.000209598804794266 0.000150741380417361 0.000476535487131648 -5.44791157895786e-05 -0.000196732407853999 3.93358002638297e-05 -4.44253800940914e-05 -8.37390200824203e-05 0.000169567592022521 4.72551205952902e-05 5.46500087573428e-05
"283" -0.00038640148983909 -0.000133812929220218 -0.000403912153857857 0.000249575917442419 -0.000332877241015182 0.00019636531854591 0.000132048575762572 0.000464870661949959 -7.45651024835937e-05 -0.000214920423148953 2.90090168401557e-05 -5.79811180304563e-05 -8.89082705037205e-05 0.000153528783029477 3.93722189070046e-05 4.36792694278398e-05
"284" -0.000425175319698298 -0.000184780424538894 -0.000433432706077901 0.000235629215350284 -0.000369545935185992 0.000183040043763819 0.000112922560319625 0.000453327927540422 -9.47308397873425e-05 -0.000232935039388281 1.84926483524645e-05 -7.15561670245979e-05 -9.41262965341602e-05 0.000138235716237832 3.11181975388666e-05 3.30148466586668e-05
"285" -0.000463730705864506 -0.000234843573215567 -0.000461698588423445 0.000221965639011106 -0.000405752247820861 0.000169675021972221 9.34596300486725e-05 0.000442001975821817 -0.000114846746348093 -0.000250673405704676 7.84643110980906e-06 -8.50696923385667e-05 -9.93668963901854e-05 0.000123813348199965 2.25495789938354e-05 2.27284724949328e-05
"286" -0.000501890212811209 -0.000283642395259886 -0.000488538484139982 0.000208666944444699 -0.000441282107141305 0.000156316625453047 7.37707303646066e-05 0.00043099611281526 -0.000134808946392445 -0.00026805337856004 -2.88404403804625e-06 -9.84560648282841e-05 -0.000104601098202494 0.000110360297498754 1.37116389426859e-05 1.28784536213897e-05
"287" -0.000539449904719089 -0.00033084762871419 -0.000513790648546393 0.000195800648569429 -0.000475925536024139 0.000143016075072657 5.39533865568701e-05 0.000420391106950257 -0.000154486358266544 -0.000284975682687253 -1.3631955019658e-05 -0.000111635112162518 -0.000109797745746991 9.7990825974189e-05 4.67263118611766e-06 3.53357547621241e-06
"288" -0.000576206907474057 -0.000376128529653021 -0.000537295857475603 0.000183441172719198 -0.000509472819193489 0.000129832451800221 3.41270195668505e-05 0.000410282897039321 -0.000173759878577619 -0.000301346066621215 -2.43403473119421e-05 -0.000124526650505683 -0.000114917185906048 8.67922660018454e-05 -4.50631651282606e-06 -5.25258842686703e-06
"289" -0.000611976353972341 -0.000419174511295443 -0.000558914826761489 0.000171658129765136 -0.000541724060132556 0.00011681607280536 1.4403539044915e-05 0.000400740800158928 -0.000192517867726287 -0.000317079201029573 -3.49514947066317e-05 -0.000137062219228166 -0.000119934031871412 7.68458712373357e-05 -1.37636474452906e-05 -1.34258420906274e-05
"290" -0.000646552383710882 -0.000459690029470894 -0.000578500485498938 0.000160513454145928 -0.000572489640867264 0.000104028409986822 -5.0996645071964e-06 0.00039184433316302 -0.000210643956619457 -0.00033208543175606 -4.54022793270495e-05 -0.000149160074688008 -0.000124808980291839 6.82319916722928e-05 -2.30248277659956e-05 -2.09295014295278e-05
"291" -0.000679738155847887 -0.000497398238851225 -0.000595926133880514 0.000150065935171775 -0.000601573984661689 9.15243973203636e-05 -2.42653953765828e-05 0.000383654170254817 -0.000228027863681962 -0.000346277782824477 -5.56335805365152e-05 -0.000160749703010795 -0.000129509501810973 6.10026030691664e-05 -3.22251128427815e-05 -2.77196592797534e-05
"292" -0.000711323132255848 -0.000532053067700647 -0.000611072943331248 0.000140370702849761 -0.00062879873983294 7.93672030737443e-05 -4.29716778466943e-05 0.000376228447470515 -0.000244559131714007 -0.000359573031318868 -6.55802114162449e-05 -0.000171756136395174 -0.000133994449924097 5.52146599930656e-05 -4.12852048908161e-05 -3.37500909946918e-05
"293" -0.00074112817309887 -0.000563417088356636 -0.0006238275112585 0.00013147338497779 -0.000654003580469888 6.76145541892567e-05 -6.11026269567901e-05 0.000369612669640033 -0.000260140244714841 -0.000371893745831189 -7.51858384116836e-05 -0.000182111437835523 -0.000138235304028987 5.09020029002969e-05 -5.01401744545685e-05 -3.89893637231491e-05
"294" -0.000768952323017049 -0.000591287203211525 -0.000634101999199102 0.000123418730190981 -0.000677031930258451 5.63222812592054e-05 -7.85355225444996e-05 0.000363850098196291 -0.000274676565908239 -0.000383169775426112 -8.43888015844184e-05 -0.000191746219506464 -0.000142193434073533 4.80921258579484e-05 -5.87110528319558e-05 -4.34006685850989e-05
"295" -0.000794613910432731 -0.00061548947542989 -0.000641808280358024 0.000116240616143301 -0.000697740918818027 4.55548492697393e-05 -9.51674128992685e-05 0.000358957401811919 -0.00028806970462927 -0.000393326216856111 -9.31273412134643e-05 -0.000200602870953862 -0.000145837294920416 4.67989405928723e-05 -6.69241348736958e-05 -4.69558305275165e-05
"296" -0.000817937588482619 -0.000635868507967102 -0.000646876990949767 0.000109963067596738 -0.000716007369554344 3.53580798076049e-05 -0.000110878697486087 0.000354955039296226 -0.0003002424909607 -0.000402306427079588 -0.000101346257758769 -0.000208624326640438 -0.000149130388247397 4.70192574234628e-05 -7.4706536303151e-05 -4.96372655517868e-05
"297" -0.000838751599923301 -0.000652294446211773 -0.000649250830565612 0.000104619820173403 -0.000731708962064846 2.57945430029972e-05 -0.000125558409882772 0.000351852363164567 -0.000311115809602891 -0.000410049504171384 -0.000108992577310132 -0.000215755600923182 -0.000152044763989146 4.87470834756034e-05 -8.19866962030457e-05 -5.14262069083085e-05
"298" -0.000856904660327511 -0.000664684395245005 -0.000648890560940734 0.000100212238144642 -0.000744758260664567 1.69123630039408e-05 -0.00013911548824744 0.000349635208906524 -0.000320615995629514 -0.000416508386116246 -0.000116010195556693 -0.000221954024409874 -0.000154549842752244 5.19599239394926e-05 -8.86911443911889e-05 -5.2314488666528e-05
"299" -0.000872248491095354 -0.000672957448352745 -0.000645770117275805 9.67523177808711e-05 -0.000755065372038199 8.75910609204524e-06 -0.000151439870599635 0.000348299720774774 -0.00032868944489984 -0.000421644771631717 -0.000122353153828344 -0.000227178794003152 -0.000156619204918963 5.66172076018557e-05 -9.47552421511374e-05 -5.22995426742659e-05
"300" -0.000884650346693414 -0.000677094389534544 -0.000639874806715557 9.42382194093528e-05 -0.000762570078923691 1.37817689486914e-06 -0.000162451381142096 0.000347807594902183 -0.000335279295512767 -0.000425418192711532 -0.000127972951831826 -0.000231396533480801 -0.000158225486087487 6.26719742636803e-05 -0.000100108909570528 -5.13833150587309e-05
"301" -0.000894001337844831 -0.000677075048221826 -0.000631213940129358 9.26621891125687e-05 -0.000767219885801536 -5.18769625090573e-06 -0.000172059100894589 0.000348128436038965 -0.000340345633247874 -0.000427806433322942 -0.000132828852818859 -0.000234582707738311 -0.000159349316656063 7.00700658829334e-05 -0.00010469450001095 -4.95781221152799e-05
"302" -0.000900202655643012 -0.000672934648595696 -0.000619806990160946 9.20059019993034e-05 -0.000768994425502796 -1.09082744273816e-05 -0.00018019105433588 0.000349211214937536 -0.000343860778769897 -0.000428797804730092 -0.000136887580744801 -0.000236723867980762 -0.000159975190005307 7.87295410602444e-05 -0.000108459223046847 -4.6902338805915e-05
"303" -0.000903174831524859 -0.000664725860058913 -0.000605696188424513 9.22422967750571e-05 -0.000767873825545337 -1.57569349052078e-05 -0.000186785877283141 0.000350991719587802 -0.000345790628211728 -0.000428379865135736 -0.000140109357263124 -0.000237806423902118 -0.000160084921769955 8.85837040142032e-05 -0.000111340262876655 -4.33721156238197e-05
"304" -0.000902856558356754 -0.000652538065917045 -0.000588926479201126 9.33455065946106e-05 -0.000763860880183459 -1.97062459619943e-05 -0.000191786199938367 0.000353411197563529 -0.000346128452956056 -0.000426554302714609 -0.000142476513209946 -0.000237829929104182 -0.000159672679887292 9.95366525827971e-05 -0.000113301457490055 -3.90236730201453e-05
"305" -0.000899204690205585 -0.000636488534709688 -0.000569577815023411 9.52667293445145e-05 -0.000756982217495668 -2.27385978963815e-05 -0.000195145370792879 0.000356388833853772 -0.000344865083961044 -0.00042332790170558 -0.000143954181746869 -0.000236800569372889 -0.00015872293924462 0.000111498141561419 -0.000114290988870019 -3.3885722055916e-05
"306" -0.000892213685651634 -0.000616721123345134 -0.000547739845816304 9.79593310853803e-05 -0.000747284824111718 -2.48547572555229e-05 -0.000196831741935441 0.000359839211457862 -0.000342015355253981 -0.000418728913743686 -0.000144537474647416 -0.000234739211937721 -0.000157243836996789 0.000124352995188896 -0.000114283115786827 -2.80049387604351e-05
"307" -0.000881884071776804 -0.000593405971548207 -0.000523510726156642 0.000101376910187573 -0.000734811664857248 -2.60456575803487e-05 -0.000196818474248108 0.000363678192529712 -0.000337594579170803 -0.00041278336297096 -0.000144212756450136 -0.000231660912770226 -0.000155233584096961 0.000137992702977288 -0.000113247156780694 -2.14234745183012e-05
"308" -0.000868247141957314 -0.000566751655065947 -0.000497011290895856 0.00010545492695822 -0.000719644960546236 -2.63163027355417e-05 -0.000195103162426666 0.000367797533101626 -0.000331625942768981 -0.000405530168474818 -0.000142975713682602 -0.000227608131672387 -0.000152701592505386 0.000152300491752911 -0.000111161243228021 -1.4197248766096e-05
"309" -0.00085135782815635 -0.000536981388621568 -0.00046837941883831 0.000110121341838883 -0.000701873949454065 -2.56830803846131e-05 -0.000191674228774631 0.000372104877485482 -0.000324155390513866 -0.000397018533238589 -0.000140830088111925 -0.000222616211622021 -0.000149655541897949 0.000167149034413233 -0.000108014544737868 -6.38285817761788e-06
"310" -0.000831294639340647 -0.000504351349522218 -0.000437759919870323 0.000115314856213647 -0.000681595781210921 -2.41650580827138e-05 -0.000186563103058687 0.0003764844711273 -0.000315221375866573 -0.000387306834085631 -0.000137784986354265 -0.000216735452224373 -0.000146119190555496 0.000182419138193375 -0.000103797622321249 1.96209769948388e-06
"311" -0.000808159394311377 -0.00046912779399504 -0.000405322968600099 0.000120953500722857 -0.000658934202083141 -2.17877637909277e-05 -0.000179781491469186 0.000380839486236363 -0.000304890891687799 -0.000376457312216976 -0.000133856903189226 -0.000210024298063625 -0.000142108906712906 0.000197973676344574 -9.85205217534017e-05 1.07664892550716e-05
"312" -0.000782082108360718 -0.000431612726588427 -0.000371239405431067 0.000126957103149112 -0.000634012139416463 -1.85887730675013e-05 -0.000171373416560235 0.000385049130084545 -0.000293216828495476 -0.000364547061662101 -0.000129063828123004 -0.000202541706669501 -0.000137653945482655 0.000213688136747456 -9.21889995178276e-05 1.99661590358858e-05
"313" -0.000753221378261389 -0.0003921225331226 -0.00033570284242656 0.000133243975836042 -0.000606984281097721 -1.46189194498179e-05 -0.000161398460026082 0.000388999295098774 -0.00028028868761376 -0.000351658163793283 -0.00012344320414813 -0.000194363846692236 -0.000132792009402199 0.000229427561990315 -8.4825980365154e-05 2.94826990965103e-05
"314" -0.000721745725526693 -0.00035097167664871 -0.000298904484108486 0.000139732258894849 -0.000577993357592549 -9.91598398721864e-06 -0.000149910190003782 0.000392590139729639 -0.000266186039568804 -0.000337881215529506 -0.000117028086066982 -0.000185566768293024 -0.000127555333902846 0.000245063306852853 -7.64604329986339e-05 3.92460556552495e-05
"315" -0.000687856697908323 -0.000308515549783624 -0.000261058736664249 0.000146327174840572 -0.000547206004289519 -4.54566714601887e-06 -0.000136994135690563 0.000395706236036775 -0.000250992947193312 -0.00032330741702158 -0.000109855481434678 -0.000176231187105848 -0.00012198309298837 0.000260471407204864 -6.71265123458502e-05 4.91772993812242e-05
"316" -0.000651774859590431 -0.000265100203390232 -0.000222380032149149 0.000152949331968435 -0.000514792123083587 1.43203425863215e-06 -0.000122731074644909 0.000398246841068612 -0.00023481520675496 -0.000308037086993095 -0.000101978531714616 -0.000166445100569476 -0.000116123250482534 0.000275522622190731 -5.68699788097551e-05 5.9198330020039e-05
"317" -0.00061373767071136 -0.000221083113023474 -0.000183092351223878 0.000159504773830595 -0.000480931061216838 7.94779155226721e-06 -0.000107219638747893 0.000400110566111985 -0.00021775324465713 -0.000292183214870612 -9.34491712563622e-05 -0.000156301964270692 -0.00011002782728657 0.000290096051614641 -4.57438053320796e-05 6.92321635957878e-05
"318" -0.000574007354283859 -0.000176826779913017 -0.000143419289047286 0.000165914445055002 -0.000445804289572894 1.49248695924409e-05 -9.05719698335011e-05 0.000401199828140942 -0.000199921006159665 -0.000275848990708654 -8.4329783025409e-05 -0.00014589670897046 -0.000103747624785132 0.00030408063490448 -3.38130666432558e-05 7.91963228651174e-05
"319" -0.000532845827539118 -0.000132694660799822 -0.000103586195188841 0.000172088550844138 -0.000409591720889703 2.22924954648887e-05 -7.29009085482658e-05 0.000401437068222046 -0.000181417836328478 -0.000259140855401106 -7.46731804431066e-05 -0.0001353167173169 -9.73313985673476e-05 0.000317373439634438 -2.1131254785555e-05 8.9020801980454e-05
"320" -0.000490555736637953 -8.90498840963282e-05 -6.38298393164285e-05 0.000177942086132765 -0.000372493299031578 2.99565178356007e-05 -5.4339817727148e-05 0.000400727732237326 -0.000162374266365127 -0.000242184563702944 -6.45603869708358e-05 -0.000124674990581106 -9.08489307147238e-05 0.00032986569665731 -7.78857569700571e-06 9.86213791111537e-05
"321" -0.000447420191314804 -4.62394683554435e-05 -2.43723048712848e-05 0.000183401879933126 -0.000334682649968894 3.78437545942387e-05 -3.50109868651551e-05 0.000399015765164915 -0.000142902772050826 -0.000225086327983461 -5.4051965150198e-05 -0.000114059556080903 -8.43536717882302e-05 0.000341465421062466 6.14529325085998e-06 0.000107930246076655
"322" -0.000403758151477818 -4.60620929088289e-06 1.45530556126731e-05 0.00018839438815067 -0.000296358487615861 4.5856573242415e-05 -1.5063991301765e-05 0.000396226766626595 -0.000123126279146473 -0.000207964227129108 -4.32287394851504e-05 -0.000103578020090506 -7.79112758561829e-05 0.000352096159140302 2.05793903261635e-05 0.000116874724576994
"323" -0.000359872993723494 3.55157904883898e-05 5.27322264688256e-05 0.000192842392174594 -0.000257699412618146 5.39147127520423e-05 5.36189137417056e-06 0.000392321001702262 -0.000103160632946997 -0.000190927554150309 -3.21628800994077e-05 -9.33175422568723e-05 -7.15785387696633e-05 0.000361679592244246 3.54277274827952e-05 0.00012538662749535
"324" -0.000316089629579806 7.38129267614002e-05 8.99434677596517e-05 0.000196684234810125 -0.000218894330100556 6.19163925576282e-05 2.61162392501393e-05 0.000387245064456493 -8.31317594127507e-05 -0.00017409205297389 -2.0937008456375e-05 -8.33841041572083e-05 -6.54272549338e-05 0.000370158220118714 5.05933365740673e-05 0.000133403114839941
"325" -0.000272717472431417 0.000109994094920224 0.000125989503136102 0.000199859591292439 -0.000180116908270326 6.97807438984179e-05 4.70444495233863e-05 0.000380977090501792 -6.31552105048669e-05 -0.000157561328338685 -9.62772409911011e-06 -7.38622248368031e-05 -5.95163433923356e-05 0.000377470555737563 6.59794813452954e-05 0.000140865043992325
"326" -0.000230067194140018 0.000143789621958081 0.000160668359314391 0.000202311047358213 -0.000141528929760856 7.74214122470944e-05 6.80000333882857e-05 0.000373499224378706 -4.33441628329482e-05 -0.000141434867914156 1.68611710987967e-06 -6.48384763628709e-05 -5.39041474069073e-05 0.000383586418059597 8.14886697252037e-05 0.000147719382472218
"327" -0.000188453475543843 0.000174946345319069 0.000193800577485674 0.000203995518891472 -0.000103307222692534 8.47439539600807e-05 8.88257489351202e-05 0.000364802424201866 -2.38122182691799e-05 -0.000125811917459532 1.29221175258012e-05 -5.63987208907637e-05 -4.86552246525746e-05 0.000388471231841305 9.70185075431255e-05 0.000153921496559893
"328" -0.000148169876997044 0.0002032527537706 0.000225210766471458 0.000204869184872635 -6.56028851225472e-05 9.16705585738217e-05 0.000109369969571734 0.000354887909361629 -4.67484800313639e-06 -0.000110792119689619 2.40041127508136e-05 -4.86244584928457e-05 -4.38277033106381e-05 0.00039210369451844 0.000112466220415977 0.000159423123787299
"329" -0.000109502105654883 0.000228519505683869 0.000254747442607073 0.000204898788131271 -2.85553523500039e-05 9.81180536234141e-05 0.000129486715138065 0.000343775740731006 1.39768235530492e-05 -9.64475704716522e-05 3.48553550870268e-05 -4.15777046153948e-05 -3.94753271364611e-05 0.000394482871088678 0.000127732351895139 0.000164191836278501
"330" -7.27216482290328e-05 0.000250584761947786 0.000282269019117888 0.000204052256366409 7.6918722600826e-06 0.000104013931180583 0.000149029822073927 0.000331491023787106 3.20383922080961e-05 -8.28588347582859e-05 4.5403158949402e-05 -3.53234606100914e-05 -3.56498735701831e-05 0.000395608882289901 0.00014271815462098 0.000168202037466275
"331" -3.80811242443367e-05 0.000269330534201614 0.00030766098385285 0.000202314275159978 4.30232042563341e-05 0.000109289036011536 0.000167855905831452 0.000318076608072579 4.94178065831531e-05 -7.00973217923625e-05 5.55729545505146e-05 -2.99193804940367e-05 -3.23990946435555e-05 0.000395497416334983 0.00015731927948395 0.000171427174416513
"332" -5.81772766827322e-06 0.000284664123618292 0.000330812739109325 0.000199671041884634 7.7319509699288e-05 0.000113876079324441 0.000185837032448614 0.000303580275417043 6.60363499510584e-05 -5.82203434771555e-05 6.53024520229584e-05 -2.54116554318057e-05 -2.97697140810871e-05 0.000394176017964294 0.000171447990137318 0.000173854189493752
"333" 2.38569405035098e-05 0.000296527656250494 0.000351643331112695 0.000196108263946022 0.000110482361138861 0.000117718003620487 0.00020284245130773 0.000288058054882499 8.18152035301537e-05 -4.72761641663272e-05 7.45256413869681e-05 -2.18364652616889e-05 -2.77948875062283e-05 0.000391677639688867 0.000185011844003954 0.000175474115019838
"334" 5.07551690895325e-05 0.000304895150716296 0.000370088413324107 0.000191630896360818 0.000142423662933965 0.000120762875415586 0.000218754325230584 0.000271577323580078 9.66902134699832e-05 -3.73030722902968e-05 8.31882029922813e-05 -1.92248841179962e-05 -2.65134632553254e-05 0.000388046905088628 0.000197921857425314 0.00017628703439606
"335" 7.47106519776699e-05 0.00030978656373806 0.000386105140756536 0.000186247474739952 0.000173061662271026 0.000122968599915214 0.000233462650451432 0.000254219409364477 0.000110590360886775 -2.83394121815536e-05 9.12267790344333e-05 -1.76001036495821e-05 -2.59539249054346e-05 0.000383333290363724 0.000210091830794945 0.000176292722186408
"336" 9.55866041200879e-05 0.000311238306790131 0.000399666937548658 0.000179966121915014 0.000202333593726194 0.000124295370809699 0.00024686835233979 0.000236057884582761 0.000123472486859188 -2.0403326906175e-05 9.86043152119704e-05 -1.69722227636376e-05 -2.61369192175371e-05 0.000377604096271129 0.000221451198757575 0.000175507601888983
"337" 0.000113274513709701 0.00030933652707838 0.000410771356638394 0.000172808690056628 0.000230193209339155 0.000124722673820678 0.000258889600472661 0.00021719966999205 0.000135290974228206 -1.35060459372539e-05 0.000105271902428176 -1.73383139392864e-05 -2.70765770096613e-05 0.000370924156313988 0.00023193117133432 0.000173949597963414
"338" 0.000127697064919409 0.000304182574361108 0.000419438200855606 0.000164802704925539 0.000256595545748779 0.000124224990968638 0.000269442522591193 0.000197731300356036 0.000146013261224601 -7.64262817357848e-06 0.000111199263725245 -1.86923633282007e-05 -2.87856625389821e-05 0.000363366465945233 0.000241464541668408 0.000171641850772993
"339" 0.000138798716515992 0.000295918355545191 0.000425699142958037 0.000155975452987825 0.00028151366845898 0.000122795593407915 0.000278469213042133 0.000177755456194946 0.000155609138365695 -2.81443200761888e-06 0.000116353430913303 -2.10207042052688e-05 -3.12654085127118e-05 0.000355007942321296 0.000249999278266182 0.000168615119452906
"340" 0.000146559886882028 0.000284702766804128 0.000429608960056017 0.000146368618110928 0.000304928097387616 0.000120428590075751 0.000285917647181056 0.000157374648336896 0.000164067663640638 1.00412204549572e-06 0.000120713403444533 -2.42971343861226e-05 -3.45134642318296e-05 0.000345938215196363 0.000257489475177928 0.000164906009982736
"341" 0.000150990191871568 0.000270735177054314 0.000431246978647638 0.000136025078310175 0.000326845957792756 0.00011713781755911 0.000291749368719089 0.000136712861046069 0.000171370262819322 3.83077283848051e-06 0.000124258962138612 -2.84839650128312e-05 -3.85195421799436e-05 0.000336236605703274 0.000263889683018647 0.00016055163163746
"342" 0.000152123475512859 0.000254216630457573 0.000430697132966841 0.000124992497226258 0.000347258684485522 0.000112932749405579 0.000295944960113964 0.000115872431895973 0.000177524380135615 5.70937618655795e-06 0.000126982392270521 -3.35396288281937e-05 -4.32648610441036e-05 0.000325989564087701 0.000269172167632686 0.000155597889849278
"343" 0.000150026091079073 0.000235371754553875 0.000428066251723971 0.00011331411105958 0.000366183013380383 0.000107837038688403 0.000298476936832698 9.49565509047376e-05 0.000182533980046892 6.67630341081084e-06 0.000128881058919939 -3.94188517269759e-05 -4.87324688082418e-05 0.000315290297236062 0.000273313597877335 0.000150089591754835
"344" 0.000144788566567746 0.000214460678562958 0.000423480116684702 0.000101063889673783 0.000383649775681095 0.000101890071716744 0.000299367153547299 7.40987046843595e-05 0.000186415189322225 6.78678560121883e-06 0.000129958484033258 -4.60552886010697e-05 -5.488601194427e-05 0.000304234308800015 0.000276301241884556 0.000144084052549859
"345" 0.000136534493175901 0.000191735831849452 0.000417071244882092 8.82877106481264e-05 0.000399685503670257 9.51249810821076e-05 0.000298623442190694 5.33921075622092e-05 0.000189187711248337 6.09279076320888e-06 0.000130223143171272 -5.33935863522932e-05 -6.16922149898387e-05 0.000292897684884915 0.000278130603554726 0.000137633704973509
