"V1" "V2" "V4" "V5" "V7" "V8" "V10" "V11" "V13" "V14" "V15" "V17" "V18" "V20" "V21" "V23"
"1" 4.61688437524979e-05 -0.000109069704537865 -0.000633937398571812 -0.000203930710729709 6.83333523662425e-05 -6.86271009608577e-05 0.000399785242200996 -0.000191978764411767 0.000323189152445301 0.00013465055619225 0.000159184000815423 -1.60702686635589e-05 -2.2841007603691e-05 6.18716245003894e-05 -0.000211540969874591 -4.73405461088649e-05
"2" 4.67703604569933e-05 -0.000104410037421285 -0.000643250201073866 -0.000211348770652494 8.10353120106618e-05 -7.63633018797036e-05 0.000412750131656688 -0.000195788788113218 0.000320196318869943 0.000129001851898077 0.000155168426643933 -2.67213643797112e-05 -2.80071806335305e-05 5.85265384464958e-05 -0.000213600720492089 -4.87210973785062e-05
"3" 4.67323478900395e-05 -9.93595293090217e-05 -0.00064978118739539 -0.000217689389435419 9.381286974248e-05 -8.36291500213701e-05 0.000424800167478677 -0.000198974468315107 0.000315569110594972 0.000122120424876463 0.00015027111825066 -3.79121174682888e-05 -3.33480492007393e-05 5.41732920041011e-05 -0.000215836985078396 -5.05401005134761e-05
"4" 4.61033674967696e-05 -9.39815864018192e-05 -0.000653463121136248 -0.000222911692537628 0.000106605176389166 -9.03316598600575e-05 0.000435928871194143 -0.00020151084483679 0.000309392198122631 0.000114134130276747 0.000144563608839885 -4.95145895088671e-05 -3.87819906258663e-05 4.88765446789988e-05 -0.000218191069241802 -5.27554030576307e-05
"5" 4.49485706729269e-05 -8.83338678761795e-05 -0.000654230706330447 -0.000226980096010946 0.000119353026470043 -9.63839466611337e-05 0.0004461327429565 -0.000203376305049268 0.000301751234247822 0.000105181359540408 0.000138128202521273 -6.13918069646229e-05 -4.42329574883047e-05 4.26941014566358e-05 -0.000220611723164007 -5.5316711413128e-05
"6" 4.33301072459307e-05 -8.24864799353071e-05 -0.000652049426490489 -0.000229865917974805 0.000131982569401921 -0.000101709204008462 0.000455403176786518 -0.000204561590614491 0.000292745655350154 9.53960961064915e-05 0.000131041286710966 -7.341753395286e-05 -4.96340964358841e-05 3.56969618489769e-05 -0.00022304910173328 -5.81807554813216e-05
"7" 4.13172221145568e-05 -7.65042838776582e-05 -0.000646907603088966 -0.000231553196506996 0.000144425718186562 -0.000106235798996585 0.000463743089240652 -0.000205062741196872 0.000282480957270574 8.49167598827216e-05 0.000123388016825925 -8.54600794558399e-05 -5.49079578722994e-05 2.79593459851464e-05 -0.000225458630849335 -6.13020854999935e-05
"8" 3.8985187319137e-05 -7.04514495285889e-05 -0.00063880174959076 -0.000232018841106054 0.0001566232961536 -0.000109892895562316 0.000471168203408786 -0.000204869138958447 0.000271073580879342 7.39023337619577e-05 0.000115257063310996 -9.73875862819603e-05 -5.99863478744356e-05 1.95603883961245e-05 -0.000227793497327082 -6.46245867607249e-05
"9" 3.64093261482066e-05 -6.43972651566394e-05 -0.000627756196470289 -0.000231262779509097 0.000168503036763771 -0.000112628918620822 0.000477679554093977 -0.000203991254621809 0.000258640841365799 6.24869020638372e-05 0.000106729895800609 -0.000109078208879954 -6.48104003674995e-05 1.05727283034424e-05 -0.000230020526786688 -6.81034424710299e-05
"10" 3.366705369639e-05 -5.84041970575713e-05 -0.000613812813604663 -0.0002292858462294 0.000180003458676371 -0.000114394469044882 0.000483299659566113 -0.0002024305547165 0.000245307294629609 5.08262153630049e-05 9.78975234994984e-05 -0.000120406760188587 -6.93190988737231e-05 1.08613847017184e-06 -0.000232099660996301 -7.16890660116947e-05
"11" 3.08407056040334e-05 -5.25358556998768e-05 -0.000597037715767694 -0.000226092261398307 0.000191055255898427 -0.000115153835662247 0.000488046331213326 -0.000200204777670133 0.000231203361318028 3.90619879337899e-05 8.88473501681933e-05 -0.000131262153093402 -7.34583248204166e-05 -8.81966423623619e-06 -0.000234007074789261 -7.53320741096052e-05
"12" 2.80089243529123e-05 -4.68521104739138e-05 -0.000577510494059497 -0.000221699668748595 0.000201602566217919 -0.000114874413739077 0.000491944902910769 -0.000197325800088925 0.000216458467617567 2.73400880980273e-05 7.96669075038965e-05 -0.000141529595563737 -7.7181690009602e-05 -1.90603549546064e-05 -0.000235714200334806 -7.89830914180298e-05
"13" 2.52518501610998e-05 -4.14102633988317e-05 -0.000555338243285692 -0.000216128543402357 0.000211578947564431 -0.000113541402205202 0.000495015411297933 -0.000193821439271051 0.000201200568015811 1.57986912236767e-05 7.04346769716067e-05 -0.000151112835528196 -8.0443833741076e-05 -2.95528813588498e-05 -0.000237203919023583 -8.25977652754532e-05
"14" 2.26468448089349e-05 -3.62621916685368e-05 -0.000530637107508828 -0.000209407225036405 0.000220932068264678 -0.000111147123184877 0.000497290126508714 -0.000189712936725419 0.000185562420763468 4.56827335570777e-06 6.12376983038631e-05 -0.000159917112564712 -8.32080720305426e-05 -4.02151605320082e-05 -0.000238461147200947 -8.61301859420093e-05
"15" 2.02683470864989e-05 -3.14571675532471e-05 -0.000503555149176678 -0.000201573813844158 0.000229609137188735 -0.000107700663290822 0.000498795948993806 -0.00018503283149743 0.000169672367998553 -6.22444362043984e-06 5.21483118297506e-05 -0.00016786370013036 -8.54490907098843e-05 -5.0961505306343e-05 -0.000239478209232726 -8.9540769548852e-05
"16" 1.81897938635599e-05 -2.70392252343962e-05 -0.000474247032716608 -0.000192673771915533 0.000237558664933739 -0.000103212405590688 0.000499560336275836 -0.000179817285241855 0.000153658088649252 -1.64624217017238e-05 4.32423370529043e-05 -0.000174879419337906 -8.71395236824614e-05 -6.17158659407748e-05 -0.000240251357632606 -9.278598832538e-05
"17" 1.64761801950062e-05 -2.30439144010505e-05 -0.000442894004498006 -0.000182753246774316 0.000244739571530739 -9.77116460239148e-05 0.000499623109185254 -0.000174101162649743 0.000137641277819813 -2.60341292800112e-05 3.45891473968951e-05 -0.000180903378586629 -8.82657516812714e-05 -7.23988908195465e-05 -0.000240780676521984 -9.58313863364062e-05
"18" 1.51893610934378e-05 -1.95039651262202e-05 -0.000409684159967434 -0.000171870395643883 0.000251112494681121 -9.12394252957818e-05 0.000499011115970801 -0.000167927045273346 0.000121742982445915 -3.48428149854883e-05 2.62509970372896e-05 -0.000185890060476152 -8.88153834055365e-05 -8.29326412613708e-05 -0.000241073130056773 -9.86443509865776e-05
"19" 1.43863515183223e-05 -1.64419736785669e-05 -0.000374825360275252 -0.000160088318817395 0.000256641864892208 -8.38454229322899e-05 0.000497755991420006 -0.000161334942321676 0.00010607270374943 -4.27985860489784e-05 1.82883566247449e-05 -0.000189802023817331 -8.87904264705726e-05 -9.32482019844813e-05 -0.000241138375474571 -0.000101192157969961
"20" 1.41088229668982e-05 -1.38802854072379e-05 -0.00033853950461999 -0.000147477805342572 0.000261296507176974 -7.55927498518574e-05 0.000495892152659273 -0.000154377927921875 9.07359751212095e-05 -4.98311596822587e-05 1.07482342970076e-05 -0.000192618090118053 -8.81954688227984e-05 -0.000103275961709899 -0.000240989723365906 -0.000103452034702734
"21" 1.44009657400025e-05 -1.18290626265787e-05 -0.000301061745463784 -0.000134112621436136 0.000265057485397757 -6.65541919874669e-05 0.000493444256803415 -0.000147098689428709 7.58382439424916e-05 -5.5870148295011e-05 3.67813331221423e-06 -0.000194331333570593 -8.70426107118776e-05 -0.000112952124864227 -0.000240646116504531 -0.000105402388942192
"22" 1.5291942428499e-05 -1.02933416110089e-05 -0.000262625602782473 -0.000120072599525529 0.000267904521691927 -5.68119677282605e-05 0.000490444242566248 -0.000139550672891685 6.14609795627258e-05 -6.08690719176746e-05 -2.88532047667692e-06 -0.000194946793975839 -8.53529891823882e-05 -0.000122215877529449 -0.000240129713737301 -0.000107025480115029
"23" 1.68019439642974e-05 -9.27418770840956e-06 -0.000223482730991758 -0.000105441241055356 0.000269828929366376 -4.64597609986415e-05 0.000486915592082499 -0.000131782857250351 4.76899521400244e-05 -6.47914139953722e-05 -8.91214644037772e-06 -0.000194480473871531 -8.31528916621957e-05 -0.000131012667591497 -0.00023946255193831 -0.000108309596955699
"24" 1.89398250504375e-05 -8.76267875211573e-06 -0.000183893144039177 -9.03107796952741e-05 0.000270820174838886 -3.5602670641538e-05 0.000482878418382155 -0.000123851087048169 3.4600145979035e-05 -6.76103804228153e-05 -1.43818384381289e-05 -0.000192965542271628 -8.04771215390616e-05 -0.000139295110174022 -0.000238676345860462 -0.000109248632257143
"25" 2.17061412340152e-05 -8.74770915478987e-06 -0.000144110223323779 -7.47718892381943e-05 0.000270882135185032 -2.43505880072305e-05 0.00047835592545085 -0.000115807434275856 2.22469259701541e-05 -6.93230122002943e-05 -1.92782940033646e-05 -0.000190449839716236 -7.73636167703432e-05 -0.000147020134534245 -0.000237794147361492 -0.000109840440976617
"26" 2.50928169737616e-05 -9.20575500422153e-06 -0.000104396827414583 -5.89222798336189e-05 0.00027002124970762 -1.28188957313452e-05 0.000473367746369424 -0.000107701486214034 1.06918791343724e-05 -6.99249667124831e-05 -2.35920883042e-05 -0.000186982862469679 -7.38597114091403e-05 -0.000154140297213991 -0.000236850033007384 -0.000110081332564602
"27" 2.90759426656542e-05 -1.01146122811234e-05 -6.50011189196262e-05 -4.285665399761e-05 0.000268244489895768 -1.13257579748606e-06 0.000467920874478651 -9.95892291131511e-05 -3.09338312726378e-08 -6.9439796490347e-05 -2.73284853758454e-05 -0.000182639317116946 -7.00158677378808e-05 -0.000160634207701708 -0.000235879757762327 -0.000109985012462342
"28" 3.36232573005616e-05 -1.14432884141677e-05 -2.61816337125848e-05 -2.66793205894477e-05 0.00026557320633292 1.05787315658699e-05 0.000462022454659879 -9.15181519827818e-05 -9.88574883037478e-06 -6.78959427069933e-05 -3.04921639429726e-05 -0.000177496605445216 -6.58875628173453e-05 -0.000166469926776252 -0.00023491261228174 -0.000109556780256372
"29" 3.86934041191105e-05 -1.31560940427658e-05 1.18103381643514e-05 -1.04858406588769e-05 0.000262026443587878 2.21848987534459e-05 0.000455678330283335 -8.35439993865004e-05 -1.88531186035598e-05 -6.53373325367617e-05 -3.31009081451321e-05 -0.000171645621181977 -6.15367028923487e-05 -0.000171628538509628 -0.000233979893705977 -0.00010881683264401
"30" 4.42336704525629e-05 -1.52157049810436e-05 4.87405422636813e-05 5.61812489832346e-06 0.000257635395222327 3.35491063764475e-05 0.000448890906458266 -7.57068638240013e-05 -2.69226264229112e-05 -6.18174706285067e-05 -3.51773473216341e-05 -0.000165180746895637 -5.70247453439147e-05 -0.0001760942925816 -0.000233120569577878 -0.000107778309296961
"31" 5.01786826627206e-05 -1.7580396282397e-05 8.43826076005168e-05 2.15359993670201e-05 0.000252424943880171 4.45404139981749e-05 0.000441652981601621 -6.80605843329051e-05 -3.40957235903918e-05 -5.74077419088079e-05 -3.6754601008127e-05 -0.000158214585611654 -5.24236951022158e-05 -0.000179866461278665 -0.000232363593585285 -0.000106472037682611
"32" 5.64592634767978e-05 -2.02040301328214e-05 0.000118518361530944 3.71669532144388e-05 0.000246434650922296 5.50221544543454e-05 0.000433952047636248 -6.06435692195741e-05 -4.03794203062872e-05 -5.21816482091839e-05 -3.78655764788938e-05 -0.000150853837356931 -4.7800681712127e-05 -0.000182934764271698 -0.000231742388579328 -0.000104918315416602
"33" 6.29942434803304e-05 -2.30384630049994e-05 0.000150952984623433 5.24155825067199e-05 0.000239704235313169 6.48661657943851e-05 0.000425780590751049 -5.34979933512056e-05 -4.58002099191746e-05 -4.62274096749554e-05 -3.85580638959946e-05 -0.0001432173697507 -4.32237474618282e-05 -0.000185313962361682 -0.000231292165216297 -0.000103147358997387
"34" 6.96914368012516e-05 -2.60377765648562e-05 0.000181496866586268 6.71860466629276e-05 0.000232274924090288 7.39400580549244e-05 0.000417113020196916 -4.66630414005455e-05 -5.03842313074225e-05 -3.96434175451527e-05 -3.88798224455919e-05 -0.000135429361737962 -3.87763940835666e-05 -0.000187013172755545 -0.000231036727895919 -0.000101195919069527
"35" 7.64609433840319e-05 -2.91498422427996e-05 0.000209985940833387 8.13906879553227e-05 0.000224194124536597 8.21240147849122e-05 0.000407931622494044 -4.01721104515616e-05 -5.41697622887393e-05 -3.25289371921758e-05 -3.88816085632554e-05 -0.000127609065525504 -3.45163538357209e-05 -0.000188046915163147 -0.000231008784562319 -9.90931449153038e-05
"36" 8.31969149284192e-05 -3.23258779825277e-05 0.000236281037290857 9.49425475999919e-05 0.000215506803449204 8.93032736545675e-05 0.0003982104128642 -3.40555237596376e-05 -5.72067554279375e-05 -2.49946570020713e-05 -3.86273505019537e-05 -0.000119880822891323 -3.05248225791365e-05 -0.00018844402102324 -0.00023123464309064 -9.68768328668286e-05
"37" 8.97987412422111e-05 -3.55168812561277e-05 0.000260248992025089 0.000107759405657583 0.000206259189260235 9.53646345317118e-05 0.000387920953516628 -2.83422272441165e-05 -5.95475239729192e-05 -1.71575067255417e-05 -3.8178183205567e-05 -0.000112371337752535 -2.68746052430575e-05 -0.000188231099340315 -0.000231733599642651 -9.45879201609565e-05
"38" 9.61565154485255e-05 -3.86738982629812e-05 0.000281791477290261 0.000119764855556716 0.000196511412703463 0.000100216255935918 0.00037703244642949 -2.30545409507194e-05 -6.12523089316688e-05 -9.12806172981621e-06 -3.75971273026606e-05 -0.00010519601218392 -2.36290599101289e-05 -0.000187441448908657 -0.000232528176180501 -9.22588152941308e-05
"39" 0.000102158556254148 -4.17516177339768e-05 0.000300823015084038 0.00013089099464488 0.000186304428427314 0.00010376357137135 0.000365507357837997 -1.82121357643865e-05 -6.23883064662531e-05 -1.02846450549694e-06 -3.69566927547971e-05 -9.84732915545723e-05 -2.08554728994635e-05 -0.000186115447399961 -0.000233635544597162 -8.99333594058928e-05
"40" 0.000107695386960463 -4.47085359993859e-05 0.000317285067653851 0.000141069478395143 0.000175696357660803 0.000105930330263679 0.000353311912165435 -1.38333182681412e-05 -6.30296008420274e-05 7.02424784443045e-06 -3.63227672531186e-05 -9.23132267209364e-05 -1.8623986457788e-05 -0.000184293996930631 -0.000235069987487309 -8.76483207709815e-05
"41" 0.000112654349623434 -4.7500222173927e-05 0.000331140369239253 0.000150248158405466 0.000164736798447545 0.000106649123888684 0.000340412931550511 -9.92921831945654e-06 -6.32489468687516e-05 1.49088689393167e-05 -3.57662770730548e-05 -8.68236287482861e-05 -1.69849913039166e-05 -0.000182025103361935 -0.000236842831950895 -8.54411263014731e-05
"42" 0.000116930750915855 -5.00936102927508e-05 0.000342378986989271 0.000158371277643504 0.000153473938478082 0.000105870638961123 0.000326773176285375 -6.50692052208518e-06 -6.31250956127572e-05 2.25136495610414e-05 -3.53586497886554e-05 -8.20978564272507e-05 -1.60034060516775e-05 -0.000179358425574299 -0.000238962327995666 -8.33518035010658e-05
"43" 0.000120414330853135 -5.24530982430561e-05 0.000350996849104318 0.000165395428708756 0.000141955786462792 0.000103551517197386 0.000312356304643101 -3.57705705780596e-06 -6.27398464173863e-05 2.97248304746569e-05 -3.51691634122172e-05 -7.82247960123182e-05 -1.57220631164276e-05 -0.000176346039195161 -0.000241430971355615 -8.14146352794813e-05
"44" 0.000123009995331611 -5.45483923330863e-05 0.000357026942800311 0.000171286017349273 0.000130235954024681 9.96635570792431e-05 0.00029712658792631 -1.13324196339878e-06 -6.21697125158728e-05 3.64397305474516e-05 -3.52617814536692e-05 -7.52821393428548e-05 -1.61900440090474e-05 -0.00017303364298043 -0.000244243450092357 -7.96641570228695e-05
"45" 0.000124619705387011 -5.63573582290535e-05 0.000360509524384704 0.00017601279125669 0.000118358642788859 9.41956314710698e-05 0.000281055821817015 8.21141831483446e-07 -6.14954677406328e-05 4.25615525826354e-05 -3.57014940758971e-05 -7.33348560072903e-05 -1.74436015840814e-05 -0.000169477529523778 -0.000247399463074758 -7.8133657744009e-05
"46" 0.00012515553465687 -5.78640309384225e-05 0.000361515556304071 0.000179552516063937 0.000106363738957597 8.71461951037072e-05 0.000264112786337635 2.28905956900345e-06 -6.08028377613887e-05 4.7991808836454e-05 -3.65522809500996e-05 -7.24439621664058e-05 -1.95203374790911e-05 -0.000165735471855418 -0.000250892855879905 -7.68533112182958e-05
"47" 0.000124538349430729 -5.90496711615912e-05 0.000360123449117866 0.000181892023035007 9.42956106732002e-05 7.85292213630358e-05 0.000246276439545413 3.28137767749735e-06 -6.01563973684709e-05 5.26629127739712e-05 -3.7862917644675e-05 -7.26468380570255e-05 -2.24420479652064e-05 -0.000161854433507862 -0.000254706679381816 -7.58493277832685e-05
"48" 0.000122700387424159 -5.99070230397507e-05 0.000356431355273968 0.000183023596583692 8.21951887360999e-05 6.83715658392616e-05 0.000227525638916045 3.81278361096787e-06 -5.96352560507066e-05 5.64923780603177e-05 -3.96892930164226e-05 -7.39781826913611e-05 -2.62275959718672e-05 -0.000157887705312526 -0.000258826052771127 -7.51459316446671e-05
"49" 0.000119576215827979 -6.04338662738635e-05 0.000350550850574943 0.000182945983082066 7.0093671357924e-05 5.67133049639106e-05 0.000207841927435951 3.88551370271061e-06 -5.93098480648858e-05 5.94222449577586e-05 -4.20762469337325e-05 -7.64577354733359e-05 -3.08937315628273e-05 -0.000153884535676499 -0.000263230693201507 -7.47689738321459e-05
"50" 0.000115120788210284 -6.06298305689125e-05 0.000342610984081335 0.00018166697895271 5.80275907699831e-05 4.36075301948334e-05 0.000187222907481386 3.52692614639323e-06 -5.92384145938823e-05 6.14052842618697e-05 -4.50600982717402e-05 -8.0086086176428e-05 -3.6445565275225e-05 -0.000149890763231997 -0.000267894936942774 -7.47305088171991e-05
"51" 0.000109291601920218 -6.05062914621665e-05 0.00033274842993211 0.000179199438365375 4.60279780617087e-05 2.91172594033495e-05 0.000165664191140876 2.75005902573488e-06 -5.94795724075045e-05 6.24076567861505e-05 -4.8671556993143e-05 -8.48601435349636e-05 -4.28771252550905e-05 -0.00014594894587509 -0.00027279429098144 -7.50490491715356e-05
"52" 0.000102068328448527 -6.00708894967844e-05 0.000321106769636224 0.000175564501362887 3.41208573985313e-05 1.33185985970289e-05 0.000143173575380554 1.57577386512577e-06 -6.00858008774414e-05 6.24016152288637e-05 -5.29352264510115e-05 -9.07591137116502e-05 -5.01803979004151e-05 -0.000142101456192057 -0.000277896302836784 -7.57328922498526e-05
"53" 9.34296764344987e-05 -5.93448216077647e-05 0.000307841378013748 0.000170789275801918 2.2332782726876e-05 -3.70537475218604e-06 0.000119766968469936 2.59414998747225e-08 -6.10993218467951e-05 6.13776856819344e-05 -5.78662326297609e-05 -9.77521316732465e-05 -5.83405236043666e-05 -0.000138383451234188 -0.000283168509798052 -7.67922989579902e-05
"54" 8.3381962144005e-05 -5.83429583427992e-05 0.000293118262661544 0.000164911834906177 1.06879183192888e-05 -2.18572923703433e-05 9.54639051043297e-05 -1.87360486030911e-06 -6.25535196925628e-05 5.93377233030403e-05 -6.34711328309535e-05 -0.000105792962701153 -6.73264141107966e-05 -0.000134825558963293 -0.000288572034772513 -7.82274989667467e-05
"55" 7.19339560434144e-05 -5.70959071552715e-05 0.000277100353963509 0.000157966739291081 -7.97063485838018e-07 -4.10333543037259e-05 7.02970383725718e-05 -4.09671646459569e-06 -6.44802657455785e-05 5.62972927789847e-05 -6.97487662113167e-05 -0.000114829056881629 -7.71136381868203e-05 -0.000131451649608107 -0.000294074070074726 -8.00385470729092e-05
"56" 5.91083003799827e-05 -5.56316865939488e-05 0.00025996026138592 0.000150005094973615 -1.210311007501e-05 -6.11231818144773e-05 4.43054543830585e-05 -6.61849077179545e-06 -6.68999967143239e-05 5.22796628773159e-05 -7.66896876835265e-05 -0.000124797227620542 -8.7662499715732e-05 -0.000128288244772054 -0.000299628499892324 -8.22227091728835e-05
"57" 4.49493033554119e-05 -5.39769680760538e-05 0.000241876204482214 0.0001410781738486 -2.32104403775413e-05 -8.20081660002922e-05 1.75405491547336e-05 -9.40504738133297e-06 -6.98182121677537e-05 4.73283093491572e-05 -8.42731680199433e-05 -0.00013561750984281 -9.89187578500758e-05 -0.000125351152724885 -0.00030519708267344 -8.47673582547533e-05
"58" 2.95018377156239e-05 -5.21736693008776e-05 0.000223009326014658 0.000131242458172999 -3.41077475567119e-05 -0.000103567526702038 -9.93877070347332e-06 -1.24293432119906e-05 -7.32424542610801e-05 4.14871787010734e-05 -9.24762436453586e-05 -0.000147210672203303 -0.000110840591902883 -0.000122648859145739 -0.000310735363039627 -8.76646648726495e-05
"59" 1.2828910593204e-05 -5.02527832970052e-05 0.000203545493158861 0.000120564041815596 -4.47844563845533e-05 -0.000125668963763378 -3.80730459201472e-05 -1.56592356634028e-05 -7.71703556901937e-05 3.48162082102144e-05 -0.000101264232966107 -0.000159485601540941 -0.000123361517587273 -0.000120193305932129 -0.00031620260626562 -9.08984000151039e-05
"60" -4.99342875816109e-06 -4.82550513964168e-05 0.000183649330670247 0.00010910827320094 -5.5226959226019e-05 -0.000148185317150346 -6.67776817904031e-05 -1.90610251330342e-05 -8.15866483131153e-05 2.7389502962408e-05 -0.00011059346392903 -0.000172342745306404 -0.000136420934487305 -0.000117984383484797 -0.000321553206574665 -9.4447213611998e-05
"61" -2.38783159190819e-05 -4.62143315224053e-05 0.000163495740558091 9.69533767810562e-05 -6.54218060266259e-05 -0.000170977544527886 -9.59714808535733e-05 -2.25988306614791e-05 -8.64699029577473e-05 1.92809840814683e-05 -0.000120411961228868 -0.000185677286913846 -0.000149944714013098 -0.000116016029274906 -0.000326744198781633 -9.82883741625796e-05
"62" -4.37312154415471e-05 -4.41764051475909e-05 0.000143241552239666 8.41718527236994e-05 -7.53634717657155e-05 -0.000193914631588118 -0.000125567195191413 -2.62432698716035e-05 -9.17965773270082e-05 1.05778650669313e-05 -0.000130666442234914 -0.000199384574064001 -0.000163859605082537 -0.000114288211727029 -0.000331733606583689 -0.000102397900686375
"63" -6.44504346714375e-05 -4.21748016601272e-05 0.000123053996394027 7.08452719506847e-05 -8.50441500643315e-05 -0.000216858972529303 -0.000155468453741375 -2.99566671245987e-05 -9.75351700809434e-05 1.36650323122971e-06 -0.000141298163813143 -0.000213352892124383 -0.000178088264926341 -0.000112789110932406 -0.000336481016495259 -0.000106745554355496
"64" -8.59165251303167e-05 -4.02485263781159e-05 0.000103081718872211 5.70637250294911e-05 -9.44510038278177e-05 -0.000239675174717081 -0.000185560938547143 -3.37049561715861e-05 -0.000103641623824693 -8.25209713057033e-06 -0.000152234152633591 -0.000227465685920301 -0.000192541467229549 -0.000111500439235614 -0.000340941490853472 -0.000111302001560275
"65" -0.000108009041876903 -3.84319265122523e-05 8.34753212129628e-05 4.29120174684145e-05 -0.00010357556952321 -0.000262231676911962 -0.000215744809270551 -3.74499910454443e-05 -0.000110075913322288 -1.81792430689674e-05 -0.000163404720035442 -0.00024160937982546 -0.000207136913001423 -0.000110409013285173 -0.000345084237010295 -0.000116029893566116
"66" -0.000130597741752226 -3.6759638168123e-05 6.43714263006394e-05 2.84800858310655e-05 -0.000112412756620699 -0.000284395262246863 -0.000245897850656965 -4.11587576959681e-05 -0.000116786081670369 -2.83124760339342e-05 -0.00017473497730324 -0.000255669233189866 -0.000221781070248155 -0.000109492390993006 -0.00034887056522712 -0.000120897350421137
"67" -0.000153552833605533 -3.52604144836067e-05 4.59028979596976e-05 1.38622870578189e-05 -0.000120948105163958 -0.000306038865963105 -0.000275903475949455 -4.47919640706424e-05 -0.00012372232606508 -3.85441346632554e-05 -0.000186143015485429 -0.00026952954084576 -0.000236383554068289 -0.000108726986721321 -0.000352263433313271 -0.000125862605588022
"68" -0.000176734034368055 -3.39667304535593e-05 2.81920034654695e-05 -8.4868124665176e-07 -0.000129176906364851 -0.000327040506893157 -0.000305646497107517 -4.83220871482482e-05 -0.000130831537869245 -4.87815977657243e-05 -0.00019755500653713 -0.000283083523528669 -0.00025085468918829 -0.000108092744791514 -0.000355242022644426 -0.00013089182197745
"69" -0.000199998642415341 -3.2898736717762e-05 1.13512153300008e-05 -1.55526597961378e-05 -0.000137087876097217 -0.000347280388568138 -0.000334995110977099 -5.17059736211141e-05 -0.000138051828060448 -5.89101471335931e-05 -0.000208882859418661 -0.000296216074814977 -0.000265098629440077 -0.000107557921129716 -0.00035777051571386 -0.000135938424380805
"70" -0.000223203626966843 -3.20789356927509e-05 -4.52030580058776e-06 -3.01585852860879e-05 -0.000144671054244799 -0.000366648979930681 -0.000363829561167021 -5.49146093173415e-05 -0.000145324087734816 -6.88315266636909e-05 -0.000220045584032627 -0.000308825094025361 -0.000279014814102628 -0.00010709850720213 -0.000359827438821105 -0.000140966196752355
"71" -0.000246204432432201 -3.15212556114186e-05 -1.93252297930666e-05 -4.45683409573843e-05 -0.000151913063244109 -0.000385038547257839 -0.000392024720405104 -5.79116817086778e-05 -0.000152591027630052 -7.84514519215149e-05 -0.000230961659590605 -0.000320808978497122 -0.00029251812656398 -0.000106683949193124 -0.000361391910654195 -0.000145930293200016
"72" -0.000268858747610045 -3.12382358034503e-05 -3.29864075275698e-05 -5.86883467523943e-05 -0.000158802481181326 -0.000402352108391776 -0.000419454370355513 -6.06682108072581e-05 -0.000159790472794987 -8.76741404522175e-05 -0.000241551488533513 -0.000332075948952619 -0.000305515669312497 -0.000106290645562524 -0.000362446149204955 -0.000150791764062567
"73" -0.00029102627580961 -3.12367582206546e-05 -4.5429455157567e-05 -7.24263355950724e-05 -0.000165327947231425 -0.000418498561480402 -0.000446002197435039 -6.31532399681569e-05 -0.000166863241695905 -9.64098522574384e-05 -0.000251733021186335 -0.000342536159573331 -0.000317916462254829 -0.00010588774273113 -0.000362973143532831 -0.000155508602322457
"74" -0.00031256344387842 -3.1516162254651e-05 -5.6597574879437e-05 -8.56880524800583e-05 -0.000171473047668741 -0.000433394587513653 -0.000471546779761284 -6.53336220953929e-05 -0.000173752428780582 -0.000104574324917329 -0.00026143038411622 -0.000352108354633995 -0.000329632096986473 -0.000105448113902068 -0.00036296645118004 -0.000160037642416275
"75" -0.000333338512587816 -3.2077396935762e-05 -6.64442514822466e-05 -9.8391332873802e-05 -0.000177226236597897 -0.000446971538831647 -0.000495976696524626 -6.71870290946917e-05 -0.000180397756901795 -0.00011209323054071 -0.000270573142422778 -0.000360719182037347 -0.000340581283075352 -0.000104940397325206 -0.000362414135286131 -0.000164341787226865
"76" -0.000353221406562779 -3.2911946735059e-05 -7.4929048722828e-05 -0.000110446595762553 -0.000182575453542767 -0.000459161091250225 -0.000519184416474515 -6.86875806858155e-05 -0.000186748583894778 -0.000118896307668906 -0.000279092338805173 -0.000368304738499337 -0.000350686944251507 -0.00010434516193381 -0.000361312545762939 -0.000168380809381487
"77" -0.000372090874084114 -3.40026917296472e-05 -8.20315430741438e-05 -0.000121773628253168 -0.00018749747827245 -0.000469910057376127 -0.000541062466717472 -6.98069673494719e-05 -0.000192750521295976 -0.00012492247418578 -0.000286919677582114 -0.000374805877502339 -0.000359866503390902 -0.000103635779883852 -0.000359658446479176 -0.000172117593848678
"78" -0.000389831727600779 -3.53367931820711e-05 -8.77382312520931e-05 -0.000132297321033572 -0.000191981966097131 -0.000479175797741015 -0.000561512190368887 -7.05269443586034e-05 -0.000198355200692881 -0.000130112562610893 -0.000293996281926448 -0.000380178061331565 -0.000368053193919116 -0.000102786251605211 -0.000357452933352518 -0.00017551513034466
"79" -0.000406333305753663 -3.68907214326925e-05 -9.20413087248555e-05 -0.000141948599203389 -0.000196010627263831 -0.000486920610798023 -0.000580449501161787 -7.08280611687982e-05 -0.000203518357309305 -0.000134425092554301 -0.000300270255150145 -0.000384376852562424 -0.000375180997496556 -0.000101775901979726 -0.000354697744762029 -0.000178539501938472
"80" -0.000421499140542339 -3.86395713961535e-05 -9.49579769118521e-05 -0.00015066452740287 -0.000199568326949171 -0.000493121589607794 -0.000597791404856087 -7.06955465627923e-05 -0.000208194833449534 -0.000137818655545229 -0.000305688012474509 -0.000387376135369577 -0.000381188237990552 -0.000100585030990381 -0.000351397540627928 -0.000181161824772598
"81" -0.000435243190592766 -4.05558277964432e-05 -9.64976589418741e-05 -0.00015838715822008 -0.000202636377686721 -0.000497768580208084 -0.00061346733432064 -7.01119813524699e-05 -0.000212351689177205 -0.000140267017754608 -0.000310211619291493 -0.000389156990525381 -0.000386031047132207 -9.91971031275121e-05 -0.000347559845953543 -0.000183350145635682
"82" -0.000447490561640673 -4.26066826687767e-05 -9.66994167851201e-05 -0.000165067841746326 -0.000205204037579392 -0.000500854030976924 -0.000627409027479633 -6.90727828524671e-05 -0.000215953003456242 -0.000141746977814822 -0.000313802686051164 -0.000389707431780585 -0.00038965399692945 -9.75919197804561e-05 -0.000343194049534938 -0.00018508054486638
"83" -0.000458171961546075 -4.47545321427256e-05 -9.56016756298865e-05 -0.000170659420184747 -0.000207250525095729 -0.000502382570512366 -0.00063956442572262 -6.75620915772913e-05 -0.000218967781347511 -0.000142244579512618 -0.000316428368389854 -0.000389024251676219 -0.000392018730215403 -9.57534021290475e-05 -0.000338306260296581 -0.000186327130034383
"84" -0.000467232741303412 -4.6963492289814e-05 -9.32450552168554e-05 -0.000175128674856385 -0.000208760421288782 -0.000502370249395941 -0.000649885750998805 -6.55772405642985e-05 -0.000221372190036374 -0.000141754857539113 -0.000318067780249358 -0.000387113915343321 -0.000393093760106088 -9.36769791405838e-05 -0.000332913324594119 -0.000187067145835362
"85" -0.000474638137130887 -4.91950543209061e-05 -8.96960192778448e-05 -0.000178453623647004 -0.000209722125516259 -0.000500846011916424 -0.000658345706453171 -6.31157454095753e-05 -0.000223144566656963 -0.000140284483825481 -0.000318701127640942 -0.000383994791356923 -0.000392855685785533 -9.13457545233857e-05 -0.000327020645683209 -0.000187285917462365
"86" -0.000480352329906081 -5.14089667340384e-05 -8.5017309365532e-05 -0.000180610396159171 -0.000210120053920467 -0.000497839412678967 -0.000664913295596658 -6.01783972768391e-05 -0.000224270558008875 -0.000137843377382055 -0.000318320221204703 -0.000379691134778897 -0.000391282261526461 -8.8756047158512e-05 -0.00032064586754469 -0.000186965987118489
"87" -0.00048436321889104 -5.35641336961271e-05 -7.92814880463783e-05 -0.000181592736880409 -0.000209943802725565 -0.000493396997160657 -0.000669577855263288 -5.67661182684257e-05 -0.000224736781198139 -0.000134448781758884 -0.000316916360942218 -0.00037423369248276 -0.000388364722305003 -8.5895560198893e-05 -0.000313798879975162 -0.000186095493192487
"88" -0.000486664834989977 -5.56171644278726e-05 -7.25693873342628e-05 -0.00018139974945024 -0.000209176473131816 -0.000487564733145945 -0.000672334986662689 -5.28841273713791e-05 -0.00022453274773929 -0.000130125016614534 -0.000314493308987692 -0.000367661865970547 -0.00038409387012064 -8.27645594257032e-05 -0.000306494159804831 -0.000184662829216827
"89" -0.000487270808250105 -5.75328057553636e-05 -6.49682947579181e-05 -0.000180039726549446 -0.000207819243263809 -0.000480408304048643 -0.000673193783907887 -4.85497571256579e-05 -0.000223660679874161 -0.000124910303431359 -0.000311062062131088 -0.000360028164203473 -0.00037848463253308 -7.93583518317457e-05 -0.000298747968814466 -0.000182668992731426
"90" -0.000486199627030882 -5.92688761680197e-05 -5.65667288247659e-05 -0.000177531649675605 -0.000205856611131977 -0.000471987364245788 -0.000672172316240964 -4.37622038682121e-05 -0.000222112645751948 -0.000118837020967787 -0.000306631669812706 -0.000351380659537919 -0.000371539709149498 -7.56774524427205e-05 -0.000290570544941159 -0.000180104082592055
"91" -0.000483485866303563 -6.07876486678416e-05 -4.74598176588289e-05 -0.000173896084348173 -0.000203284993129753 -0.000462375388151903 -0.000669292830577811 -3.85436913518746e-05 -0.000219897656799822 -0.00011195294775072 -0.000301225413157069 -0.000341781733422062 -0.000363282182032639 -7.17232991241723e-05 -0.000281974826930659 -0.00017696977572196
"92" -0.000479174627230301 -6.20552951341734e-05 -3.77492183678682e-05 -0.000169174831876723 -0.00020010006438981 -0.00045165050930411 -0.000664598458243192 -3.29079138505855e-05 -0.000217021686155696 -0.000104307185707116 -0.000294869264670153 -0.000331297310116221 -0.000353733472155018 -6.75000377363319e-05 -0.000272980533859897 -0.000173270296228795
"93" -0.000473324001783984 -6.30366346718347e-05 -2.75341308002442e-05 -0.00016340541476379 -0.000196308544220748 -0.000439894590707997 -0.000658139080905827 -2.68777703656965e-05 -0.000213496294669627 -9.5950423385038e-05 -0.000287593641501631 -0.000319996918261238 -0.000342932569400099 -6.30094310807259e-05 -0.000263593890984386 -0.000169011284233988
"94" -0.000466002535655521 -6.37045733629581e-05 -1.69230918191147e-05 -0.000156643079646469 -0.000191906424233809 -0.000427194203274649 -0.000649963120748449 -2.04714215959261e-05 -0.000209333286203746 -8.69443084046287e-05 -0.000279433922741371 -0.000307954251406946 -0.000330913778864688 -5.82615561710206e-05 -0.000253829353749532 -0.00016420145165721
"95" -0.000457287121768274 -6.40314188751416e-05 -6.01551730555787e-06 -0.000148942844917375 -0.000186898773852054 -0.000413640001354616 -0.00064014304892451 -1.37156229021346e-05 -0.000204551115365801 -7.73500824714785e-05 -0.000270432676335406 -0.000295249666740664 -0.000317727203367264 -5.32605080543273e-05 -0.000243701066390783 -0.000158854305002852
"96" -0.000447262082927762 -6.3995140521896e-05 5.08644067451726e-06 -0.000140373438257065 -0.000181297501157291 -0.000399322664267788 -0.000628748222223147 -6.63207783634506e-06 -0.000199168862718947 -6.72296388573537e-05 -0.000260635421442495 -0.000281957182490644 -0.000303424213765919 -4.8018050687692e-05 -0.000233220533617493 -0.000152980428219681
"97" -0.000436022387224416 -6.35802183923391e-05 1.62759665870133e-05 -0.000131002148446783 -0.000175110866999763 -0.000384334893175867 -0.000615864444783448 7.46677006528494e-07 -0.000193208519494573 -5.66492384477384e-05 -0.000250090118655438 -0.000268162832859058 -0.000288062322697676 -4.25437308106979e-05 -0.000222396882696571 -0.000146599919334098
"98" -0.000423672103815357 -6.27692219127486e-05 2.74495744026971e-05 -0.000120913612819658 -0.000168355175717488 -0.00036877046896777 -0.000601578567393176 8.3914408383043e-06 -0.000186694577138241 -4.56810139761036e-05 -0.00023885200094611 -0.000253947556213514 -0.000271710855423599 -3.68506016670408e-05 -0.000211244727747557 -0.000139733036624061
"99" -0.000410316752107964 -6.1555887889304e-05 3.85117381544335e-05 -0.00011018711527425 -0.000161047196446601 -0.000352726076170646 -0.000585984392987702 1.62716138384373e-05 -0.000179651526130528 -3.43877159562527e-05 -0.000226977512043094 -0.000239394694360172 -0.000254439761076452 -3.09471641889566e-05 -0.000199773962379877 -0.000132398793553747
"100" -0.00039606919458527 -5.99332458124945e-05 4.93609148209411e-05 -9.89138612432297e-05 -0.000153209500321321 -0.000336294075417113 -0.000569190547829247 2.43561853103377e-05 -0.000172107479053158 -2.28440607656336e-05 -0.000214525721058115 -0.000224585369529416 -0.000236320665951301 -2.48479166747141e-05 -0.000187993586369013 -0.00012462284596497
"101" -0.000381050072844819 -5.79049577790235e-05 5.99057255184578e-05 -8.7183848569593e-05 -0.000144868567145835 -0.000319566338874487 -0.000551296193755716 3.2609506900466e-05 -0.00016409076702399 -1.11143210152655e-05 -0.000201561704491576 -0.000209600679372145 -0.000217436402269809 -1.85692216840344e-05 -0.000175916801888486 -0.000116433323695233
"102" -0.000365373702091523 -5.54744483960982e-05 7.00639597156708e-05 -7.50959618543185e-05 -0.000136048082202514 -0.000302628679415078 -0.000532418092888771 4.09955194682638e-05 -0.000155633179925681 7.31821138373035e-07 -0.000188148252811043 -0.000194521560959441 -0.000197875376934274 -1.21239499113755e-05 -0.000163556298658332 -0.000107856486345535
"103" -0.00034916376630851 -5.26518149046485e-05 7.97404119785807e-05 -6.27441140116284e-05 -0.000126782545800145 -0.000285571871403113 -0.000512669404759956 4.9484365577108e-05 -0.000146759152334848 1.26298974442558e-05 -0.000174348329863273 -0.000179420653396991 -0.000177721548009953 -5.52142890820782e-06 -0.000150914107196582 -9.89217002074663e-05
"104" -0.000332540622063594 -4.94508033166809e-05 8.88668280835958e-05 -5.02304327742507e-05 -0.00011710906955017 -0.00026847393520442 -0.000492168013354049 5.80351287340721e-05 -0.000137505802427089 2.45177479405876e-05 -0.000160233672384531 -0.000164372131997558 -0.000157069889260196 1.2202976556387e-06 -0.00013800941621704 -8.96638675140085e-05
"105" -0.000315625795222227 -4.58900333606083e-05 9.73665084332825e-05 -3.76531609287222e-05 -0.000107060353209254 -0.000251413677364007 -0.000471029511500819 6.6618490134601e-05 -0.000127899682862308 3.63308903200018e-05 -0.000145869384209131 -0.000149444330610442 -0.000136011725045876 8.08707466565195e-06 -0.000124848769691694 -8.01117521721019e-05
"106" -0.00029853637078783 -4.19967150251211e-05 0.000105171588942861 -2.51142624295042e-05 -9.66830997513771e-05 -0.000234464575214674 -0.000449380585471318 7.51922126934868e-05 -0.000117973578565766 4.80149237085212e-05 -0.000131325398873908 -0.000134702548358507 -0.000114650417895859 1.5063877709126e-05 -0.000111446477434482 -7.03048311368517e-05
"107" -0.000281391181394966 -3.77923739946438e-05 0.000112229836303904 -1.27118172746463e-05 -8.60132200608967e-05 -0.000217690210414574 -0.000427337404546133 8.37284528040473e-05 -0.000107757121835998 5.95141589473205e-05 -0.000116667460961982 -0.000120205778287164 -9.30790202256395e-05 2.21391071049042e-05 -9.78150560970264e-05 -6.02737833764821e-05
"108" -0.000264298104915933 -3.33089390208559e-05 0.00011848174329599 -5.40892177126229e-07 -7.51056869133223e-05 -0.000201154791102284 -0.000405025364827755 9.21881179714588e-05 -9.72809282955879e-05 7.07773359515317e-05 -0.000101964211763985 -0.000106006521934101 -7.13998197900123e-05 2.92965636401038e-05 -8.39642830134156e-05 -5.00598715943454e-05
"109" -0.000247363352295844 -2.8579919407133e-05 0.000123885974462908 1.13039904442826e-05 -6.40014391230598e-05 -0.000184912077227162 -0.000382555820257173 0.000100544185577425 -8.65723400375052e-05 8.17679086463206e-05 -8.72787030557377e-05 -9.2152422726368e-05 -4.97109340849661e-05 3.65279322121694e-05 -6.99102298676943e-05 -3.96962396811914e-05
"110" -0.000230690965232087 -2.36427175465899e-05 0.000128407738315844 2.27335538054775e-05 -5.27536210606607e-05 -0.000169006440956092 -0.000360050358986522 0.000108759743285994 -7.56664749008921e-05 9.24340213611051e-05 -7.26790051792176e-05 -7.86873160124659e-05 -2.81170176595104e-05 4.38143033900227e-05 -5.56737021280777e-05 -2.92220577514923e-05
"111" -0.000214367940304237 -1.85342475149198e-05 0.000132007550213984 3.3662828109266e-05 -4.1413704171559e-05 -0.000153483814649512 -0.000337614799291855 0.000116808564719095 -6.45817458635125e-05 0.000102748566703344 -5.82236219798294e-05 -6.56441809949211e-05 -6.71265327113923e-06 5.11489541113955e-05 -4.12614277399131e-05 -1.86751916266453e-05
"112" -0.000198481878699548 -1.32919966451864e-05 0.00013467499737021 4.40181442992805e-05 -3.00291450244944e-05 -0.000138372781418917 -0.000315361028799958 0.000124667811996177 -5.33472738408838e-05 0.000112680692048135 -4.39699164370808e-05 -5.30522024352576e-05 1.4410045401663e-05 5.85189517402703e-05 -2.66961638103582e-05 -8.09137814129999e-06
"113" -0.000183111180331854 -7.96138465289676e-06 0.000136392501769035 5.37222092517398e-05 -1.86588192288487e-05 -0.000123702104361351 -0.000293392116207686 0.000132302573538545 -4.19961305477275e-05 0.000122202109760823 -2.99811568665283e-05 -4.09356916302649e-05 3.5146119963341e-05 6.59057138291419e-05 -1.20008522237176e-05 2.48818111199189e-06
"114" -0.000168318735904115 -2.5757317663994e-06 0.000137148335502825 6.27142815823525e-05 -7.3521949534229e-06 -0.000109491795406233 -0.000271799765075685 0.000139701242164621 -3.05400738007543e-05 0.000131303317869625 -1.63024321940685e-05 -2.93045355475916e-05 5.54149007109889e-05 7.33115030814211e-05 2.81055639362669e-06 1.30317620655101e-05
"115" -0.000154162755944036 2.81620091800975e-06 0.000136947446259901 7.09345294171217e-05 3.83690627516972e-06 -9.5752564949159e-05 -0.000250678810102012 0.00014683629025152 -1.90095424473013e-05 0.000139960212714738 -2.98916799568599e-06 -1.81728297622569e-05 7.5123061757833e-05 8.07176281198894e-05 1.77080583559344e-05 2.34994980354563e-05
"116" -0.000140693541091657 8.17940489105104e-06 0.000135802785495703 7.83419848254284e-05 1.48588242599707e-05 -8.2486022617866e-05 -0.000230105884767891 0.000153696761284108 -7.42739436269257e-06 0.000148173153761408 9.91776144446829e-06 -7.53772595222031e-06 9.4193702674395e-05 8.81136277341817e-05 3.26683976153008e-05 3.3860518941497e-05
"117" -0.000127943546731952 1.34701211462095e-05 0.000133724092909293 8.48915552443795e-05 2.56608870340213e-05 -6.96939587462608e-05 -0.000210162546233634 0.000160263430451476 4.18623961957065e-06 0.000155932592623727 2.2372358780353e-05 2.60039770046972e-06 0.000112544043231083 9.54898560941354e-05 4.76595342062714e-05 4.40761830032357e-05
"118" -0.00011593716667649 1.86545871842534e-05 0.000130739122344539 9.05605749532346e-05 3.61952601482823e-05 -5.73660785413027e-05 -0.000190909431415669 0.000166532456353703 1.58165528738668e-05 0.000163248800797144 3.43437377802245e-05 1.22587575592106e-05 0.000130108285914431 0.000102839634733847 6.26599471327164e-05 5.41195534754449e-05
"119" -0.000104697097824455 2.36953174216916e-05 0.000126879345319177 9.53280696750808e-05 4.64141339927791e-05 -4.5489168295287e-05 -0.000172408472091209 0.000172492095350189 2.74349951266576e-05 0.000170121174216662 4.57939473259636e-05 2.14460346468825e-05 0.000146818645617515 0.000110147434351083 7.76307468664394e-05 6.39559925543715e-05
"120" -9.42218973659355e-05 2.85633743241259e-05 0.000122177757940309 9.91913090687815e-05 5.62774993285503e-05 -3.40422369398993e-05 -0.000154702173449522 0.000178144718653707 3.90293210153442e-05 0.000176567760706256 5.6698629773831e-05 3.01903971669048e-05 0.000162622917174826 0.0001174045332936 9.25382006159892e-05 7.35610428887277e-05
"121" -8.45067039980784e-05 3.32268974663309e-05 0.000116679351926209 0.000102149670927139 6.57416096995518e-05 -2.29970616131385e-05 -0.000137834740858269 0.000183484520169938 5.05821761442301e-05 0.000182599755695537 6.70333742966833e-05 3.85160471850701e-05 0.000177466481635107 0.000124601663904317 0.000107352199821917 8.29061662025525e-05
"122" -7.55397273575456e-05 3.7664295225007e-05 0.000110433844872869 0.000104220879349096 7.47712514932385e-05 -1.23261841914902e-05 -0.000121830452185066 0.00018852239215174 6.20736406346539e-05 0.000188239113168566 7.67807255602047e-05 4.64526421983058e-05 0.000191313386608721 0.00013172616977454 0.000122026513680083 9.19671664606399e-05
"123" -6.72927397075683e-05 4.18484755317794e-05 0.000103497015237307 0.00010542895172289 8.33284986766354e-05 -1.99029266806317e-06 -0.000106718241377296 0.000193260760354862 7.34840842211453e-05 0.000193505932345424 8.59252729755181e-05 5.40378686444491e-05 0.000204127720530373 0.000138767403193933 0.000136524019638216 0.000100723725082573
"124" -5.97340568495951e-05 4.57652351181685e-05 9.59270052243341e-05 0.000105808814328832 9.13866422973163e-05 8.04546470978111e-06 -9.2503298547891e-05 0.000197709256321807 8.48009546793759e-05 0.000198426603843508 9.44594265661771e-05 6.13107010420421e-05 0.000215885447966071 0.00014570970670035 0.00015080406953914 0.000109156911777374
"125" -5.28174325720591e-05 4.94041684377167e-05 8.77869242524439e-05 0.000105407850995376 9.89192984679853e-05 1.78261167360777e-05 -7.91880638497275e-05 0.00020188679680839 9.60038773995579e-05 0.000203028760248975 0.000102376643604531 6.83115417709695e-05 0.000226570387942917 0.000152540480857058 0.000164820032320778 0.000117249055361735
"126" -4.64979862032019e-05 5.27543134620718e-05 7.9144896678606e-05 0.000104283237694695 0.000105904961732648 2.73905687061804e-05 -6.67628480597423e-05 0.000205806135550446 0.000107076347702585 0.000207338038196786 0.000109676368592779 7.50821726474156e-05 0.00023617745650939 0.0001592462231382 0.00017852980848126 0.000124988210660575
"127" -4.07160807454483e-05 5.58129934566492e-05 7.00749978927517e-05 0.000102497624347896 0.0001123332286087 3.67930003348539e-05 -5.52127979254046e-05 0.000209490268974547 0.000118000467646933 0.000211390334882545 0.000116366266310006 8.16730491058375e-05 0.000244708904106392 0.000165810090539887 0.000191889730002774 0.000132363283864087
"128" -3.54105362302763e-05 5.85857556219467e-05 6.06501728213098e-05 0.000100122844006197 0.000118184337272628 4.60702128281017e-05 -4.45206641568688e-05 0.000212957591146088 0.000128758407468038 0.000215210209235659 0.000122448290519069 8.81276862632564e-05 0.000252176203762971 0.000172218390856651 0.000204847541047333 0.000139365497322094
"129" -3.05137650161315e-05 6.10739450004044e-05 5.09430578157341e-05 9.72413952850184e-05 0.00012345487833015 5.52763094434915e-05 -3.46489766162516e-05 0.000216235713735858 0.000139327578758465 0.000218832281213977 0.000127935266525492 9.44903606345377e-05 0.000258596604256231 0.000178452233520407 0.000217362443838541 0.000145991677496604
"130" -2.59528588737717e-05 6.32961377498198e-05 4.10353968067866e-05 9.39431823851756e-05 0.000128148599067822 6.44564775364673e-05 -2.55599971051728e-05 0.000219354601479016 0.000149694796791965 0.000222287135356093 0.000132844403879741 0.000100814452766358 0.000264005376244897 0.000184494614460393 0.000229387898784281 0.00015224078666628
"131" -2.16553354713e-05 6.52621984209644e-05 3.10019408756938e-05 9.03160531411739e-05 0.000132260983396431 7.36534018247041e-05 -1.72128550201672e-05 0.000222335015019884 0.000159833518240597 0.000225602809989689 0.000137191309519695 0.000107141531357012 0.00026842985561036 0.000190326843812029 0.000240877493917654 0.000158109166765334
"132" -1.75465024463486e-05 6.69957216515513e-05 2.09226010626949e-05 8.6459047081184e-05 0.000135802719889357 8.29136628395783e-05 -9.55170261374483e-06 0.000225207657635086 0.000169726980619062 0.000228808838299987 0.000140996401827802 0.00011351630944945 0.000271918979866012 0.000195930934141699 0.000251788634121917 0.00016360349714222
"133" -1.35479338618516e-05 6.85222020712041e-05 1.08751810916015e-05 8.24733151550263e-05 0.000138789950189238 9.22752006012364e-05 -2.52240032911599e-06 0.000228008616151112 0.000179353907112015 0.000231936206043171 0.000144285120995808 0.000119983132620894 0.000274522714780621 0.00020128743194057 0.000262080276582063 0.000168730404561095
"134" -9.58158571564506e-06 6.98689504806223e-05 9.34952282989684e-07 7.84631949341788e-05 0.000141237581552068 0.000101778990081884 3.9319426164192e-06 0.000230764042938703 0.000188692684879343 0.000235007184129308 0.000147080610802471 0.000126581468989666 0.000276299147117632 0.000206372125918099 0.000271711029019965 0.000173498307804286
"135" -5.5747910398585e-06 7.1066618268707e-05 -8.81793702841132e-06 7.45318960539842e-05 0.000143165878448095 0.000111459541276958 9.87444861425444e-06 0.000233504921894359 0.000197714993842136 0.000238042323380384 0.00014940956009886 0.000133346986597406 0.000277308512936334 0.000211171863362682 0.000280643910958911 0.000177916170470716
"136" -1.45362932957633e-06 7.21525538175525e-05 -1.83153648370396e-05 7.07836199416727e-05 0.000144604648626015 0.00012134721926536 1.53720263622242e-05 0.00023626202726791 0.000206405629666201 0.00024106939429977 0.000151303832895797 0.000140319386389093 0.000277623621393695 0.00021566126990495 0.000288846756164191 0.00018200204273841
"137" 2.85292693269774e-06 7.31599522108247e-05 -2.74852395140998e-05 6.73192894078386e-05 0.0001455778416351 0.000131464561603884 2.04947609625145e-05 0.000239064476056786 0.00021473641993116 0.000244102192453072 0.000152790851933979 0.000147522301712159 0.000277314659643433 0.000219824638741819 0.000296288530695044 0.000185766511821378
"138" 7.40766005452339e-06 7.41300701232806e-05 -3.62616368235319e-05 6.4242634843287e-05 0.000146123748742118 0.000141837862229803 2.53062566392736e-05 0.000241942172927974 0.000222686304478415 0.000247157911597428 0.000153907329591507 0.000154987264259539 0.000276459240308672 0.000223640242357926 0.000302940943178972 0.000189231175673705
"139" 1.2273442355103e-05 7.51035147109096e-05 -4.45790190103228e-05 6.16483048356901e-05 0.000146273729403718 0.000152479717693553 2.98805566027456e-05 0.000244922089944315 0.000230232883749497 0.000250250409412523 0.00015467849055224 0.000162733929697579 0.000275138404479394 0.000227088679036167 0.000308784845190842 0.000192415714747081
"140" 1.75036604624975e-05 7.61206502821523e-05 -5.23777355675161e-05 5.96269716021731e-05 0.000146073421771929 0.000163402863756621 3.42814739061408e-05 0.000248030367662996 0.000237351587235963 0.000253390278747925 0.000155143954916287 0.000170781608356476 0.000273434426643732 0.000230156316172108 0.000313800991384122 0.000195337659011193
"141" 2.31482641610791e-05 7.72193437010262e-05 -5.96059414844957e-05 5.82648060165282e-05 0.000145557219314305 0.00017461068779694 3.85777868219186e-05 0.000251287888109116 0.000244017472467728 0.000256583586414698 0.000155332050442622 0.0001791409955477 0.000271425824199003 0.000232819899956422 0.000317979654157382 0.000198022137762147
"142" 2.92473707774323e-05 7.84445811666452e-05 -6.62117460453106e-05 5.76425976153054e-05 0.000144773789592888 0.000186101853329379 4.28374880607759e-05 0.000254715550526745 0.000250216544163736 0.000259834338593542 0.000155278256240463 0.000187822241742012 0.000269200455284399 0.000235073097179781 0.000321311623927765 0.000200492839269779
"143" 3.58325739002786e-05 7.98326449801084e-05 -7.21524199826894e-05 5.78283253561651e-05 0.000143764726476031 0.000197870852325743 4.71176162069922e-05 0.000258333771789333 0.000255922312170731 0.000263145661047826 0.000155014984078788 0.000196827382278923 0.000266842929513837 0.000236894459939883 0.00032379768457567 0.000202772528869947
"144" 4.29345787355083e-05 8.14221878019061e-05 -7.73842646777374e-05 5.8883954610625e-05 0.000142572806879475 0.000209905964721154 5.14832880970945e-05 0.000262151862349869 0.000261116464591208 0.000266516293703418 0.000154573921689914 0.000206154918158897 0.000264430089459106 0.000238276107175422 0.000325439643330426 0.000204887150479982
"145" 5.0568750306144e-05 8.32489361341483e-05 -8.18788118486858e-05 6.08680625853354e-05 0.00014125245624596 0.000222186445481893 5.59891634116395e-05 0.000266186788076842 0.000265784919499908 0.000269944174515475 0.000153990256496123 0.000215799728887216 0.000262048399092845 0.000239209140199352 0.000326250053559314 0.000206864198164746
"146" 5.87403723444478e-05 8.53470373964299e-05 -8.56050449098633e-05 6.38186753218305e-05 0.000139844625364877 0.000234687706758076 6.06879604542622e-05 0.000270444530309097 0.000269907426442952 0.000273418514887422 0.000153290244694759 0.0002257451090358 0.000259772448476598 0.000239681595652969 0.000326242801356068 0.000208724992210314
"147" 6.74533398419171e-05 8.77450150886711e-05 -8.85386057581691e-05 6.7771245903877e-05 0.000138398453496814 0.000247384184000011 6.56195148895168e-05 0.00027492664052731 0.000273472310657613 0.000276933016912921 0.000152506033027683 0.000235979140271276 0.000257674052719384 0.000239687956002562 0.000325440761191245 0.00021049851618741
"148" 7.66982015948808e-05 9.04686878384101e-05 -9.0663805976715e-05 7.27492571036223e-05 0.000136957973662599 0.000260237536603196 7.08347530720768e-05 0.000279638282636917 0.00027646710331321 0.000280477031657105 0.000151664988739909 0.000246478483087507 0.000255826254004796 0.000239229807761072 0.000323871155452514 0.000212208086578986
"149" 8.64576929425856e-05 9.35438691001831e-05 -9.19685247939365e-05 7.87649997001674e-05 0.000135567748409543 0.000273210264981227 7.63626963336355e-05 0.000284574043919787 0.000278883401532823 0.000284036110673041 0.00015079336233971 0.000257219554589857 0.000254294542138691 0.000238301281803148 0.000321566062865539 0.000213879319409254
"150" 9.67073961287869e-05 9.69860740687236e-05 -9.24497740788706e-05 8.58142062552525e-05 0.000134272527957498 0.000286256881137151 8.22350063934404e-05 0.00028972830595606 0.000280715487456411 0.000287598815575672 0.000149915953654524 0.000268170512182991 0.000253135646149074 0.000236909543251139 0.000318562320852752 0.000215535859418806
"151" 0.000107409574699663 0.00010080506060437 -9.21038907391449e-05 9.38903301904895e-05 0.000133107977714324 0.000299330025918624 8.84767013363377e-05 0.000295081793396768 0.000281956633300458 0.00029114162182259 0.000149054329000101 0.000279295771444605 0.000252400674206755 0.000235055381261479 0.000314902159198729 0.000217196493309669
"152" 0.000118525230857797 0.000105016905373318 -9.09373812460634e-05 0.000102969331160639 0.00013212055111877 0.000312377170919398 9.510011126903e-05 0.000300628094968148 0.000282604796032084 0.000294649528839784 0.00014823018418086 0.000290559686543161 0.000252139678539549 0.000232745370160159 0.000310632174494909 0.000218884097636158
"153" 0.000130007947828869 0.000109619761773683 -8.89611848185515e-05 0.000113019469256939 0.000131340846955364 0.000325343398207976 0.000102120472979662 0.000306348229525414 0.000282666410899877 0.000298106514629909 0.00014746186294363 0.000301920526300062 0.000252389207751342 0.000229993718813169 0.000305806453861557 0.000220618076233676
"154" 0.000141800573081349 0.000114616655779185 -8.61862310085691e-05 0.000123998994947845 0.000130808216465041 0.000338172464282797 0.0001095412290004 0.000312217232423779 0.000282150967940019 0.000301493410882579 0.000146768411383651 0.00031334080339175 0.000253185614274087 0.000226813420230979 0.000300481230084123 0.000222417967988537
"155" 0.000153839694509188 0.000120000101500992 -8.263835518574e-05 0.000135853340760374 0.000130547660893687 0.000350800596553262 0.000117358690023314 0.000318211100125353 0.000281060730676106 0.00030478801401717 0.000146161107660977 0.000324767955812462 0.000254549752234783 0.000223219807765408 0.00029471434017559 0.000224295655402229
"156" 0.000166057647854142 0.000125756861511776 -7.83351727181213e-05 0.000148520565697025 0.000130586924457273 0.000363170439243727 0.000125555870614372 0.000324299271143083 0.000279406412195063 0.000307964899301511 0.000145649260487702 0.000336155391514427 0.000256496959075372 0.000219230957996493 0.000288563599505745 0.000226264924047304
"157" 0.000178383267498853 0.000131873164172742 -7.33108465107376e-05 0.000161929639849933 0.000130951176614855 0.000375213811405819 0.000134128110294834 0.000330452264208096 0.000277209781189639 0.000311010002945898 0.000145246107231701 0.000347453867572565 0.000259037237875897 0.000214868122012088 0.000282095332886824 0.000228338415869803
"158" 0.000190742675913063 0.000138325873900597 -6.75937775223354e-05 0.000175994505542313 0.000131656690197552 0.000386869170701845 0.000143045152080578 0.000336633638642943 0.000274486683152966 0.000313900462173989 0.000144951634611899 0.000358612012936888 0.000262166097128965 0.000210159654650389 0.000275376193948176 0.000230519799814322
"159" 0.000203052795123724 0.000145092798754037 -6.12217840330764e-05 0.000190633958696971 0.000132723221417528 0.000398077637564552 0.000152283258084632 0.000342809620423241 0.000271261351809207 0.000316616161617754 0.00014477733085363 0.000369583305185408 0.000265879593329329 0.000205131114557902 0.000268472567710321 0.000232821140596108
"160" 0.000215233232648009 0.000152141223511594 -5.42326603783616e-05 0.000205750351884785 0.000134159261151604 0.000408769294141282 0.00016180038245656 0.00034893782690592 0.000267554295063 0.000319133637506573 0.000144718213956274 0.000380306494761535 0.000270155052394725 0.000199809324159534 0.00026144828637427 0.000235239372758823
"161" 0.000227202408674429 0.000159437230914786 -4.66690183012901e-05 0.000221242047678932 0.000135973442923198 0.000418882675566441 0.000171563425079846 0.000354977018681081 0.00026339813812636 0.000321436099016423 0.000144772247397861 0.000390737643077715 0.00027497166261941 0.00019422497625363 0.000254373933905915 0.000237777278085787
"162" 0.000238871403912297 0.000166943733654347 -3.8575467979815e-05 0.000237005152656153 0.000138169491737112 0.000428358187191208 0.00018152321028709 0.00036089034576096 0.000258820359327363 0.000323505363817873 0.000144937164078136 0.000400820967972603 0.000280294501006474 0.000188413463788594 0.000247310180863324 0.00024043344196041
"163" 0.000250162395481448 0.000174620931066917 -2.99986257982792e-05 0.00025293219412702 0.000140743122595092 0.000437137884634934 0.000191636168981994 0.000366632538515297 0.000253856653948099 0.000325322308918032 0.00014520772079993 0.00041050842469495 0.000286084434673432 0.000182408673314191 0.000240325694903155 0.00024320128683859
"164" 0.0002609867110434 0.000182424189195521 -2.09870540215756e-05 0.000268910061656441 0.000143695844373925 0.000445164592060438 0.00020184269940985 0.000372160503491491 0.000248539869508846 0.000326871971698973 0.000145570808775948 0.000419751824990756 0.000292291638008287 0.000176243851796126 0.000233478937128478 0.00024607166794931
"165" 0.0002712690511104 0.000190307481784132 -1.15941612599052e-05 0.000284822228811936 0.000147016071280502 0.000452385493269999 0.000212090881719047 0.000377432346918872 0.000242907819691031 0.000328138164822918 0.000146019272540079 0.000428503364697303 0.000298863838063729 0.000169961807672935 0.00022683324488987 0.000249036385611031
"166" 0.000280928357308712 0.000198221784613088 -1.86418784531442e-06 0.000300555304746336 0.000150688532598995 0.000458748711781486 0.000222312749928687 0.000382399428970581 0.000236993789884291 0.000329104730294878 0.000146533491960475 0.000436714955262134 0.000305737267244659 0.00016358957411252 0.000220437663890715 0.000252079993386474
"167" 0.000289890786430209 0.000206122820404833 8.14173818362389e-06 0.000315999057423858 0.000154699733897348 0.000464210559444911 0.000232458313883549 0.00038702852521196 0.00023084564897999 0.000329764026713374 0.000147103179205203 0.00044434926144205 0.000312854071249967 0.000157173780256851 0.000214350565127413 0.000255189166656498
"168" 0.000298084947855189 0.000213954934951432 1.83690276143335e-05 0.000331038392107615 0.000159031326960144 0.00046872525276251 0.000242458626759885 0.000391270520775263 0.000224498273922324 0.000330100115853112 0.000147708848115956 0.000451361712722295 0.000320138049470521 0.000150749865512988 0.000208614834997434 0.000258345592293621
"169" 0.000305448719185976 0.000221672863303603 2.8769427437153e-05 0.000345563894776004 0.000163656971587688 0.000472259124234818 0.000252247460534564 0.000395091835863937 0.00021798951138866 0.000330106913951229 0.000148330948655305 0.000457720648567397 0.000327515232306232 0.00014435137236882 0.000203274205658674 0.000261528476081718
"170" 0.000311921498084605 0.000229224332935146 3.92885664470604e-05 0.000359472449326594 0.000168556356718152 0.000474778422637006 0.000261765065226665 0.000398452103570644 0.000211360509631549 0.000329770341039586 0.000148945430648851 0.000463385815085981 0.000334911896664376 0.000138014723632911 0.000198364879318161 0.000264718091731347
"171" 0.000317450774505789 0.000236562777159766 4.98664472475221e-05 0.000372661812692839 0.000173695331896077 0.00047625512647399 0.000270950135417129 0.000401316807384159 0.000204653878767001 0.000329089988550613 0.000149535982287225 0.000468333915222609 0.00034224674067471 0.000131776068473902 0.000193915977641068 0.000267890918642893
"172" 0.000321990723667444 0.000243639346225933 6.04520451828415e-05 0.000385038612960396 0.000179045392235414 0.000476668511466278 0.000279734828404974 0.00040365745968078 0.000197906910914347 0.000328055844422157 0.000150077276367995 0.000472537581256506 0.000349443400538711 0.0001256675314619 0.000189954505944853 0.000271024483996325
"173" 0.00032550529575925 0.000250410662884689 7.09948739398413e-05 0.00039651881271679 0.000184574297067639 0.000476001752625074 0.000288065865691691 0.00040544035669563 0.000191152074578585 0.000326666777300409 0.000150544739183561 0.000475972869459136 0.000356416442790623 0.000119720627510883 0.000186495871299579 0.000274093131039851
"174" 0.000327961358502084 0.000256836667819353 8.14362228937333e-05 0.000407019900972177 0.000190247959633132 0.000474243123719436 0.000295884000122146 0.000406645819770091 0.000184429187973063 0.000324919154746693 0.000150916457714256 0.000478625726834465 0.00036309028993713 0.000113962545014218 0.00018355397280491 0.000277070398121245
"175" 0.000329335822196867 0.000262873467373264 9.17262632353929e-05 0.000416471059634845 0.000196028227600826 0.000471386471972126 0.000303133536517921 0.00040724579120238 0.000177769299540248 0.000322809966715672 0.000151164494838928 0.000480477547973806 0.000369382612656157 0.000108420644551198 0.000181129843627779 0.000279929300395277
"176" 0.000329619092284051 0.000268491209290625 0.000101818040643388 0.000424815693657943 0.000201880781566364 0.000467436435500537 0.000309769357072974 0.000407226624787479 0.00017120324403662 0.000320340869742798 0.000151264877551322 0.00048152244555819 0.000375220782009318 0.000103116737533653 0.000179224683395792 0.000282647363904512
"177" 0.000328805487556283 0.000273653702813535 0.00011165977486268 0.000432000489732828 0.000207764187936681 0.000462399670997079 0.000315739107480688 0.000406575397248366 0.000164755831068046 0.000317509498965374 0.000151192524704554 0.00048175402605809 0.000380527962489909 9.80702440860843e-05 0.00017782662923712 0.000285197102493448
"178" 0.000326895540909104 0.000278335309022422 0.000121203712503222 0.000437987688365946 0.00021364258827622 0.00045628623713906 0.000321009230830759 0.000405278889093654 0.0001584528466486 0.000314318906669416 0.00015092194105608 0.000481171107991131 0.000385237161422872 9.32987581209351e-05 0.000176922411598185 0.000287551185323778
"179" 0.000323903352881522 0.00028251675867083 0.000130406927759338 0.000442747632341838 0.000219478623049589 0.000449119530666586 0.000325539948146381 0.000403336357427133 0.000152316301871041 0.000310774051490772 0.000150432441418662 0.000479778287313323 0.000389289152165858 8.88160377884632e-05 0.000176488530028665 0.000289689071405185
"180" 0.000319851400986874 0.000286176743660086 0.00013922338091591 0.000446263226533295 0.000225236290071663 0.000440919946860219 0.000329302586715865 0.000400747345993491 0.000146360088353864 0.000306871430963304 0.000149697221428316 0.000477581275572833 0.000392619017499787 8.46269043859738e-05 0.000176497122047668 0.00029158482233872
"181" 0.000314767839082177 0.000289304249496722 0.000147612900519177 0.000448529830039772 0.000230872565877919 0.00043172133133875 0.000332272914004831 0.000397516040469917 0.000140601251182743 0.000302620195453247 0.000148694765211631 0.000474595052778014 0.000395177745591788 8.07414122817726e-05 0.000176914950436163 0.000293219524800228
"182" 0.000308690599466544 0.000291893556286409 0.000155536786538942 0.000449555715959144 0.000236354499267496 0.0004215595531075 0.00033443499142341 0.000393651530341781 0.000135044038267022 0.000298022303765518 0.000147402344507306 0.000470831130760844 0.000396919450522632 7.71578076261187e-05 0.00017770105123534 0.000294570536074157
"183" 0.000301662984498764 0.000293942171374967 0.000162960345372711 0.000449354908739658 0.000241651528758292 0.000410473685401054 0.00033577033903198 0.000389167692519279 0.000129695781869627 0.000293081583526305 0.000145801693028922 0.000466309720904014 0.00039780841716782 7.387270230467e-05 0.000178814061943159 0.000295621127676695
"184" 0.000293743338707321 0.000295453335013723 0.000169848905892023 0.000447959829790756 0.0002467221632331 0.000398513641731848 0.000336276975410302 0.0003840815878807 0.000124557723294871 0.00028780411784407 0.000143871596852374 0.000461055225907025 0.000397812543716382 7.08803206733237e-05 0.000180202504255533 0.000296355798669737
"185" 0.000284985482614581 0.000296439061158881 0.000176174213289689 0.000445409348199319 0.000251544453153066 0.000385730269148196 0.00033595762330539 0.000378418140927037 0.000119631329850091 0.000282196019608453 0.000141601236094818 0.000455095771312166 0.000396913444193099 6.81731648647592e-05 0.000181820119805307 0.000296763222901985
"186" 0.000275458720466832 0.000296912060668714 0.000181905236810876 0.000441755405177302 0.000256084210069863 0.000372178652071087 0.000334813240939783 0.000372200796240621 0.000114903962494832 0.000276264031449287 0.000138969532618879 0.000448458549030415 0.000395092925094691 6.57378488218945e-05 0.000183607027653732 0.000296830801058117
"187" 0.00026523408455095 0.00029689241960818 0.000187022994733867 0.00043706047643724 0.00026031901546789 0.000357918003947806 0.000332859246508061 0.000365462762650831 0.000110369659721986 0.00027001265071506 0.000135966866508166 0.000441178731655079 0.000392353110778151 6.35574890242059e-05 0.000185507901011856 0.000296550489518045
"188" 0.000254390021186304 0.000296404524658225 0.000191509267262208 0.000431391926443019 0.000264222230786398 0.000343012693409609 0.000330111621457902 0.000358239488506092 0.000106013218217038 0.000263450146706549 0.000132581524696176 0.000433290962330763 0.000388694456425671 6.16067569216616e-05 0.000187466833951797 0.000295919526986266
"189" 0.000243005068460515 0.000295480780510983 0.00019534494299216 0.000424828803817597 0.000267778418388454 0.000327534297837589 0.000326596438973004 0.000350566707749841 0.000101821921789635 0.000256586408178549 0.00012880885210989 0.000424836650444794 0.00038413237038364 5.9873111370676e-05 0.000189422876256849 0.000294936622190271
"190" 0.00023116805138956 0.000294151159125378 0.000198516177862719 0.00041745940453725 0.000270967548039737 0.000311546719687627 0.000322340633962025 0.000342486746364636 9.7774995065394e-05 0.000249426309271291 0.000124641215663629 0.000415856051703615 0.000378689661280125 5.83240914237334e-05 0.000191317983920665 0.000293603372936388
"191" 0.000218964508052894 0.000292452418984193 0.000201018850799455 0.000409376779506062 0.000273776325421162 0.000295125282824279 0.000317375477792102 0.00033404195090978 9.38507354735692e-05 0.000241979675686326 0.000120073669465552 0.000406394031187125 0.000372394501519786 5.69378163586924e-05 0.000193094171008407 0.000291922178213683
"192" 0.000206486083093841 0.000290432249619547 0.000202850962580203 0.000400676312777074 0.000276197533666383 0.000278347130904385 0.000311738611964956 0.000325281363805529 9.0030838808315e-05 0.000234260652494298 0.00011511396986143 0.000396498066994691 0.000365287518631519 5.56827013187021e-05 0.000194695832315515 0.000289905564447761
"193" 0.000193820475592251 0.00028812942877138 0.000204008691387599 0.000391465689589516 0.00027822090478715 0.000261285808773251 0.000305474741556329 0.000316252276621229 8.6285148498458e-05 0.000226275990597427 0.00010975926948043 0.000386213619693492 0.000357412576284033 5.45301368060143e-05 0.000196067292390446 0.000287563149758323
"194" 0.000181065815907632 0.000285589389269736 0.000204504405555027 0.000381844496097957 0.000279847440166162 0.000244020352101505 0.000298628061763748 0.000307002859954255 8.25944264409276e-05 0.000218039237083615 0.0001040162079282 0.000375592583637775 0.000348824998089443 5.34514492941578e-05 0.0001971608915154 0.000284908453856492
"195" 0.000168307592160194 0.000282865735083482 0.000204342764038334 0.000371926769869714 0.000281080196127704 0.000226627500869038 0.000291247044430975 0.000297589711269344 7.89332661706001e-05 0.000209569625233042 9.79010587133883e-05 0.000364684732500789 0.000339588391704288 5.24149726507354e-05 0.000197928797186758 0.000281962587273017
"196" 0.000155643091750011 0.000280004563789769 0.000203540274874989 0.000361819612055357 0.000281918254490879 0.000209187539409791 0.000283379453004228 0.000288061460077508 7.52729280047447e-05 0.000200875155003793 9.14192052279606e-05 0.000353543366452417 0.000329761108570147 5.13922889849099e-05 0.000198327800872799 0.000278744648896272
"197" 0.000143156287135837 0.000277058692435087 0.000202119299056517 0.000351632443664039 0.000282376067596679 0.000191777869775611 0.000275083050307477 0.000278474087685998 7.159513018897e-05 0.000191975280862727 8.4591396691164e-05 0.000342223533193361 0.000319422224999727 5.03490742322441e-05 0.00019832029055597 0.000275280072781181
"198" 0.000130932870795354 0.000274078129197202 0.000200100726683822 0.000341468320231062 0.000282466683720157 0.00017447387190595 0.00026641189749518 0.000268881166515177 6.78747400033266e-05 0.000182891478796937 7.74400451142573e-05 0.000330776881759967 0.000308648279352991 4.92583045453742e-05 0.000197875250659097 0.000271595007234361
"199" 0.000119061118663063 0.000271113043090134 0.000197510716942073 0.000331435552233731 0.000282199991525375 0.000157349366948844 0.000257419031361723 0.000259333309733953 6.40905672212387e-05 0.000173640699920409 6.99811306435022e-05 0.000319258542137471 0.000297512825348885 4.80963892444829e-05 0.000196966886906683 0.000267714474948898
"200" 0.000107614644839915 0.000268213924821319 0.000194385107676813 0.0003216333717249 0.000281603399412897 0.000140478339033178 0.000248163229009191 0.000249884163747321 6.02256139167802e-05 0.000164248667378795 6.22467998244419e-05 0.000307720569989144 0.000286106564197323 4.68367704197134e-05 0.000195577186956326 0.00026367441624038
"201" 9.66711838655011e-05 0.000265428628979538 0.000190757574292366 0.000312157726073172 0.000280693192531546 0.00012393428095775 0.000238700224072943 0.000240586294898414 5.62658573609349e-05 0.000154739482606834 5.42669363458857e-05 0.000296221492461013 0.000274512693822491 4.54572013148381e-05 0.000193692174456822 0.000259506508698729
"202" 8.62967201959623e-05 0.000262804023535033 0.000186672344429821 0.000303095113529537 0.000279497563543358 0.000107784783457047 0.000229090042081862 0.000231487157090178 5.21968927924269e-05 0.000145140199708737 4.60701420744038e-05 0.000284811385151495 0.000262815919942715 4.39340768069279e-05 0.000191308044155833 0.00025524358406343
"203" 7.65582314795133e-05 0.000260383123705511 0.000182171788714311 0.000294535002533592 0.000278044855806015 9.20900664233467e-05 0.000219381514059776 0.000222636276138966 4.80110578223345e-05 0.000135476503917567 3.76952613928203e-05 0.000273544214293481 0.000251107065669568 4.22524408735605e-05 0.000188423754815948 0.000250921096842216
"204" 6.75112134885004e-05 0.000258206290630111 0.000177295664223863 0.000286543982234322 0.000276362253922468 7.69112790522158e-05 0.000209636798444668 0.000214080544466338 4.37045017161987e-05 0.00012578308016315 2.91798534238785e-05 0.000262471034796821 0.000239470537089506 4.04012257234707e-05 0.000185049941911113 0.000246575735942165
"205" 5.92055003350996e-05 0.000256312978462656 0.000172098590955826 0.000279194512687918 0.000274484818740948 6.23088216700878e-05 0.00019990013148005 0.000205860361277804 3.92774506762872e-05 0.000116094564586141 2.056710611763e-05 0.000251645257655101 0.000227993319720032 3.83701987385194e-05 0.000181204003066454 0.000242245792544846
"206" 5.1687428125464e-05 0.000254730103566843 0.000166630507048017 0.000272542914964968 0.000272444374171835 4.83310329503161e-05 0.000190227502514382 0.000198016734285986 3.4733805443898e-05 0.000106441696255041 1.18950420688498e-05 0.00024111347672976 0.000216757549768484 3.61533106766262e-05 0.000176907655436543 0.000237963444557788
"207" 4.49896413649062e-05 0.000253492401439011 0.000160942197607784 0.000266634799772341 0.000270274746944936 3.50245692486026e-05 0.000180666050477922 0.00019058840096002 3.00797331437841e-05 9.68653086752114e-05 3.21352843843877e-06 0.000230921267438674 0.000205843246018383 3.37465572542835e-05 0.000172188154254184 0.000233768398884978
"208" 3.91447595978554e-05 0.000252625292657198 0.00015508746337083 0.000261512326087464 0.00026801602611833 2.24316129263117e-05 0.000171264270818499 0.000183610046399772 2.53352560091511e-05 8.74032600832104e-05 -5.42948426750493e-06 0.000221116030985508 0.000195330037214079 3.11603509475688e-05 0.0001670902054276 0.000229694748376643
"209" 3.41718039144747e-05 0.000252143206665461 0.000149120728158314 0.000257199099163726 0.000265696023488788 1.05878586828891e-05 0.000162052056860541 0.000177103958356215 2.05109373175975e-05 7.80940736094312e-05 -1.39897949238314e-05 0.000211737744043404 0.000185287240664892 2.83914667224405e-05 0.000161647975882409 0.000225774528498597
"210" 3.00897380284634e-05 0.000252064856309705 0.000143095812323506 0.000253714927661731 0.000263357927212794 -4.74611849579115e-07 0.000153079721985052 0.000171106819683604 1.56364511878199e-05 6.89827198470876e-05 -2.24130866835283e-05 0.000202829641407216 0.000175780557637721 2.54592504292915e-05 0.000155916830844898 0.000222041348074624
"211" 2.68987026373355e-05 0.000252396084385177 0.000137066577203284 0.000251066891801925 0.000261032059032296 -1.07346880530867e-05 0.000144374389118829 0.000165632441630987 1.07344061795697e-05 6.01087853785672e-05 -3.06540595194892e-05 0.000194425378661732 0.000166873270856502 2.2376588049422e-05 0.000149946632642682 0.000218524462161185
"212" 2.46038511659569e-05 0.000253143697700004 0.000131083630459727 0.000249248732544508 0.000258754129403548 -2.01698393211223e-05 0.000135972031787472 0.000160702054253388 5.84226577725459e-06 5.15174298901539e-05 -3.86560382947368e-05 0.000186560929197599 0.000158618125691146 1.91639845129785e-05 0.000143800305735367 0.000215251994641678
"213" 2.31954236502692e-05 0.000254305661235945 0.000125196175170107 0.000248248717126401 0.000256552379042697 -2.87685835115111e-05 0.00012789190119853 0.000156327361228794 9.93239340745747e-07 4.3250972073409e-05 -4.63753125723715e-05 0.00017926634860636 0.000151061101349203 1.58460168002333e-05 0.000137536457931854 0.000212249502688325
"214" 2.26568033784062e-05 0.000255874640961243 0.000119455464926476 0.000248039732145841 0.000254461895543593 -3.65252551062027e-05 0.000120158774441371 0.000152520303648029 -3.77290218487738e-06 3.53578283156093e-05 -5.37566072965363e-05 0.000172566565207699 0.000144244684142059 1.2450884030651e-05 0.000131225090115449 0.0002095373013879
"215" 2.29661794852328e-05 0.000257841766797305 0.000113905675938809 0.000248590939861454 0.000252508011619533 -4.34363632722868e-05 0.000112790440083473 0.000149282510353011 -8.41250483838171e-06 2.78774813110607e-05 -6.07549524018975e-05 0.000166489452928871 0.000138198725294851 9.01039858572719e-06 0.000124934124635855 0.000207134685663281
"216" 2.40983687715681e-05 0.000260187352932752 0.00010859096099533 0.00024986301280529 0.000250717060029972 -4.95083435957892e-05 0.000105796336403452 0.000146615951737793 -1.28804423494063e-05 2.08536839686569e-05 -6.73219146056451e-05 0.000161050095772317 0.000132945916659008 5.55450318838933e-06 0.00011873021666689 0.000205053799984491
"217" 2.60176550773993e-05 0.000262890818577028 0.000103546935921083 0.000251800102681686 0.000249111947704954 -5.47473342909637e-05 9.91876386036491e-05 0.000144517888380829 -1.71262423813881e-05 1.43314932738501e-05 -7.34096425553417e-05 0.00015627198369599 0.000128502071321503 2.12376009771675e-06 0.000112689987825627 0.000203310384092703
"218" 2.86852334697997e-05 0.000265931114995086 9.88186022813829e-05 0.000254346978395517 0.000247709492690407 -5.91702359112148e-05 9.2966726691936e-05 0.000142982358595014 -2.10986362911495e-05 8.35025109251016e-06 -7.89749547233183e-05 0.000152161792823933 0.000124880136264061 -1.24113172704622e-06 0.000106883191468164 0.000201908642341934
"219" 3.20560645567641e-05 0.000269269536447855 9.44280986107423e-05 0.000257437990640925 0.000246527404765379 -6.27984356010515e-05 8.71301143216087e-05 0.000141992942512824 -2.47486872034975e-05 2.9493707291116e-06 -8.39795667980251e-05 0.000148730942239041 0.000122070799326006 -4.50236458590427e-06 0.000101376901271298 0.000200852207251308
"220" 3.60806975703141e-05 0.000272878644016644 9.04104539907717e-05 0.000261004967590403 0.000245578995343607 -6.5652070547206e-05 8.16751814579184e-05 0.000141538155374009 -2.80204318564982e-05 -1.83195073945474e-06 -8.83843375688284e-05 0.000145984874114503 0.000120070242416373 -7.61643396903902e-06 9.62415031642341e-05 0.00020014122837504
"221" 4.07091243780062e-05 0.000276721125993341 8.67907676531329e-05 0.000264971645682622 0.000244869624532612 -6.77616248976477e-05 7.65931960761545e-05 0.00014160242705412 -3.08639607631343e-05 -5.96136505590722e-06 -9.21537411288973e-05 0.000143924657974224 0.000118861371723919 -1.05417998149961e-05 9.15445431988821e-05 0.000199771285961064
"222" 4.58851892916774e-05 0.000280754023450119 8.35866087432508e-05 0.000269258654488787 0.000244407594313561 -6.91579991444172e-05 7.18713726816505e-05 0.000142158922969017 -3.32254114034007e-05 -9.40037164752654e-06 -9.52543367892198e-05 0.000142550478788405 0.000118417907657774 -1.32337757193607e-05 8.73445171209074e-05 0.000199732807649281
"223" 5.15478624194772e-05 0.000284935235325575 8.08211394957129e-05 0.000273784843565913 0.000244187412523188 -6.98749644706343e-05 6.74887351995487e-05 0.000143187903888146 -3.50578240857239e-05 -1.21277179211492e-05 -9.76625131295941e-05 0.000141855307450814 0.000118710352331835 -1.56530355631861e-05 8.37009669313591e-05 0.000200014280942719
"224" 5.76423691393267e-05 0.000289221447591227 7.84993457456503e-05 0.000278466087100814 0.00024421032066231 -6.99546665632006e-05 6.34299191329206e-05 0.000144660298400432 -3.63125485424872e-05 -1.41108858428419e-05 -9.93558535956536e-05 0.000141829880090257 0.000119695506483576 -1.77578035368002e-05 8.06633150466474e-05 0.000200598795324501
"225" 6.41014104091427e-05 0.000293565912028049 7.66360502828736e-05 0.000283223288361404 0.000244465770457486 -6.94321793858045e-05 5.96712585833775e-05 0.000146550678457183 -3.69409977358346e-05 -1.53309439352411e-05 -0.000100311975494505 0.000142462852739235 0.000121335978059413 -1.95094728694539e-05 7.82779210994198e-05 0.000201468141149881
"226" 7.08712312774248e-05 0.000297920708608027 7.52342168401411e-05 0.000287967470608019 0.00024494401759162 -6.83484200512621e-05 5.61908146323976e-05 0.000148826888315453 -3.69007905959311e-05 -1.57671637647911e-05 -0.00010051717192663 0.000143740339588939 0.000123577139419863 -2.08738466370001e-05 7.65871032062453e-05 0.000202599420699773
"227" 7.78836052710083e-05 0.000302236885026735 7.42985276915297e-05 0.000292619140842801 0.000245628119103275 -6.67525211333197e-05 5.29608682059056e-05 0.00015145509351681 -3.61586569029145e-05 -1.54111299286743e-05 -9.99646400839672e-05 0.000145642491941528 0.000126364059286386 -2.18159651309924e-05 7.56174728656426e-05 0.000203965147344228
"228" 8.50824580301499e-05 0.000306469668095583 7.38241354085209e-05 0.000297103510291335 0.000246500239014841 -6.46837631824545e-05 4.99523987486542e-05 0.00015440605338084 -3.46801547108448e-05 -1.42464946609153e-05 -9.86478321569893e-05 0.000148149172744382 0.000129637685292412 -2.2305219825197e-05 7.53965901098693e-05 0.00020553926880573
"229" 9.24067945179433e-05 0.000310571464835313 7.38143298381434e-05 0.000301342114085551 0.000247536009771429 -6.21855789938288e-05 4.71362831146919e-05 0.000157644300894598 -3.24378034921661e-05 -1.22722613273321e-05 -9.65704522427287e-05 0.000151237823657764 0.000133333772351903 -2.23185333567072e-05 7.593648816934e-05 0.000207287684528555
"230" 9.98015624903623e-05 0.000314495724091921 7.42538008939973e-05 0.000305266375776655 0.000248708850877301 -5.93046987699522e-05 4.44826173404722e-05 0.000161138041911955 -2.94093218839765e-05 -9.48876682065556e-06 -9.3733994831203e-05 0.000154880760002863 0.000137387961508638 -2.18352470682851e-05 7.72438397255348e-05 0.00020917999334972
"231" 0.000107215356670993 0.000318199588531482 7.51346408999691e-05 0.000308810320856712 0.000249992877360173 -5.60813532384313e-05 4.19666045214821e-05 0.000164854070501701 -2.55758850256395e-05 -5.89924269533964e-06 -9.01495094248357e-05 0.000159051285778984 0.000141732875691929 -2.08393383797219e-05 7.93200713782145e-05 0.000211180220603834
"232" 0.000114597444845259 0.000321644196377445 7.64481796452164e-05 0.00031191676396054 0.000251357946733815 -5.25563524794943e-05 3.9556242587817e-05 0.00016876011485186 -2.09345635284019e-05 -1.51245064098695e-06 -8.58330997366445e-05 0.000163720406079381 0.00014629688613187 -1.9318482137619e-05 8.21526140808068e-05 0.000213253070437642
"233" 0.000121897070115897 0.000324784783434417 7.81789506035434e-05 0.000314534826573097 0.000252765459251372 -4.8773377519365e-05 3.72196350792398e-05 0.000172820405164497 -1.5481224764074e-05 3.64986789630389e-06 -8.08059163501727e-05 0.000168853217411363 0.000151011031925358 -1.72657168701749e-05 8.57184064337309e-05 0.00021536081162023
"234" 0.000129079733731571 0.000327591659236587 8.03096705362682e-05 0.000316623124969185 0.000254182402421373 -4.47650880061485e-05 3.49366458962547e-05 0.000177011883958958 -9.2197131003447e-06 9.57482157053185e-06 -7.5092369814448e-05 0.000174421012753758 0.000155809271764974 -1.46859723491124e-05 8.99918588448202e-05 0.000217466382583414
"235" 0.00013610371418183 0.000330030771818593 8.28237146887033e-05 0.000318145346459017 0.000255572849665582 -4.05736493579819e-05 3.26790802423967e-05 0.00018129894655109 -2.16683321132265e-06 1.6229259787501e-05 -6.87220096275285e-05 0.000180385277128433 0.000160621553839608 -1.15835546447745e-05 9.49333036318736e-05 0.000219531232571122
"236" 0.000142940444670035 0.000332074930948756 8.57009897267681e-05 0.000319073736178687 0.000256893846648305 -3.62277172474253e-05 3.04198480751263e-05 0.000185656348650434 5.6564263575794e-06 2.35868181367866e-05 -6.17289908811129e-05 0.000186713632452756 0.000165379523365204 -7.96963355267962e-06 0.000100499613868389 0.000221517296938965
"237" 0.000149561464880805 0.000333700223744639 8.8920179734031e-05 0.000319392065152276 0.00025811028522726 -3.17621534979711e-05 2.81398952627464e-05 0.00019005962397002 1.42208008183038e-05 3.16086867373074e-05 -5.41556765082141e-05 0.000193365588446712 0.000170019597469663 -3.86208858817946e-06 0.000106634912614619 0.000223386562406929
"238" 0.00015594803566055 0.000334888073173814 9.24608487904724e-05 0.000319090615843876 0.000259182285178871 -2.71976206435028e-05 2.58206220578084e-05 0.000194484420094898 2.34916835847359e-05 4.02572179907693e-05 -4.60392649075455e-05 0.00020030651047507 0.000174484348099617 7.18619098807926e-07 0.000113279405339151 0.000225103570733421
"239" 0.000162084995183518 0.000335625867255049 9.63035164749612e-05 0.000318175139468429 0.000260072314236733 -2.25611774532154e-05 2.34477918509301e-05 0.000198913729194158 3.34248740995931e-05 4.94814310417088e-05 -3.74284862758589e-05 0.000207501665423217 0.000178717756822863 5.73759733697216e-06 0.000120369687397873 0.000226632589663029
"240" 0.000167964850811454 0.00033590302975378 0.000100418717109618 0.00031665103839377 0.000260735573520056 -1.78768946203449e-05 2.10046944179664e-05 0.000203324514455356 4.39627858500638e-05 5.92319394456113e-05 -2.83756465110674e-05 0.000214906975858708 0.000182661496616097 1.11659393713434e-05 0.00012782998616869 0.000227940201845733
"241" 0.000173584984622597 0.000335718132889447 0.000104785683181069 0.000314539501647815 0.000261140851282151 -1.3154300774561e-05 1.84813019898777e-05 0.00020770656961459 5.50520784871757e-05 6.94561041992434e-05 -1.89308624765908e-05 0.000222487690703381 0.000186272474804702 1.69621477713081e-05 0.000135585443287877 0.000228993723268925
"242" 0.000178948941013732 0.000335074017806199 0.000109377847112458 0.000311869851406973 0.000261249053500033 -8.4122329803162e-06 1.58737466274025e-05 0.000212045564252379 6.66274029158739e-05 8.00944694583181e-05 -9.14978828064002e-06 0.000230207003845918 0.00018950794654386 2.30871479753129e-05 0.000143555690249281 0.000229764005694446
"243" 0.000184064132040333 0.00033397449538339 0.000114176323980111 0.000308675622545218 0.000261026844926854 -3.65733543961779e-06 1.31720998727431e-05 0.000216330264852049 7.86101861362715e-05 9.10810138683051e-05 9.05397856709581e-07 0.000238024046856603 0.000192328928428618 2.9486710580413e-05 0.000151654217025556 0.000230222314189983
"244" 0.000188948528738015 0.000332431500160865 0.000119149825410094 0.000304999737144354 0.000260441356457926 1.10211961898437e-06 1.03802836013272e-05 0.00022055702192482 9.09273413607362e-05 0.000102353564844313 1.1178332811221e-05 0.000245902233687514 0.00019470656037009 3.611963613624e-05 0.000159798868820467 0.000230346093058204
"245" 0.00019362013113937 0.000330466380825542 0.000124277723866972 0.000300897579854269 0.000259464112668086 5.86642609537791e-06 7.49761232632769e-06 0.00022472143585197 0.00010349609699044 0.000113842108378187 2.16080393004247e-05 0.000253809517201405 0.000196616443215377 4.29253921794255e-05 0.000167902727250796 0.000230110944758386
"246" 0.0001981063417949 0.0003280975017623 0.000129535926822812 0.000296425775356177 0.000258074043006487 1.06360445975451e-05 4.52853631175627e-06 0.000228822240688318 0.000116227892343357 0.000125471885585506 3.21283594373906e-05 0.000261705179111199 0.000198039012845823 4.98506621808448e-05 0.000175878217881002 0.000229500268745747
"247" 0.000202433051355401 0.000325357416408784 0.000134900762658033 0.000291647279485787 0.000256247103492016 1.54124477950505e-05 1.48660468610574e-06 0.000232868322296783 0.000129028768579633 0.000137174016326335 4.26807730719376e-05 0.0002695567740095 0.000198963979716334 5.68359895077622e-05 0.000183640514640219 0.000228498495799841
"248" 0.00020664024003016 0.000322270015984774 0.0001403519135631 0.000286631724558691 0.000253965298273462 2.02049652313745e-05 -1.62336154533444e-06 0.0002368555397497 0.00014180759038324 0.000148870579748067 5.31966992715222e-05 0.000277329837144026 0.000199382951818964 6.3821707919439e-05 0.000191106722879595 0.000227092407356212
"249" 0.000210761281176714 0.000318875516169813 0.000145864321537066 0.000281450132646261 0.00025121560473943 2.50232091137453e-05 -4.78957358763968e-06 0.000240795960931078 0.000154462580407131 0.000160485733220534 6.36141764042929e-05 0.000284990560214179 0.00019929664159821 7.07489830118148e-05 0.000198196294102766 0.00022527424966259
"250" 0.000214837949001925 0.000315210964689592 0.000151420037726695 0.000276182813442818 0.000247992694251851 2.9881025598757e-05 -7.98852306228922e-06 0.000244700759347826 0.000166901849064089 0.000171943620205013 7.38723937690006e-05 0.000292510281334564 0.000198713677543852 7.75554211860022e-05 0.000204831636752585 0.000223039400757766
"251" 0.000218913486331815 0.000311320316332596 0.000157002840333351 0.000270906499610432 0.00024429090304715 3.47912527872794e-05 -1.12082995898361e-05 0.000248580163083839 0.000179022769322932 0.000183170567893482 8.39111291189556e-05 0.000299856985690679 0.000197646035643028 8.41814736491426e-05 0.000210941883606733 0.000220385148241174
"252" 0.00022303315259593 0.00030724776561207 0.000162592143239053 0.00026570085608242 0.000240114879381232 3.97715317223758e-05 -1.44306435153694e-05 0.000252451934824129 0.000190725502560346 0.000194084743306222 9.36667644939546e-05 0.000307002959105347 0.000196108947522335 9.05654623976391e-05 0.000216459521868156 0.000217315821239444
"253" 0.000227242759202175 0.000303038439854645 0.000168178618487057 0.000260648708201093 0.000235473223144869 4.48408189367493e-05 -1.76286972025314e-05 0.000256328712785433 0.000201914953287617 0.000204614748079226 0.00010308335886538 0.000313920237306982 0.000194131149954835 9.66506731466659e-05 0.000221323956031743 0.000213836784045435
"254" 0.000231588699003136 0.0002987484784041 0.000173749567608096 0.000255832629130165 0.000230383719578591 5.00212282727663e-05 -2.07761632519687e-05 0.000260233996247024 0.000212498507744209 0.000214690239352776 0.000112111567771545 0.000320587458258468 0.000191740859863953 0.000102383017308239 0.000225483137396854 0.000209959444443408
"255" 0.000236116943471863 0.000294420145038857 0.000179292838054162 0.000251329213396818 0.000224857497588366 5.53294523695017e-05 -2.38564038613258e-05 0.000264183439221032 0.000222381265784239 0.000224238364607567 0.000120693335086691 0.000326976674539537 0.000188969634609019 0.000107703095517732 0.000228886371346042 0.000205694952230957
"256" 0.000240874074632834 0.000290110902602335 0.000184806603279588 0.000247216477097306 0.000218927024825775 6.07895109834761e-05 -2.68389547239593e-05 0.000268198490802943 0.000231474896403242 0.000233193326853708 0.000128783196685536 0.000333069872904861 0.000185856757342611 0.000112563849817164 0.000231494675809354 0.000201060154987187
"257" 0.000245901158862328 0.000285868612245131 0.000190279661300396 0.000243570062981556 0.000212620754957136 6.64200935771865e-05 -2.96987109787352e-05 0.000272300728592304 0.000239696803434441 0.000241488368306726 0.000136336933404296 0.000338844382118017 0.000182445351364492 0.000116915889959345 0.00023327924092938 0.000196074949158953
"258" 0.000251243161219055 0.000281746660977833 0.000195718440460401 0.000240459730961758 0.000205978206275117 7.22442361524721e-05 -3.24039802025528e-05 0.00027651437943616 0.000246972007130749 0.000249067676983575 0.000143315794420175 0.000344283618321893 0.000178780069780248 0.000120717259512118 0.000234216171715748 0.000190763923379881
"259" 0.000256936947549449 0.00027779564691164 0.000201124321723683 0.000237952487643204 0.000199037508205487 7.82837476410669e-05 -3.49342027506006e-05 0.000280857883176976 0.00025322708948203 0.000255870437627012 0.000149681897786241 0.000349371536984141 0.000174908973842907 0.000123924027025327 0.000234288652251237 0.000185152543201936
"260" 0.000263014183495138 0.000274060164522154 0.00020649949871057 0.000236107997717339 0.00019184690133232 8.45573527553379e-05 -3.72579712674801e-05 0.000285355359838552 0.000258396258748853 0.000261848579929728 0.000155401598945634 0.000354094657042132 0.000170879479908398 0.000126504835362124 0.000233487814181512 0.000179265292510098
"261" 0.000269508746281652 0.000270589737146179 0.000211853246570814 0.000234980493518653 0.000184461431472862 9.10799722058124e-05 -3.93437748295938e-05 0.000290027703501489 0.000262430238201459 0.000266959166510679 0.000160454612656172 0.000358437780126927 0.00016675052723179 0.000128427425442223 0.000231819949669191 0.000173137121505569
"262" 0.000276444321124012 0.000267425855711713 0.000217196730480411 0.00023461674722452 0.000176927972996949 9.78698269675713e-05 -4.11742970680284e-05 0.000294894700710362 0.000265271674998168 0.000271157985095244 0.000164815211373953 0.000362391275308287 0.000162570168294049 0.00012966138329313 0.00022929037972058 0.00016679653104794
"263" 0.000283837707130091 0.000264612401388816 0.000222538041889678 0.000235056571821329 0.00016931525459811 0.00010493912784024 -4.27201868966123e-05 0.000299974957620881 0.000266888411247016 0.000274410666060521 0.000168468193758723 0.000365943761778931 0.000158391549509626 0.000130194288342604 0.000225919445980158 0.000160277824821872
"264" 0.000291705617537287 0.000262185100713941 0.0002279003547468 0.000236333299333724 0.000161675858723714 0.000112297042429679 -4.39572549002546e-05 0.000305286117839574 0.00026724481363422 0.000276685020876006 0.000171397928229325 0.000369087480653368 0.000154268996305208 0.000130004273143588 0.000221727946148874 0.00015361693729305
"265" 0.00030005376523794 0.000260174432008075 0.000233294439555265 0.000238471207679735 0.000154079884290708 0.000119951815005315 -4.4860644604694e-05 0.000310840776715688 0.000266321187337881 0.00027796384117755 0.000173604205977473 0.000371816486186153 0.00015025327283161 0.000129080470008808 0.000216749327154292 0.000146846253881049
"266" 0.00030888143434401 0.000258611139553458 0.000238739152393482 0.000241481149931846 0.000146588891711726 0.000127906954353057 -4.54170123189409e-05 0.000316653951183292 0.000264103159602201 0.000278223122425663 0.000175079284467989 0.000374122846024706 0.000146394401927603 0.000127422626866221 0.00021102187517945 0.000140002273543178
"267" 0.000318183813376231 0.000257521875900126 0.00024425883363843 0.00024537609159422 0.000139275320793517 0.000136163050360233 -4.55996367877054e-05 0.000322735716981208 0.000260595971076667 0.00027746000600238 0.00017583253715164 0.000376005342939253 0.000142744141557343 0.000125026713773752 0.000204591387115564 0.000133119961122587
"268" 0.000327944183142807 0.000256918043039423 0.000249867870639016 0.000250147957406842 0.000132196095893186 0.000144712017498233 -4.53989000492107e-05 0.000329091162784542 0.000255798986647215 0.000275663909716267 0.000175865201580385 0.000377457936750648 0.000139344655313928 0.000121902744449973 0.000197508762618448 0.00012623352192683
"269" 0.000338138707123505 0.000256816105608758 0.000255589126524023 0.00025578540670081 0.000125424513860891 0.00015354992154432 -4.480564050456e-05 0.000335722470041793 0.000249730908780312 0.000272836383292982 0.000175191832646921 0.00037847611426113 0.000136236115209002 0.00011805546928587 0.000189827600228369 0.000119374643596667
"270" 0.000348743225288741 0.00025722487337221 0.000261444111321672 0.000262267276187459 0.000119019120098174 0.000162660835463279 -4.3806013776885e-05 0.000342631149780931 0.000242416942052092 0.000268981843893284 0.000173827772664163 0.00037906022059689 0.000133457159141101 0.000113503946319287 0.000181608710933018 0.000112576003088934
"271" 0.000359712853900483 0.00025814418315617 0.000267447778054755 0.000269563245907151 0.000113042101964791 0.000172024465948512 -4.2396205767425e-05 0.000349810178167451 0.000233890192751581 0.000264114901218323 0.000171790117318035 0.000379207126036671 0.000131039554802866 0.00010826896118254 0.00017291488993149 0.00010586587229152
"272" 0.000371012380901055 0.000259570614877512 0.000273621531866978 0.000277635344118106 0.000107554590982911 0.000181623705584373 -4.05748695526606e-05 0.000357257635357642 0.000224198456370401 0.000258255798953417 0.000169108385319816 0.000378918614907053 0.000129016115618947 0.000102378092668838 0.000163813883462851 9.92729183688407e-05
"273" 0.000382579762122266 0.00026149144064019 0.000279983667538354 0.000286434572250045 0.000102601233228914 0.00019142750054721 -3.83507834738402e-05 0.000364950589040317 0.00021338543063505 0.000251419844586672 0.000165799203621639 0.000378187725885858 0.00012740133392718 9.58551668695367e-05 0.000154372055863777 9.28203915730913e-05
"274" 0.00039436205548744 0.000263891221746252 0.000286543470963261 0.000295902759165757 9.82402496086094e-05 0.00020140479972523 -3.5724812108668e-05 0.000372880080245326 0.000201511145832777 0.000243638996408405 0.000161896186448726 0.000377019601313431 0.000126218559612163 8.87374332622281e-05 0.00014465626141087 8.65293214788125e-05
"275" 0.000406294733200405 0.000266748610433946 0.000293310360855307 0.000305979438999916 9.45120663556324e-05 0.000211519423885434 -3.27090097950158e-05 0.000381021622180382 0.000188644717242513 0.000234945591089319 0.000157433770466102 0.000375412339378583 0.000125476409892809 8.10619715471001e-05 0.00013474480241612 8.04198225306249e-05
"276" 0.000418300389868749 0.000270032039417177 0.000300297015044049 0.000316591882414666 9.14475214289234e-05 0.000221728890557433 -2.93202044379874e-05 0.000389350228847139 0.000174851790919255 0.000225372967658274 0.000152437462262508 0.000373364850823897 0.000125175945849966 7.28677897288876e-05 0.000124699623743431 7.45041382057898e-05
"277" 0.000430305903104818 0.000273712700037927 0.000307505518644059 0.000327663710072242 8.90817808764396e-05 0.000231994693449684 -2.55821708650426e-05 0.000397835458356963 0.0001602141373074 0.000214963203864008 0.000146949000178771 0.000370881450316409 0.000125320198956567 6.41976345168377e-05 0.000114596711315449 6.87961118003605e-05
"278" 0.000442229068996107 0.000277746045123876 0.000314934303768042 0.000339110932886475 8.74379637661716e-05 0.00024226403734054 -2.15125075588726e-05 0.000406444102006138 0.000144812631848986 0.000203763107649769 0.000141004290691695 0.000367962020221309 0.000125899192130806 5.51017377020457e-05 0.000104498423057977 6.33036193392628e-05
"279" 0.00045398053425086 0.000282092722120612 0.000322586865608895 0.000350845577063486 8.65295406062614e-05 0.000252486851421691 -1.71476115326579e-05 0.00041513798620823 0.000128728827910733 0.000191816113398044 0.000134635254569712 0.000364605048717077 0.000126898320350004 4.56212813136307e-05 9.44738902417592e-05 5.80299319887713e-05
"280" 0.00046547100493493 0.000286696782983535 0.00033044911314695 0.000362769658739403 8.63552721896382e-05 0.000262607694066965 -1.25199747105493e-05 0.000423870018187827 0.000112052799976086 0.000179170781814657 0.000127881099264657 0.000360813728601429 0.000128291861687069 3.58090151464233e-05 8.45809116132606e-05 5.29727040408086e-05
"281" 0.000476612525134663 0.000291512059410499 0.000338514025063557 0.000374791873186399 8.69235239175768e-05 0.000272572405107216 -7.65789622301994e-06 0.000432604579298307 9.48799981368414e-05 0.00016588643487395 0.000120784401915264 0.000356593223549231 0.000130061318062158 2.57151839253351e-05 7.48798519139039e-05 4.81350785765478e-05
"282" 0.00048730394646328 0.000296475246182178 0.000346757617825829 0.000386809941968373 8.82163449578531e-05 0.000282320084617706 -2.61403952041532e-06 0.000441282845055412 7.73000493334771e-05 0.000152012056687221 0.00011337939482525 0.000351942251694732 0.000132168473973177 1.53890659192494e-05 6.54266035499633e-05 4.35061473533177e-05
"283" 0.000497451561164095 0.000301528908191685 0.000355166976479797 0.000398724717965162 9.02131862215659e-05 0.000291792438725281 2.57355536292444e-06 0.000449856526147356 5.94070074077893e-05 0.000137605686238395 0.000105705717069615 0.000346866955797142 0.000134575870758185 4.88257708415734e-06 5.62657172672391e-05 3.90763155786332e-05
"284" 0.000506960328629337 0.000306607063067895 0.000363713072125573 0.000410433639580258 9.2883851362611e-05 0.000300927733546351 7.85486023655061e-06 0.00045827442503519 4.12967462595053e-05 0.00012272709882811 9.77984676704447e-05 0.000341371751899408 0.00013724267687718 -5.75408124303327e-06 4.7442733813901e-05 3.48324462932651e-05
"285" 0.000515736893233147 0.000311645362327342 0.000372367384522295 0.000421834897698292 9.61938000812853e-05 0.000309665732250269 1.31846176441812e-05 0.000466478012836227 2.30618000895101e-05 0.000107436561436177 8.96970047881881e-05 0.000335461279449004 0.000140120910719894 -1.64733937416806e-05 3.899455063114e-05 3.0761646950141e-05
"286" 0.000523685210948937 0.00031657341455243 0.00038109176711452 0.000432824600846883 0.000100093233692654 0.000317947160168893 1.85078528178471e-05 0.000474408759304821 4.79405554108259e-06 9.179494980162e-05 8.14372379970403e-05 0.000329140383771798 0.00014315868842126 -2.72194307856763e-05 3.09563287249241e-05 2.68424775808787e-05
"287" 0.000530720827887016 0.000321325117854614 0.000389857486735462 0.000443310163637308 0.00010452516786239 0.000325712207650019 2.37734107789401e-05 0.000482009399173614 -1.34147928134551e-05 7.58645843637031e-05 7.30535356776532e-05 0.000322421756756128 0.000146304036549287 -3.79526041992849e-05 2.33486670133486e-05 2.30572389057719e-05
"288" 0.000536753697311512 0.000325831274226983 0.000398611948062731 0.000453192128494713 0.000109430567467234 0.0003329033077238 2.89279583668724e-05 0.000489222086375251 -3.14758268949501e-05 5.97080826475976e-05 6.4579932731379e-05 0.000315311156386306 0.000149497632968616 -4.86258629228419e-05 1.619325862832e-05 1.93807462874851e-05
"289" 0.000541706430235833 0.000330018554857891 0.000407320291101215 0.000462375646000552 0.000114733317879755 0.000339469000088603 3.39138473277068e-05 0.000495989058063002 -4.93072828664707e-05 4.33882345814818e-05 5.60478200953656e-05 0.000307822338559594 0.000152681572205725 -5.91918248865411e-05 9.50268653818266e-06 1.5792130193493e-05
"290" 0.000545502187647792 0.000333825076336073 0.000415930791669052 0.000470781555411527 0.000120361478161069 0.000345354465558224 3.86805564444921e-05 0.000502252117544558 -6.68280162409598e-05 2.6966646724156e-05 4.74889343875432e-05 0.000299964010063141 0.000155797683751141 -6.96159560274495e-05 3.27617993262032e-06 1.22663022654946e-05
"291" 0.000548072270014607 0.000337179326238219 0.000424394940271486 0.000478319025105928 0.000126226527294523 0.000350512631300326 4.31721994106656e-05 0.000507952401420555 -8.3961780275203e-05 1.05077972086895e-05 3.89308301433265e-05 0.000291752512767011 0.000158783563041037 -7.98546214210192e-05 -2.48124788169631e-06 8.7768924094124e-06
"292" 0.000549359063581344 0.000340022488974196 0.00043266018415634 0.000484920110283721 0.000132240185141547 0.000354900514253911 4.73396404917413e-05 0.000513041795602966 -0.000100630664248277 -5.92565055054986e-06 3.04068997884452e-05 0.000283207369339379 0.000161582865800698 -8.98739264386611e-05 -7.77643803120545e-06 5.30182347899968e-06
"293" 0.000549309985055312 0.000342289137126527 0.000440673890361328 0.00049051382583601 0.000138312005499905 0.000358480853584899 5.11334580206897e-05 0.00051746666044011 -0.000116773287216091 -2.22697484098374e-05 2.19373696223868e-05 0.000274344399637721 0.000164136579584226 -9.96440265646018e-05 -1.26265274384199e-05 1.81535162609946e-06
"294" 0.000547882571006276 0.000343923796205877 0.000448381240887164 0.000495037474797086 0.000144340488622318 0.000361216852818144 5.44996979270093e-05 0.000521177983570975 -0.000132323413721393 -3.84679332190098e-05 1.35514676527539e-05 0.000265185804805769 0.000166386083979032 -0.000109131838745513 -1.70524853602412e-05 -1.70654586283917e-06
"295" 0.000545040418336915 0.00034487176276928 0.000455726967165328 0.000498439389868146 0.000150224160820042 0.000363084525372942 5.73983735429486e-05 0.000524136028548547 -0.000147227334322463 -5.44580609860622e-05 5.2691219593415e-06 0.000255755723238485 0.000168275856708207 -0.00011831479826092 -2.1073571758773e-05 -5.2854537838634e-06
"296" 0.00054076840973377 0.000345086051053328 0.000462657030018575 0.00050067660595828 0.000155863024647121 0.000364059070969652 5.97870149474377e-05 0.000526296323824385 -0.000161434462949579 -7.01791620671422e-05 -2.88851710636561e-06 0.000246076993676602 0.000169759211527571 -0.000127169393171142 -2.47277587652202e-05 -8.94265510313115e-06
"297" 0.000535050385468684 0.000344527926412678 0.000469118768606199 0.000501716794873065 0.00016115868330897 0.000364128749872716 6.16320333059904e-05 0.000527631688186957 -0.000174894524496833 -8.55716616857771e-05 -1.08939183762636e-05 0.000236184051126338 0.000170790760488879 -0.000135671176783047 -2.8042170394427e-05 -1.26952098321227e-05
"298" 0.000527887077616452 0.000343154452776477 0.000475057910935722 0.000501526305518829 0.000166001252369027 0.000363284987230687 6.28934412102028e-05 0.000528107740251009 -0.000187573702420681 -0.000100583778932597 -1.87396750212818e-05 0.00022610138497579 0.000171321781876661 -0.00014380856491822 -3.10591503889333e-05 -1.65611156029879e-05
"299" 0.000519288469830798 0.000340936781096354 0.000480425838124151 0.000500098618610503 0.000170298873380646 0.000361524049113502 6.35460901687813e-05 0.000527704463416143 -0.000199437797876846 -0.00011516185061488 -2.64037507937498e-05 0.000215864131937562 0.000171320731537859 -0.000151566940716714 -3.38225255312163e-05 -2.0552379143443e-05
"300" 0.000509279834728615 0.000337854457380164 0.000485166809464453 0.000497419942269299 0.000173946717595819 0.00035885279967616 6.35648651394464e-05 0.000526404104271505 -0.000210457511686817 -0.000129245226981113 -3.38709597241237e-05 0.000205506124759394 0.000170754732732078 -0.000158934483634424 -3.63734982135832e-05 -2.46790426913179e-05
"301" 0.00049789265851939 0.000333885915323992 0.000489241331645453 0.000493494062758738 0.000176854190151329 0.000355285792074648 6.29317164150633e-05 0.000524198444030644 -0.000220610175308027 -0.000142788033098478 -4.11256029867042e-05 0.00019507001361682 0.000169596568918047 -0.000165900046049396 -3.87569976365941e-05 -2.89485522196385e-05
"302" 0.00048517588702949 0.000329025473360808 0.00049259963055964 0.000488335837278384 0.000178928411663411 0.000350841225338464 6.16311597861322e-05 0.000521079768405455 -0.000229881951039593 -0.000155742870682996 -4.81609585515468e-05 0.000184587868416827 0.000167827714773452 -0.000172461172810186 -4.10236511126088e-05 -3.33646529238147e-05
"303" 0.000471181558194677 0.000323272125190525 0.000495205209590603 0.000481963445868865 0.000180091481269941 0.000345544666582188 5.9656155662897e-05 0.000517053775408677 -0.000238260994692914 -0.000168060328209919 -5.49609565173555e-05 0.000174103710994849 0.000165435315123434 -0.000178613231642503 -4.32190401892035e-05 -3.79261001452061e-05
"304" 0.000455982289327167 0.000316627672797353 0.000497023264668826 0.000474406584412818 0.000180265651085558 0.000339430863687275 5.6999132643461e-05 0.000512130261066345 -0.00024574284133223 -0.000179696547287755 -6.15192749249221e-05 0.000163659812452586 0.000162411793620815 -0.000184353769014411 -4.53946335478121e-05 -4.2628908041583e-05
"305" 0.000439652521818423 0.000309108455215662 0.000498018807970517 0.000465705961347646 0.00017938191238019 0.000332541424941772 5.36719988915129e-05 0.000506327888998798 -0.000252322178510356 -0.000190608311772605 -6.78222557350295e-05 0.000153305117567446 0.000158761797502371 -0.000189681337981447 -4.75903970173061e-05 -4.74615407404702e-05
"306" 0.000422281144673789 0.000300735171851533 0.000498168071984153 0.000455905929941296 0.000177379762851063 0.000324919361918898 4.96694829835058e-05 0.000499668789384369 -0.000258009301079907 -0.000200761590137566 -7.38690692188863e-05 0.00014307690099666 0.000154488678102955 -0.000194597550599769 -4.98543629436132e-05 -5.24174643359501e-05
"307" 0.000403963591352198 0.000291534715971951 0.000497444537063667 0.000445063533450155 0.000174212579021832 0.000316619775332988 4.50129324511785e-05 0.000492180904206554 -0.000262806107826302 -0.000210116159369572 -7.96465666003917e-05 0.000133028083833658 0.000149609875340799 -0.000199105040041261 -5.22260699695429e-05 -5.74755569249525e-05
"308" 0.000384805254256351 0.000281545463792576 0.000495838130222467 0.000433235260298476 0.000169836173074928 0.000307694362036783 3.97170669440817e-05 0.000483902842517039 -0.000266729001093534 -0.000218641933057591 -8.51523406210716e-05 0.000123201819258766 0.00014414495481449 -0.000203205798541593 -5.47482511671075e-05 -6.2618908930666e-05
"309" 0.000364918579723558 0.000270809394140325 0.000493330841045062 0.000420493496650466 0.000164225927176346 0.000298211651258211 3.38028418134527e-05 0.000474878381931069 -0.000269790580726391 -0.000226306200117775 -9.03806057715306e-05 0.00011364629690265 0.000138124465302913 -0.000206904574746444 -5.74511707644639e-05 -6.78206775450486e-05
"310" 0.00034441876560489 0.000259373989809684 0.00048992089703123 0.00040690797040725 0.000157360185437166 0.000288230626906735 2.73025952100189e-05 0.0004651534902056 -0.000272008411649771 -0.00023308557959709 -9.53241579940234e-05 0.000104406711202007 0.000131581325500864 -0.000210202471186284 -6.03683549683678e-05 -7.30553867666496e-05
"311" 0.000323429940630741 0.000247293987212191 0.000485607619807835 0.000392553424639461 0.000149234611869694 0.000277822912587371 2.02400702224616e-05 0.000454780607329352 -0.000273405549910044 -0.000238953499673813 -9.99825450492347e-05 9.55308168229224e-05 0.000124556717690772 -0.000213105063747933 -6.35268139498737e-05 -7.82929979261716e-05
"312" 0.000302076121662791 0.000234630183514602 0.000480393310347848 0.000377512468626519 0.000139852108132704 0.000267059356246025 1.26546276267055e-05 0.000443817781566042 -0.000274007401388263 -0.000243894522365275 -0.000104349460641407 8.70619085110179e-05 0.000117095173219038 -0.000215617910327335 -6.69416669376439e-05 -8.34990031701893e-05
"313" 0.000280489752166076 0.000221450443002909 0.000474290590507161 0.000361871098770597 0.000129231117017888 0.000256014301569799 4.58820974388441e-06 0.000432326036764148 -0.000273834434748527 -0.000247889122340696 -0.000108420137338235 7.90458072107009e-05 0.000109251285025982 -0.000217738328393819 -7.06319674167116e-05 -8.86340439093347e-05
"314" 0.000258798316987274 0.00020782488706449 0.000467315603790276 0.000345717036765131 0.000117398892675375 0.000244763917183363 -3.92016586009071e-06 0.00042036974941342 -0.000272916786496691 -0.000250925769658817 -0.000112191789780683 7.15243165449513e-05 0.00010107971072106 -0.000219476275270079 -7.46062538930691e-05 -9.36635400537919e-05
"315" 0.000237134877775101 0.000193822192479744 0.000459489445246577 0.000329131432654489 0.000104391976279871 0.000233380182462953 -1.28257799011087e-05 0.00040801562555856 -0.00027128169865272 -0.000252997305449452 -0.000115661826130445 6.4534531401967e-05 9.26390534372788e-05 -0.000220829613714384 -7.88662714769758e-05 -9.85434347429644e-05
"316" 0.000215625567819696 0.000179524763378713 0.000450840045903598 0.00031220928808037 9.02677723048685e-05 0.000221938577170171 -2.20745817123894e-05 0.000395333765187361 -0.000268956270205882 -0.000254094864276537 -0.00011882577345961 5.8116788016594e-05 8.39970025199502e-05 -0.000221801530328477 -8.34114487345331e-05 -0.000103232512643137
"317" 0.00019439592686834 0.000165011130397072 0.000441396974232048 0.000295038293725438 7.50807386519504e-05 0.00021051382426298 -3.1618750646896e-05 0.000382394162301181 -0.000265970916664037 -0.000254221342158123 -0.00012167692415744 5.23059764587938e-05 7.52214219284621e-05 -0.000222390695960354 -8.82294976639411e-05 -0.000107685287120053
"318" 0.000173572379181262 0.000150358848371375 0.000431197010001223 0.000277704448934341 5.89041306895063e-05 0.000199180781178489 -4.14058340698385e-05 0.000369264909119005 -0.000262353392752114 -0.000253376657888765 -0.000124212999877701 4.7132139008338e-05 6.63800538978073e-05 -0.000222600084561076 -9.33088922103596e-05 -0.000111857393267953
"319" 0.000153269786206607 0.000135651021337903 0.000420273094959754 0.000260295371222812 4.181781036356e-05 0.000188002679557524 -5.13783658168587e-05 0.000356018888022296 -0.000258130960106266 -0.00025156837141193 -0.000126426520017035 4.26235701087612e-05 5.7545542888678e-05 -0.000222422076333486 -9.86218344887552e-05 -0.000115705478705074
"320" 0.000133599637241037 0.000120967470624162 0.000408676505308772 0.000242890681080153 2.39022813114212e-05 0.000177049978833543 -6.14875172130471e-05 0.000342721231695352 -0.000253337532414797 -0.000248806836968339 -0.000128318451634842 3.88032284092319e-05 4.87899814239204e-05 -0.000221862882424976 -0.000104150365623288 -0.00011918352830933
"321" 0.000114666045833816 0.000106390818044226 0.000396447270397017 0.000225575680857902 5.26228219593246e-06 0.000166381773445734 -7.16670701867016e-05 0.000329440586287064 -0.000247993169913751 -0.000245106562750843 -0.000129877019246393 3.56930660092684e-05 4.01889410582921e-05 -0.000220914119034039 -0.000109855370532233 -0.00012224676097035
"322" 9.65639832514936e-05 9.19968421042093e-05 0.000383633314823834 0.000208422986784702 -1.40065246219583e-05 0.00015606004951728 -8.18663934959888e-05 0.000316242376042141 -0.00024212867969969 -0.000240484716611269 -0.000131096878844865 3.33072474572038e-05 3.18137229779308e-05 -0.000219576667229754 -0.000115702422575911 -0.000124854911423273
"323" 7.93788945181289e-05 7.78662276909345e-05 0.000370287818085035 0.00019151005697037 -3.37977050854947e-05 0.00014613501853617 -9.20296397696802e-05 0.000303185962492201 -0.000235768097838265 -0.000234963260440732 -0.000131973892538923 3.16556352128726e-05 2.37375165545161e-05 -0.000217842896174208 -0.000121650966238587 -0.000126963911970396
"324" 6.31892210475405e-05 6.40694529301363e-05 0.000356456130531605 0.00017490278859539 -5.40049653705773e-05 0.000136653953702315 -0.000102097287599359 0.000290326833138591 -0.00022893457199254 -0.000228569657796615 -0.000132499539097288 3.07449960827861e-05 1.60303965103795e-05 -0.000215709661995498 -0.000127652253699231 -0.000128536815549037
"325" 4.80561119479551e-05 5.06774645520815e-05 0.000342190961624671 0.000158663563807818 -7.45097685714467e-05 0.000127659197344118 -0.000112012737641481 0.000277719353554048 -0.000221648520344027 -0.000221328550170609 -0.000132664807022276 3.05774199762155e-05 8.76126394255941e-06 -0.000213171429390922 -0.000133653946246085 -0.000129536354606315
"326" 3.40339872258124e-05 3.77559135142187e-05 0.000327544968552678 0.000142854323955638 -9.52040377469212e-05 0.000119183931966941 -0.000121727138790476 0.000265408171808021 -0.000213934743427586 -0.000213273262502124 -0.000132462208740367 3.11483791731021e-05 1.99699512526758e-06 -0.000210226536933271 -0.000139609649926252 -0.000129929469964865
"327" 2.11679600760617e-05 2.5365434932837e-05 0.00031256969205634 0.000127523563587447 -0.000115969593647742 0.000111258789971716 -0.000131183763737897 0.000253436765013571 -0.000205805595187018 -0.000204437771319069 -0.000131881450964655 3.24489737824104e-05 -4.2009375542177e-06 -0.000206865458528005 -0.000145459457654697 -0.000129684290170951
"328" 9.482877167329e-06 1.35628077940477e-05 0.000297317636478074 0.00011272096917565 -0.000136689934718314 0.000103906363583878 -0.000140333409153278 0.000241841797155792 -0.000197281307974051 -0.000194859662922062 -0.000130915613605528 3.44665192318873e-05 -9.77093640035525e-06 -0.000203084233750483 -0.000151147082143149 -0.000128776709245452
"329" -1.00422510444946e-06 2.39379963646948e-06 0.000281830576048724 9.84825923702049e-05 -0.000157264073903621 9.71414724765214e-05 -0.000149126100178566 0.000230648814221757 -0.000188379339794539 -0.00018458133981817 -0.000129551801227138 3.71816155004609e-05 -1.46633109863516e-05 -0.000198882749113269 -0.000156613744654401 -0.000127185060202106
"330" -1.02907604062249e-05 -8.09521481798716e-06 0.000266162480389919 8.48516429639541e-05 -0.000177576113877023 9.09721759534216e-05 -0.000157515606269331 0.000219881949876315 -0.000179111422842125 -0.000173644502847151 -0.000127783991216033 4.05730352532988e-05 -1.88252907230379e-05 -0.000194251422094587 -0.000161800926292497 -0.000124888231439387
"331" -1.83844768035786e-05 -1.78682339743587e-05 0.000250352603719492 7.18484051031854e-05 -0.000197524164900616 8.54026265859525e-05 -0.000165459656124469 0.000209556731693877 -0.000169488547366667 -0.000162091834791668 -0.000125597724783754 4.46111297140236e-05 -2.22126372057905e-05 -0.00018919360328766 -0.00016664649484065 -0.000121876205971722
"332" -2.53095411323346e-05 -2.68989242432428e-05 0.000234446775399204 5.9501150576546e-05 -0.000217015235462169 8.04232809385099e-05 -0.000172915484886047 0.000199676717087527 -0.000159523619651275 -0.000149973761455039 -0.000122986035182974 4.92620852375263e-05 -2.47912971799595e-05 -0.000183705324872916 -0.000171094949860944 -0.000118141555954284
"333" -3.10976835626818e-05 -3.5163022773392e-05 0.000218487700502149 4.78238429176114e-05 -0.000235950508643418 7.6032685954345e-05 -0.000179850257456031 0.000190248835036326 -0.000149226344161548 -0.000137337750430234 -0.000119935547672778 5.44917839266683e-05 -2.65263440362555e-05 -0.000177784480889034 -0.000175088698966549 -0.000113677460145212
"334" -3.57971366663093e-05 -4.26475370341341e-05 0.000202504762953797 3.68322232955621e-05 -0.000254250873402285 7.22068766313306e-05 -0.000186225802392535 0.000181264760062518 -0.000138603782741838 -0.000124233105658136 -0.000116436810065971 6.02600322443389e-05 -2.73917300350755e-05 -0.000171434981022334 -0.000178572187578635 -0.000108487703815867
"335" -3.94692169351679e-05 -4.93439650323928e-05 0.000186535334134009 2.65305347459002e-05 -0.000271837117331187 6.89251813727641e-05 -0.000192017384741152 0.000172709871359983 -0.000127667175465721 -0.000110711486161195 -0.000112480103011659 6.65198128165336e-05 -2.73655722196872e-05 -0.000164662052594758 -0.00018149216966094 -0.000102579413030996
"336" -4.21744514207607e-05 -5.52551118357933e-05 0.000170609659200656 1.69172336234033e-05 -0.0002886435153675 6.61651728244303e-05 -0.000197191259478109 0.00016456726739932 -0.000116414779954865 -9.68199287319511e-05 -0.000108051725353775 7.32296797163812e-05 -2.64377661733041e-05 -0.000157464933748561 -0.000183795819713663 -9.59650301937003e-05
"337" -4.3996888274699e-05 -6.03868687045907e-05 0.000154752732138218 7.99335977457596e-06 -0.000304613183940365 6.38903420282652e-05 -0.000201724470937199 0.000156811210948554 -0.000104860510022548 -8.26125890135951e-05 -0.00010314458930863 8.03356401058159e-05 -2.45972728435021e-05 -0.000149851041265598 -0.00018544152990105 -8.86593670408658e-05
"338" -4.50255751936196e-05 -6.47630375195393e-05 0.000138989559016189 -2.53898150808446e-07 -0.000319698110193689 6.20635178505646e-05 -0.000205605208452738 0.000149398624320839 -9.30115071304132e-05 -6.81483951841206e-05 -9.77522216990981e-05 8.77812008400151e-05 -2.18547811586514e-05 -0.000141838460967988 -0.000186389075642963 -8.06913225371597e-05
"339" -4.53535677617114e-05 -6.83984878202167e-05 0.000123339642668675 -7.83306314029715e-06 -0.000333860563037064 6.06508607504746e-05 -0.000208811632313124 0.000142300268634697 -8.08685327912115e-05 -5.34704777004891e-05 -9.1860531884576e-05 9.55186817796977e-05 -1.82099749667675e-05 -0.000133429723000187 -0.000186595147446433 -7.20815145080091e-05
"340" -4.50855216236183e-05 -7.13287295008319e-05 0.000107819499120138 -1.47636666649361e-05 -0.000347074290035065 5.9605144556069e-05 -0.000211333538132577 0.00013547041377898 -6.84387472723526e-05 -3.86328105951725e-05 -8.54625076932775e-05 0.000103488161113831 -1.36811370525885e-05 -0.00012464228563431 -0.000186033404815312 -6.28648622472286e-05
"341" -4.43310120507969e-05 -7.35905208369215e-05 9.24435981201212e-05 -2.10663361620242e-05 -0.000359321782436337 5.88854055743946e-05 -0.000213162418126269 0.000128859022227254 -5.57305551051052e-05 -2.36853088560964e-05 -7.85533531791281e-05 0.000111634340292316 -8.28530574603182e-06 -0.000115490109678144 -0.000184673904188094 -5.30782504341609e-05
"342" -4.32040992152427e-05 -7.52284047404267e-05 7.7225647166729e-05 -2.67582496270544e-05 -0.00037059760273574 5.84419706474363e-05 -0.000214295600098663 0.000122412988348186 -4.27543111357358e-05 -8.67849994271242e-06 -7.11266046059801e-05 0.000119895597727836 -2.04942545378252e-06 -0.000106000083410037 -0.000182496644305692 -4.27633922426358e-05
"343" -4.18253302836816e-05 -7.62913317055048e-05 6.2170256274112e-05 -3.1870178416595e-05 -0.00038090943681637 5.82276336078962e-05 -0.000214729727663413 0.000116073672459883 -2.95133655702223e-05 6.33883249713931e-06 -6.31761703761653e-05 0.00012821627775041 4.99161556089361e-06 -9.61856790192135e-05 -0.000179488923277155 -3.19635960443806e-05
"344" -4.03100417886688e-05 -7.68378388662784e-05 4.72864691857285e-05 -3.64296877904848e-05 -0.000390271587536289 5.81980230731319e-05 -0.000214470332751593 0.00010978348234528 -1.60213874133995e-05 2.13226281262567e-05 -5.46980567576574e-05 0.000136535327525397 1.27990252008657e-05 -8.60750075050298e-05 -0.000175640579101254 -2.07287640998293e-05
"345" -3.87847188283381e-05 -7.69287559660316e-05 3.25795543742288e-05 -4.04654668131772e-05 -0.000398710106562871 5.82994727302729e-05 -0.000213519818923612 0.000103477603942865 -2.28884284972203e-06 3.62263718962102e-05 -4.56934930519109e-05 0.000144795117812996 2.13276284878836e-05 -7.56946612210818e-05 -0.000170950107057766 -9.11145958313775e-06
"346" -3.73697508684487e-05 -7.6627717267169e-05 1.80546100155678e-05 -4.40085541370307e-05 -0.000406262226461988 5.84914877940589e-05 -0.000211889412256162 9.70960946993446e-05 1.16721862221058e-05 5.10103759310767e-05 -3.61592993110156e-05 0.000152940921774719 3.05311825712093e-05 -6.50730670004338e-05 -0.0001654205927645 2.83402505153501e-06
