"V1" "V2" "V4" "V5" "V7" "V8" "V10" "V11" "V13" "V14" "V15" "V17" "V18" "V20" "V21" "V23"
"1" -0.000436892686727128 -0.000152043851319848 -0.000111711388585204 -0.00038508750004006 -0.000230825942784919 -0.000267156254654367 -0.000230226159000453 -0.00012853182954302 -0.0002768367068097 -1.74733880634899e-05 -2.65962219702423e-05 -9.41047131657854e-05 -3.7558310703916e-06 -2.56697570336863e-05 -0.000121167568270113 -0.000185463339549448
"2" -0.0004451012417025 -0.000163926860212432 -0.000113057914624284 -0.000389281991994694 -0.000232955349340706 -0.000269943489633243 -0.000235243083389902 -0.000123044701123375 -0.000280884451298904 -1.47339135278124e-05 -2.05597390789662e-05 -9.69234833647307e-05 -4.63325121653131e-06 -3.05881284772326e-05 -0.000124077434174076 -0.000186765861951257
"3" -0.000453755465833182 -0.0001764639183399 -0.000114617418860093 -0.000393647466040072 -0.000234788704400277 -0.000272691432837566 -0.000240976652965675 -0.000117915427287194 -0.000287688358681503 -1.40756616778783e-05 -1.6333481467099e-05 -0.000101212987735072 -6.62013086323236e-06 -3.7440576228538e-05 -0.000127538044396525 -0.000188114663113829
"4" -0.000462813063774469 -0.000189674699312523 -0.00011641735203483 -0.000398160608642798 -0.000236318975926469 -0.000275402242150731 -0.000247415880034241 -0.00011324164381875 -0.000297322107800121 -1.56328177130151e-05 -1.40463302422958e-05 -0.000106981680240381 -9.77829385488317e-06 -4.62867899670684e-05 -0.000131582100955668 -0.000189486814137
"5" -0.000472228571957155 -0.000203569845991333 -0.000118486433779134 -0.000402794371116153 -0.000237538969708318 -0.000278075935119881 -0.000254533075371497 -0.000109113654519964 -0.00030983067737572 -1.95248259596674e-05 -1.37985609490712e-05 -0.000114228629080829 -1.41580210538918e-05 -5.71650635854568e-05 -0.000136231441454148 -0.000190849525808659
"6" -0.000481936674230322 -0.000218149189316695 -0.000120847481325796 -0.000407508349506487 -0.00023844143994765 -0.000280708651639326 -0.000262290943975615 -0.000105622797780808 -0.000325227370668975 -2.58449807266045e-05 -1.5678048671601e-05 -0.000122930472513414 -1.980541661283e-05 -7.00955931088884e-05 -0.000141507357730558 -0.00019217512805916
"7" -0.000491861188430399 -0.00023338747907627 -0.000123516525553709 -0.000412265654548526 -0.000239012557018078 -0.000283296088742815 -0.000270641265744722 -0.0001028458862367 -0.000343483857991879 -3.46703996985422e-05 -1.97407412998443e-05 -0.000133051155290113 -2.67488989158728e-05 -8.50759862273704e-05 -0.00014741905997762 -0.000193431725557861
"8" -0.000501907706280514 -0.000249254453979354 -0.000126509993331301 -0.000417016248195003 -0.000239249910977085 -0.000285832831373026 -0.000279522079769896 -0.000100860380822481 -0.000364545101476692 -4.60419238034685e-05 -2.60227814909657e-05 -0.000144539883668214 -3.5004981145276e-05 -0.000102080854701063 -0.000153963527727842 -0.00019458749686617
"9" -0.000511972211340121 -0.000265693101664071 -0.000129829143832821 -0.000421710907194846 -0.000239143474404832 -0.000288305286182573 -0.000288861439290537 -9.9724786745572e-05 -0.000388315937470896 -5.99895557651773e-05 -3.45284123157956e-05 -0.000157328965345566 -4.45750601581067e-05 -0.00012105968784902 -0.000161134502150292 -0.000195607223045497
"10" -0.000521934593585427 -0.000282640191119193 -0.000133476977042149 -0.000426291002690331 -0.000238676342816983 -0.000290703523307225 -0.000298578507563013 -9.94961661987407e-05 -0.000414668142440241 -7.65032392910091e-05 -4.52424747446515e-05 -0.000171335934635079 -5.54456611485151e-05 -0.000141942369443053 -0.00016891541910809 -0.000196459774147869
"11" -0.000531666287882336 -0.000300010229035522 -0.0001374469287866 -0.000430693862145314 -0.000237839532914871 -0.000293008957868081 -0.000308576825918136 -0.000100210262024062 -0.000443446534269916 -9.55548746687561e-05 -5.8122732689858e-05 -0.000186464480315356 -6.75930678343797e-05 -0.000164637001124718 -0.000177275442197253 -0.000197110348221924
"12" -0.000541020597633306 -0.00031769510568734 -0.000141722531751816 -0.000434855245328815 -0.000236619409507374 -0.000295205161141905 -0.000318754900905318 -0.00010190126051961 -0.000474457868144087 -0.000117089882226459 -7.30941791876787e-05 -0.000202608929981774 -8.09724149558341e-05 -0.000189023672202899 -0.000186176009687281 -0.000197528158637572
"13" -0.000549842551577993 -0.000335582195093766 -0.000146287287697409 -0.00043870600346343 -0.000234997381128595 -0.000297266905032433 -0.000329002837387499 -0.000104583691969877 -0.000507488665431828 -0.000141022736028448 -9.00638278271386e-05 -0.000219643123742313 -9.55245803004339e-05 -0.000214967805110985 -0.000195569248053049 -0.000197674872239083
"14" -0.000557971460964243 -0.000353536372384041 -0.000151109582549079 -0.000442173213629219 -0.000232957403773897 -0.00029916875827576 -0.000339196808295638 -0.000108254966296648 -0.000542294343210934 -0.000167246405319457 -0.000108915883685336 -0.00023743901782364 -0.000111177608922186 -0.000242313044728604 -0.000205399295050421 -0.000197523686024338
"15" -0.000565233128850565 -0.000371409580217798 -0.000156153946910304 -0.00044518218715362 -0.000230473677537442 -0.000300882551598999 -0.000349212811912922 -0.00011290723501186 -0.000578608204741918 -0.000195625195570681 -0.000129501227425895 -0.000255853971075324 -0.000127840196878 -0.000270881867364516 -0.000215591098391535 -0.000197039733395378
"16" -0.000571449902738216 -0.000389043194419154 -0.000161382684356235 -0.000447654649600255 -0.000227526371829066 -0.000302373869898039 -0.000358917583460665 -0.0001185068835933 -0.000616144164800517 -0.000226003751289889 -0.000151662973147545 -0.000274734871670676 -0.000145409484009689 -0.000300478662432907 -0.000226073739400099 -0.000196188917461512
"17" -0.000576434409224094 -0.000406260643159311 -0.000166742925645235 -0.0004495155034834 -0.000224088872602881 -0.000303610518684204 -0.000368173941394211 -0.000125021573129286 -0.000654601065811841 -0.000258207390329979 -0.000175216190640913 -0.000293928584885709 -0.000163765289699757 -0.000330898856228996 -0.000236754857380166 -0.000194941914373236
"18" -0.000580004772799182 -0.000422883105010212 -0.000172179747925329 -0.000450688360393803 -0.000220133987058748 -0.000304551017233833 -0.000376838850681813 -0.000132389582657421 -0.00069365750426179 -0.00029202963355753 -0.000199961949032096 -0.00031326859061929 -0.00018277492701445 -0.000361915936676111 -0.000247539550113092 -0.000193266653353615
"19" -0.000581966356972221 -0.000438720329734967 -0.000177635825055744 -0.000451097148036696 -0.000215632938621989 -0.000305158617484637 -0.000384775219782418 -0.000140546561459314 -0.000732991593172187 -0.000327258474667949 -0.000225683489268208 -0.000332587913113122 -0.000202293591234382 -0.00039329767635384 -0.000258326838329752 -0.000191134865037388
"20" -0.000582135218519018 -0.000453572568341981 -0.000183041828213451 -0.000450668855204654 -0.000210555824610392 -0.000305389979853861 -0.000391835786917238 -0.000149406558930682 -0.00077226539634682 -0.00036366070410988 -0.000252154079447511 -0.000351717733785316 -0.000222166652696297 -0.00042480215270216 -0.000269002724964293 -0.0001885169755159
"21" -0.00058032353239165 -0.000467241550277068 -0.000188330198872115 -0.000449333975377139 -0.000204876300070735 -0.000305202485433791 -0.000397884434243769 -0.000158886583366893 -0.000811136128266905 -0.000400985526431693 -0.000279135626338101 -0.000370487563143168 -0.000242222601995307 -0.000456169916399136 -0.000279451769818061 -0.000185382888802451
"22" -0.000576348993379369 -0.000479521816237933 -0.000193432988593876 -0.000447024389805882 -0.000198556687598488 -0.000304554163034129 -0.000402778452938955 -0.000168877164272538 -0.000849264282530933 -0.000438974669460739 -0.000306382044078713 -0.000388725719519857 -0.000262289375237259 -0.000487148925685232 -0.000289552528785724 -0.000181705791063645
"23" -0.000570034740652011 -0.00049021007473656 -0.000198268750989585 -0.000443682350774858 -0.00019157738692589 -0.000303401464134835 -0.000406386823540349 -0.000179266365279409 -0.000886308937523582 -0.000477358527936895 -0.000333639500673033 -0.000406267131050162 -0.000282180697704472 -0.000517473481665379 -0.000299179425473195 -0.000177459568260935
"24" -0.000561221294192241 -0.000499105472988814 -0.000202762134041586 -0.000439252815300683 -0.000183903460527818 -0.000301700837543298 -0.00040858497468644 -0.000189940967550749 -0.000921933216094527 -0.000515860754169672 -0.000360653764362305 -0.000422942380064406 -0.000301705643714555 -0.000546880245718512 -0.000308199780619755 -0.000172616091498104
"25" -0.000549750947357087 -0.00050600957461745 -0.0002068413809119 -0.000433692411705998 -0.000175515759258695 -0.000299414020365781 -0.000409250986717267 -0.000200770946897207 -0.000955807855905745 -0.000554197504634375 -0.000387167525269177 -0.000438596579216284 -0.000320673222764305 -0.000575106199288869 -0.00031648115089569 -0.000167151850654932
"26" -0.000535482654992629 -0.000510732284654476 -0.000210427790083465 -0.000426960902888978 -0.000166390001732211 -0.000296500878242224 -0.000408275375236857 -0.000211627255997646 -0.000987612759328935 -0.000592091152820117 -0.000412928468134019 -0.00045307535151385 -0.000338887709164759 -0.000601888056477438 -0.000323890776361239 -0.000161041758556745
"27" -0.00051829573361781 -0.000513088169464926 -0.000213447345892128 -0.000419031088080913 -0.00015650833672249 -0.000292927778163987 -0.000405561758866671 -0.000222376200146051 -0.00101703884820742 -0.00062925140898998 -0.000437683565559692 -0.000466234228048736 -0.000356149540610156 -0.00062696838349793 -0.000330293478041304 -0.000154266339710991
"28" -0.000498081797032092 -0.000512902774761013 -0.00021583257858778 -0.000409887338837379 -0.000145858373800031 -0.000288663862165541 -0.000401024185811458 -0.000232885834169478 -0.00104379012288249 -0.00066540082603629 -0.000461187624147296 -0.000477937506316569 -0.000372268104061641 -0.000650096970135075 -0.000335561180761768 -0.000146804539578705
"29" -0.000474758772063323 -0.000510020414208648 -0.000217515718451804 -0.000399522865937122 -0.000134432742459149 -0.000283682844370494 -0.00039459028401211 -0.000243023582699013 -0.0010675887655124 -0.000700259266904317 -0.000483206511985131 -0.000488060181524408 -0.000387047441559759 -0.000671023574121354 -0.00033955658959886 -0.000138635989186462
"30" -0.000448264928988698 -0.000504291045678687 -0.000218438045343971 -0.000387943551507317 -0.000122232092582365 -0.00027796481594788 -0.000386209433044283 -0.000252651602742923 -0.00108817843341674 -0.000733564086415358 -0.00050351501536565 -0.000496491769259645 -0.000400308511448047 -0.000689519998834556 -0.00034216144287851 -0.000129748174340416
"31" -0.00041856352426835 -0.000495582665134554 -0.000218543677791752 -0.000375169415999631 -0.000109257902696594 -0.000271494425588025 -0.000375836825420984 -0.000261648116869915 -0.00110531732864748 -0.000765054185036615 -0.000521900228505801 -0.000503130530801848 -0.000411869252116018 -0.000705360245466257 -0.000343250042724261 -0.000120125338600754
"32" -0.000385641430280394 -0.000483784507188519 -0.000217788685193277 -0.000361226966435215 -9.55275875207811e-05 -0.000264263722524926 -0.000363455741164658 -0.000269884138679801 -0.00111879311850797 -0.000794480959994318 -0.000538164005526297 -0.000507891327728631 -0.000421564080632811 -0.000718333548395778 -0.000342711539617197 -0.000109759954667551
"33" -0.000349521193252645 -0.000468803546100464 -0.00021612981130202 -0.000346165987782183 -8.1059637871446e-05 -0.000256274646040529 -0.000349062757870025 -0.000277247902544547 -0.00112841542360511 -0.00082161888643399 -0.000552126101693581 -0.000510708145463944 -0.000429237006466924 -0.000728253580158866 -0.000340439337831599 -9.86447881073078e-05
"34" -0.00031025013573859 -0.000450567828045061 -0.000213536125605594 -0.000330036801713819 -6.58823125785009e-05 -0.000247531003703465 -0.00033267357516904 -0.000283630089642655 -0.00113402301763417 -0.000846249390904508 -0.000563625992672665 -0.000511521824328496 -0.000434745113333374 -0.000734942411599687 -0.000336336179419952 -8.67762171556311e-05
"35" -0.00026790229143095 -0.000429021581299861 -0.000209989580960729 -0.000312911631571586 -5.00305378701052e-05 -0.000238050298457813 -0.000314327300728885 -0.000288923536643118 -0.00113548337829324 -0.000868184386406532 -0.000572523128652837 -0.00051029871066371 -0.000437963968279382 -0.000738241674670548 -0.000330323068640271 -7.41566238148897e-05
"36" -0.000222589271676636 -0.00040413964513758 -0.000205475798676471 -0.000294873175778631 -3.35492128184321e-05 -0.00022785428383571 -0.000294081508275817 -0.000293042500041574 -0.00113270039053535 -0.000887248306713356 -0.000578698328342354 -0.00050701579055831 -0.000438782891835266 -0.000738023336786889 -0.000322321848509885 -6.07947186948396e-05
"37" -0.000174450875737591 -0.000375916847083658 -0.000199991387674517 -0.000276011480692139 -1.64868615911737e-05 -0.000216973740365522 -0.000272014072417609 -0.000295906897570123 -0.00112560304695987 -0.000903293278954603 -0.000582058804612335 -0.000501674172159379 -0.000437110763810132 -0.000734176969408636 -0.000312279909592572 -4.66980021285005e-05
"38" -0.000123655901977885 -0.000344379761998493 -0.000193540275343364 -0.000256430778426684 1.09435547855064e-06 -0.000205448642361772 -0.000248217822020998 -0.000297444290191915 -0.00111416437898528 -0.000916198936789455 -0.000582532865000873 -0.000494287793081947 -0.000432877415358494 -0.000726618283351112 -0.000300149899917451 -3.18854505795615e-05
"39" -7.04093405495585e-05 -0.000309571268142799 -0.000186146130742134 -0.000236244528271767 1.91322713444345e-05 -0.000193325022345944 -0.000222815631581019 -0.00029760045147153 -0.00109838668205166 -0.00092586990651186 -0.000580081440296886 -0.000484891453673164 -0.000426034565024272 -0.000715296497047333 -0.000285911404553077 -1.63781261190356e-05
"40" -1.49413733847249e-05 -0.000271562382776461 -0.000177829144443492 -0.000215573698383534 3.75534074531121e-05 -0.000180657808980596 -0.000195939348132248 -0.000296330180901601 -0.00107831479587237 -0.000932238804480547 -0.00057468349524521 -0.000473535958986875 -0.000416551325390584 -0.000700176368402039 -0.000269554617822603 -2.02575389016422e-07
"41" 4.24940023085228e-05 -0.000230462013346865 -0.000168623610585196 -0.000194546400972074 5.62829279313914e-05 -0.000167506909265597 -0.000167741235459803 -0.000293604945045119 -0.00105403166134014 -0.000935272310274431 -0.000566355523404578 -0.000460289510408289 -0.00040442795256572 -0.000681264900850569 -0.000251085750225443 1.66063064811907e-05
"42" 0.000101608687788494 -0.00018638259500939 -0.000158575193960823 -0.000173298605897712 7.5239788311427e-05 -0.00015394028541611 -0.000138390191419931 -0.000289400634984575 -0.00102565412295715 -0.000934962543834563 -0.00055513379412508 -0.00044524258863832 -0.00038967883147203 -0.00065860080883605 -0.000230533507167522 3.40100593454414e-05
"43" 0.000162096585582838 -0.000139485824994538 -0.000147732339865478 -0.00015196498767888 9.43401566497409e-05 -0.000140030959206806 -0.00010807160826468 -0.000283714585077046 -0.000993343520584533 -0.000931333063230541 -0.000541088481857671 -0.000428492429922721 -0.00037234930919946 -0.000632243347110383 -0.000207948816925858 5.19651895528543e-05
"44" 0.000223631283759182 -8.99441892601876e-05 -0.000136153100761925 -0.000130691891179062 0.000113494493837233 -0.000125855605184984 -7.69817018929242e-05 -0.000276555729380767 -0.00095729910506615 -0.00092444064358331 -0.000524314503052782 -0.000410161241093127 -0.000352505123404473 -0.00060229615016503 -0.000183397858344545 7.04200641945931e-05
"45" 0.000285863103660371 -3.79561913011551e-05 -0.00012389780524275 -0.000109618421463665 0.000132616896009425 -0.000111496942678969 -4.53304022310263e-05 -0.000267943960544691 -0.000917755929823732 -0.0009143747655322 -0.000504933355068316 -0.00039037982931034 -0.00033023422458709 -0.00056888898742316 -0.00015696153437457 8.932102781965e-05
"46" 0.000348435526975165 1.62506120040669e-05 -0.000111038324725999 -8.88860563956663e-05 0.000151614490813701 -9.70418205527919e-05 -1.3334055293344e-05 -0.000257916445401503 -0.000874983949496072 -0.00090124928017055 -0.000483094888279589 -0.00036929355819207 -0.000305649370807618 -0.000532188463956403 -0.000128750469327759 0.000108608516535263
"47" 0.000410975048076168 7.24342424169314e-05 -9.76402973145994e-05 -6.86361444941387e-05 0.000170397508446702 -8.2576497281003e-05 1.87837971407479e-05 -0.000246516058716093 -0.000829293223337982 -0.00088521325143006 -0.000458975989181108 -0.000347063121237706 -0.000278886692181524 -0.000492388749500007 -9.88876072988165e-05 0.000128216296204097
"48" 0.000473104261228575 0.000130325645848675 -8.37872985290215e-05 -4.90009094057407e-05 0.000188880087511759 -6.8189467498607e-05 5.07932623587908e-05 -0.000233808522827412 -0.000781021900517273 -0.000866439690259113 -0.000432769842440695 -0.000323852154637099 -0.000250100701777099 -0.000449718318187057 -6.75124648543631e-05 0.000148073046342466
"49" 0.000534444951050846 0.000189642462471717 -6.95517729578529e-05 -3.01114697063066e-05 0.000206973428333247 -5.3973711857895e-05 8.2462186851488e-05 -0.000219860053890373 -0.000730538923053031 -0.000845130834875864 -0.000404701935306385 -0.000299842216918419 -0.000219468150541282 -0.000404434057165968 -3.47862229547904e-05 0.000168107506183706
"50" 0.000594613461603601 0.000250081152125281 -5.5014893761011e-05 -1.20886436425136e-05 0.000224596183737236 -4.00155285177958e-05 0.000113557804257628 -0.000204758294646294 -0.000678241642822057 -0.000821511732743767 -0.000375008409786098 -0.000275214696970238 -0.000187186227188535 -0.000356822185814406 -8.80838739415071e-07 0.000188241164573618
"51" 0.00065323695484428 0.000311327683264634 -4.02511872533203e-05 4.95266323704214e-06 0.000241664601177602 -2.64038691404688e-05 0.000143855263880649 -0.0001885963726509 -0.000624547261974695 -0.000795832182008105 -0.000343947738194309 -0.000250158972659918 -0.000153465549211098 -0.000307196911838949 3.40139216160544e-05 0.000208392059117234
"52" 0.000709947309190635 0.000373053725358173 -2.53401754264436e-05 2.09112261110156e-05 0.000258107484322799 -1.32247239852421e-05 0.000173130108456972 -0.00017148031767898 -0.000569892604405224 -0.000768361181733904 -0.000311792668656602 -0.000224870516151909 -0.000118538977188402 -0.000255893521337363 6.96937237327496e-05 0.000228478137753708
"53" 0.000764393424083347 0.000434921992649827 -1.03597623417944e-05 3.56926939774284e-05 0.000273851326409431 -5.60452450238944e-07 0.000201165412195218 -0.000153522192642906 -0.000514731530988851 -0.000739381574257672 -0.000278828726830257 -0.000199544225573479 -8.26472861327818e-05 -0.000203275007808243 0.000105946402592297 0.00024841092811401
"54" 0.000816233811567465 0.000496589193424008 4.61557948310282e-06 4.921555792918e-05 0.00028883030444391 1.15065717383208e-05 0.000227756819450379 -0.000134844869537251 -0.000459525526359726 -0.000709195899740655 -0.000245351873524789 -0.000174374122683014 -4.60445353985963e-05 -0.0001497125388088 0.000142546034835231 0.000268102060634217
"55" 0.000865151166857497 0.000557709320363831 1.95160007326817e-05 6.14102317642554e-05 0.000302989878834648 2.29054096353461e-05 0.000252704473958509 -0.000115584130141477 -0.000404739962464019 -0.000678115561931882 -0.000211660541226781 -0.000149556572036385 -8.99870377879141e-06 -9.5599590161126e-05 0.000179260537500355 0.000287458863475993
"56" 0.000910852704456809 0.000617935717802758 3.42745412158869e-05 7.22245874419149e-05 0.000316274155081298 3.3562119625394e-05 0.000275835842550897 -9.58694622779345e-05 -0.000350839602280966 -0.000646459774764254 -0.000178061857011812 -0.000125279546628381 2.82184642893886e-05 -4.13444923691703e-05 0.000215854364208171 0.000306389411222747
"57" 0.000953068125336633 0.000676923635622686 4.88307864620331e-05 8.16120570266062e-05 0.000328633259720737 4.34146809342373e-05 0.000296983201518507 -7.58519094008953e-05 -0.00029828876304587 -0.000614553873079311 -0.000144858103928952 -0.00010173327463902 6.53257221293417e-05 1.26462300526543e-05 0.000252083792864445 0.000324799332114442
"58" 0.00099155693222489 0.000734333598209453 6.31178201402976e-05 8.95477067732848e-05 0.000340032903417343 5.24024002599221e-05 0.000315998181269628 -5.56715942116361e-05 -0.000247528601211167 -0.000582720592346981 -0.000112351796835902 -7.90917732544408e-05 0.00010204266129836 6.59574567629935e-05 0.000287699891690984 0.000342591783402682
"59" 0.00102610673406493 0.000789840524591409 7.70907440526174e-05 9.6015503092446e-05 0.000350441065925362 6.04739219366878e-05 0.000332755551521996 -3.5479637045374e-05 -0.000198998216980978 -0.000551283952429326 -8.08373872483032e-05 -5.75303272539205e-05 0.000138085205567127 0.00011817179388145 0.000322464398900808 0.000359671059676477
"60" 0.00105653779976162 0.000843127486020865 9.06932829915555e-05 0.000101015170701715 0.000359825624713624 6.75830954827836e-05 0.000347144791139447 -1.54260657006718e-05 -0.000153097895110525 -0.000520559446885632 -5.0594937978799e-05 -3.72093683899789e-05 0.000173172608531626 0.000168884508467481 0.000356132425141211 0.0003759408897699
"61" 0.00108271012596458 0.000893893079183482 0.000103885085496338 0.000104556056646348 0.000368169458617652 7.36903797806254e-05 0.000359079375934802 4.33894724082436e-06 -0.000110214269802332 -0.000490853013727062 -2.18998167926232e-05 -1.82784156247401e-05 0.00020703033508667 0.000217694407024891 0.000388469068401164 0.00039130051708373
"62" 0.00110450866863121 0.000941856796366496 0.000116623991757988 0.000106666180474046 0.000375458323867098 7.87679481608349e-05 0.000368497937810481 2.36681994478505e-05 -7.0692749832735e-05 -0.000462453005549605 4.99860844024295e-06 -8.78712984833375e-07 0.000239388368094799 0.00026421640845323 0.000419243194810085 0.000405655222279212
"63" 0.00112186260953037 0.000986756549322928 0.000128881185674282 0.000107380240942906 0.000381686022285416 8.27883894029849e-05 0.000375357756569859 4.24126323875135e-05 -3.48446858439533e-05 -0.000435632076588032 2.98691698282872e-05 1.48694426437424e-05 0.000269990107144358 0.000308087483437363 0.000448234428951955 0.000418907500738132
"64" 0.0011347281438501 0.00102835503272361 0.00014062006956379 0.000106746966979473 0.000386849169000276 8.57338537270301e-05 0.000379638216156564 6.04330624985849e-05 -2.93979608253924e-06 -0.000410649580564267 5.24985953094275e-05 2.88495741747951e-05 0.000298585196994085 0.000348964415358959 0.00047523163321398 0.000430958659248755
"65" 0.00114310043390303 0.00106644485844401 0.000151819383986324 0.000104822607151446 0.000390951368489392 8.75987456133731e-05 0.000381346924967351 7.75967550666588e-05 2.47993507490631e-05 -0.000387726645102368 7.27030812705395e-05 4.09672479950757e-05 0.000324943841520342 0.000386532939821435 0.000500045847452124 0.000441714393581383
"66" 0.0011470103072728 0.00110083679989523 0.000162458914067849 0.000101682481482587 0.00039400370950811 8.83798462666512e-05 0.000380509989371565 9.37702856358015e-05 4.81936620970199e-05 -0.0003670707058519 9.03273604231583e-05 5.11439553114759e-05 0.000348855223979138 0.000420505776808326 0.000522489404133897 0.000451080891578018
"67" 0.00114651869592594 0.00113138060359575 0.00017251849214238 9.73964833045751e-05 0.00039601324751669 8.80830619486804e-05 0.000377174693519441 0.00010884189759685 6.71173995179321e-05 -0.000348848667064992 0.000105243696511041 5.9313423442003e-05 0.000370119837130986 0.00045063598999935 0.000542401865746901 0.00045896152521522
"68" 0.00114171645601398 0.0011579471260152 0.000181988742302976 9.20538526931869e-05 0.000396997881933643 8.67205326141187e-05 0.000371415704141958 0.00012269728486335 8.1492160491065e-05 -0.000333204190229306 0.000117357838212515 6.54289723696277e-05 0.000388568789616777 0.000476707457117266 0.000559635846859507 0.000465268596157964
"69" 0.00113272935955261 0.00118044611105345 0.000190853842254622 8.57444930590451e-05 0.000396979438013447 8.43163196803265e-05 0.000363322197120664 0.000135245564898472 9.12935242286378e-05 -0.000320242436980182 0.000126604055076992 6.9460067441815e-05 0.000404052614685495 0.000498550336002311 0.000574072942962294 0.000469914361893653
"70" 0.00111970910459107 0.00119881543261477 0.000199111552771858 7.85646243181124e-05 0.000395979749809508 8.08912719286581e-05 0.00035300603069111 0.000146394197719156 9.65494726958048e-05 -0.000310035978623194 0.000132956490127626 7.13931595498067e-05 0.000416449413428298 0.000516031003099778 0.000585603999708255 0.000472814515835723
"71" 0.00110283059636845 0.00121301780739857 0.000206751748713548 7.06181829368942e-05 0.000394025881390428 7.64849129065799e-05 0.000340602598158533 0.000156075451822107 9.73347685810616e-05 -0.000302619416299361 0.000136415588505141 7.12327396249702e-05 0.0004256612238998 0.000529060914236687 0.000594150251362344 0.000473887988824864
"72" 0.001082293671339 0.00122305446895596 0.000213769801033825 6.2007556410552e-05 0.000391139492107179 7.11367861110809e-05 0.000326254069874621 0.000164233151989294 9.37736564936337e-05 -0.000297995282001215 0.000137016550986197 6.89982665821046e-05 0.000431622678278553 0.000537591366148484 0.000599656351359596 0.000473061229726407
"73" 0.00105831962958646 0.00122895367590864 0.000220171115367162 5.28394224982524e-05 0.00038735132633887 6.48933079213075e-05 0.000310125946847536 0.000170818366961013 8.60375756033409e-05 -0.000296128785893755 0.000134830232277106 6.47271638438525e-05 0.000434293682819708 0.000541624152380212 0.000602083440936449 0.000470267798101646
"74" 0.00103114784825042 0.0012307699416111 0.000225944146514127 4.32233208676178e-05 0.000382693033561309 5.78069728965102e-05 0.000292393520080591 0.000175809020900376 7.43359625744354e-05 -0.000296951805977677 0.000129949484510128 5.84731309892491e-05 0.000433668263041258 0.000541192475254965 0.000601419829368255 0.000465445259055547
"75" 0.0010010324298281 0.00122858404079046 0.000231095770561136 3.32638885534081e-05 0.000377194670495643 4.99375419397939e-05 0.000273247226164432 0.000179182522482012 5.89191497868103e-05 -0.000300357893461145 0.0001225010678756 5.03050345609473e-05 0.000429765350229333 0.000536381454274869 0.00059767957996361 0.0004585438759396
"76" 0.000968239959173997 0.00122250354965861 0.00023562039046975 2.30696217081357e-05 0.000370882603341343 4.13465697253712e-05 0.000252885183134304 0.00018094744850364 4.00681457598043e-05 -0.000306220840052346 0.000112637778979349 4.03054678299926e-05 0.000422638829952401 0.000527309079433966 0.000590897895897817 0.00044951919626598
"77" 0.000933049195587702 0.00121265475843958 0.000239523307440076 1.2743712488768e-05 0.000363793846306704 3.21015399894871e-05 0.000231514282651167 0.000181109312238369 1.80946177972725e-05 -0.000314374317681631 0.00010053258403421 2.85720104481793e-05 0.000412371078953998 0.000514131963741569 0.000581133882199344 0.00043834205954496
"78" 0.000895743623093188 0.00119918434969248 0.00024279371636822 2.38452154355869e-06 0.000355953507655826 2.22761237628624e-05 0.000209345841343159 0.000179702921511626 -6.66798148921802e-06 -0.000324633254168896 8.63786893284643e-05 1.52171132169864e-05 0.000399071728019916 0.000497039560911554 0.000568462909700565 0.000424990961160942
"79" 0.0008566135783166 0.00118225703045482 0.000245441659073154 -7.9082762384872e-06 0.000347398909907738 1.19478378191646e-05 0.000186600499893115 0.00017676723818093 -3.38718852414675e-05 -0.000336791821095489 7.03863367659994e-05 3.60502725776298e-07 0.000382880230647607 0.000476253347562992 0.000552986501485984 0.00040946377351519
"80" 0.000815950765509202 0.0011620510911993 0.000247454502635766 -1.80481020411293e-05 0.000338154296330481 1.1918309677753e-06 0.000163496089492437 0.000172356557197712 -6.3150087673636e-05 -0.000350618322849417 5.27808169563729e-05 -1.58622364577298e-05 0.000363965296972172 0.00045201922228821 0.000534822491443353 0.000391765451292257
"81" 0.000774044937263357 0.00113875988101489 0.000248838450808673 -2.79509068792985e-05 0.000328252775076701 -9.90848809387615e-06 0.00014025171879633 0.000166533876421307 -9.41367826575753e-05 -0.000365869872240799 3.37906385317027e-05 -3.33104974522465e-05 0.000342514056669079 0.000424611603242943 0.000514109163792861 0.00037192068564738
"82" 0.000731188507207837 0.00111258250496988 0.000249584621275471 -3.75396668337603e-05 0.000317721457220129 -2.12717032636545e-05 0.000117081889137389 0.000159372323939482 -0.000126460414586403 -0.000382290763870738 1.36547569839078e-05 -5.18298848969126e-05 0.000318744684312193 0.000394320671412065 0.000491000456162837 0.000349970141275503
"83" 0.000687661293359537 0.00108372623709662 0.000249689236001825 -4.67431044476088e-05 0.000306593742542451 -3.28132149734499e-05 9.42025746079498e-05 0.000150961238838869 -0.00015975561662556 -0.000399619496116821 -7.38260639744172e-06 -7.12665118304077e-05 0.00029289171367014 0.000361449772980194 0.000465664778335307 0.0003259706829579
"84" 0.000643744439992148 0.00105240445551884 0.000249146387564257 -5.55034112993196e-05 0.000294892668353651 -4.44479305300462e-05 7.18161877859531e-05 0.000141388093784141 -0.000193663627644054 -0.000417587373862809 -2.90871345834479e-05 -9.14525118084908e-05 0.000265209482366794 0.000326324984987236 0.000438286303982459 0.000299995720135809
"85" 0.000599704562399264 0.00101883359494125 0.000247952268217674 -6.37701572310064e-05 0.000282649974549916 -5.60943731530204e-05 5.01261131619501e-05 0.000130754014046518 -0.000227834237072348 -0.000435928438267071 -5.12157070199239e-05 -0.000112222946553314 0.000235968323210921 0.00028926963694347 0.0004090606876659 0.000272140009619725
"86" 0.000555794590595637 0.000983227821599381 0.0002461023105709 -7.15019921310052e-05 0.000269893773391163 -6.76678095011975e-05 2.93141286348532e-05 0.000119165868308313 -0.000261935986189088 -0.000454370632129101 -7.35425641127404e-05 -0.000133406047429827 0.000205453445577493 0.0002506224555474 0.000378196769018444 0.00024251348125626
"87" 0.000512261021998851 0.00094580395270294 0.000243587569322941 -7.86657735197829e-05 0.000256655047819362 -7.90857082392492e-05 9.56228277233995e-06 0.000106733956106363 -0.000295654283319609 -0.000472653834498471 -9.58432840879516e-05 -0.000154826933642484 0.000173957313122683 0.00021071720135856 0.000345912963229582 0.00021124523145535
"88" 0.000469333393914145 0.000906775042288032 0.000240402698365716 -8.52443485186457e-05 0.000242955571840463 -9.0274210686285e-05 -8.97083260734046e-06 9.35718587943332e-05 -0.000328694572659489 -0.000490524071292008 -0.000117904749822693 -0.000176315212904855 0.000141782149520806 0.000169894484940909 0.000312427762147928 0.000178482371742137
"89" 0.000427219105303503 0.000866349850264442 0.000236542033075217 -9.12270573324539e-05 0.000228828018307909 -0.000101154531376634 -2.61332707306065e-05 7.97947188824378e-05 -0.000360778464140224 -0.000507734022266213 -0.000139527039053257 -0.000197694570948225 0.000109238057699449 0.000128491789512309 0.000277983110699651 0.000144389276227145
"90" 0.000386119347068985 0.000824734700497875 0.000232001531514846 -9.66142460788731e-05 0.00021430372936144 -0.000111655745920754 -4.17965205943907e-05 6.55201466517088e-05 -0.000391652452295572 -0.000524049101651457 -0.000160522930658542 -0.000218797503344975 7.66276588395834e-05 8.68364877411219e-05 0.000242810035511833 0.000109143519431679
"91" 0.0003462009711216 0.000782129469533686 0.000226776465269803 -0.000101418532426504 0.000199402827156038 -0.000121713964229908 -5.58455204905269e-05 5.08706979159681e-05 -0.000421090782158752 -0.000539251350880441 -0.000180714457201407 -0.000239458227488665 4.4257346173197e-05 4.52587593584186e-05 0.000207157525274735 7.29405070317488e-05
"92" 0.00030762446481276 0.000738725147930224 0.000220866767085452 -0.000105658739466821 0.000184165266304787 -0.000131263484341809 -6.81835699678341e-05 3.59630258485622e-05 -0.000448884209307973 -0.000553128587486385 -0.000199942783397031 -0.000259511653710672 1.24308322506736e-05 4.07356884517587e-06 0.00017126963561452 3.59912635636446e-05
"93" 0.000270527365962547 0.000694713516046037 0.000214267797036804 -0.00010936609543984 0.000168613643307672 -0.000140253531718998 -7.87339184189279e-05 2.0916763357811e-05 -0.000474842386672195 -0.000565497074485715 -0.000218061317513373 -0.000278801799876892 -1.85602662272858e-05 -3.64073122247683e-05 0.000135396702000538 -1.48492117109186e-06
"94" 0.000235019667102995 0.000650273479580222 0.000206983754301913 -0.000112583187144504 0.000152784739106255 -0.000148630236723828 -8.7441409374497e-05 5.845608074692e-06 -0.000498806161930568 -0.000576178657307003 -0.000234932075115511 -0.000297177050286866 -4.84334111686556e-05 -7.58853970452824e-05 9.97858152681263e-05 -3.92585818309376e-05
"95" 0.000201200632313516 0.000605581834527584 0.000199021781513216 -0.000115352705932255 0.000136708565065744 -0.000156353852499597 -9.42666422879883e-05 -9.13253260435076e-06 -0.00052062983907534 -0.000585015546979442 -0.000250439004679656 -0.000314496336910052 -7.69198271084243e-05 -0.000114076555161262 6.4687196260508e-05 -7.70879557577139e-05
"96" 0.000169145702291219 0.000560811425555794 0.000190390832163549 -0.000117731502894657 0.000120421268142527 -0.000163383680189794 -9.91938202679467e-05 -2.39053410986033e-05 -0.000540194523669538 -0.000591869207338623 -0.000264476297593666 -0.000330624053109743 -0.000103769016741081 -0.00015070371570988 3.03441101961006e-05 -0.000114731517396724
"97" 0.000138913887870415 0.000516123547917622 0.000181102870035811 -0.000119778931415125 0.000103960109063202 -0.000169691958001911 -0.000102224135419946 -3.83661892411024e-05 -0.000557393070300849 -0.000596624377287202 -0.000276948025795348 -0.000345434807903247 -0.000128743716589917 -0.00018550931820466 -2.99370787114451e-06 -0.000151936141070991
"98" 0.000110547224621117 0.00047167807634445 0.00017118020365304 -0.000121556480412595 8.73645046385829e-05 -0.000175250456266872 -0.000103378117857601 -5.24067014085756e-05 -0.000572140928917178 -0.000599172134190269 -0.000287779839710335 -0.000358812987641232 -0.000151629038256625 -0.000218249371070257 -3.50923842583301e-05 -0.000188450159629266
"99" 8.4068662258881e-05 0.000427632127340915 0.000160647414422444 -0.000123128209929721 7.06813319791956e-05 -0.000180043370857517 -0.000102696817146124 -6.59222394431109e-05 -0.000584377239671511 -0.000599442631643605 -0.000296903957261038 -0.000370654134190045 -0.000172235058858958 -0.000248695716405122 -6.57188158688529e-05 -0.000224022773442204
"100" 5.94932733338144e-05 0.000384138298530472 0.000149537431568104 -0.000124561802726587 5.39551331567853e-05 -0.000184052983141109 -0.000100232224469464 -7.88167925447521e-05 -0.000594050574451973 -0.000597364925925666 -0.000304264322523915 -0.000380863884319793 -0.000190392058689351 -0.000276642368281071 -9.46513308492447e-05 -0.000258405884700647
"101" 3.6821992352505e-05 0.000341343932672688 0.00013788754721439 -0.00012591872560227 3.72397415184092e-05 -0.000187275077245524 -9.6060416727203e-05 -9.09948287151352e-05 -0.000601129770885542 -0.000592906014425635 -0.000309822445610098 -0.000389356594738964 -0.000205956996796471 -0.000301897423029536 -0.000121673206589129 -0.000291348194916575
"102" 1.6044739934966e-05 0.000299391655531983 0.000125747895195746 -0.000127261051901784 2.05969797489704e-05 -0.000189700526769544 -9.0267156415033e-05 -0.000102364767758599 -0.000605600412151842 -0.000586046543289588 -0.00031355136801426 -0.000396063259910735 -0.000218810046839693 -0.000324294510663783 -0.00014658636848526 -0.000322614799909528
"103" -2.8512297830193e-06 0.000258428360545187 0.000113177910985476 -0.000128642188157869 4.08670087322268e-06 -0.000191327226265911 -8.29502421072374e-05 -0.000112834566073379 -0.000607466870927484 -0.000576791250451796 -0.000315430521961698 -0.000400921639543657 -0.000228862140972813 -0.000343685899753584 -0.00016919772984825 -0.000351971004163008
"104" -1.98890853211929e-05 0.000218592209621549 0.000100241085862355 -0.000130113851821972 -1.22163579370669e-05 -0.000192161678824439 -7.42211482165307e-05 -0.00012232774327085 -0.000606743245846427 -0.000565163969267937 -0.000315460163993402 -0.000403883154108241 -0.000236047561265128 -0.00035994885752684 -0.000189332401616923 -0.000379194519028172
"105" -3.50904660639755e-05 0.000180018694583921 8.70118435715566e-05 -0.000131714895653041 -2.82306717753772e-05 -0.0001922039356716 -6.42003388909533e-05 -0.00013075902372155 -0.000603465139855384 -0.000551210719837806 -0.0003136478930001 -0.000404910542352576 -0.000240328818763847 -0.000372983398504604 -0.00020682728345212 -0.00040407322046574
"106" -4.84870364596067e-05 0.000142842728496021 7.35795432535078e-05 -0.000133478904263373 -4.38805197207868e-05 -0.000191462220909843 -5.30160909261196e-05 -0.00013805928097691 -0.000597680093585643 -0.00053500322561978 -0.000310012930600068 -0.000403976073600889 -0.000241692974516312 -0.00038271258424384 -0.000221541472503776 -0.000426407942864413
"107" -6.01082540393323e-05 0.000107198140423309 6.00358626053431e-05 -0.000135426495671588 -5.90646966166637e-05 -0.000189944767439675 -4.08045539962145e-05 -0.000144159719206208 -0.000589448247968838 -0.000516628977714543 -0.000304594285010127 -0.000401067896352475 -0.00024015904381201 -0.000389084303477087 -0.000233349000693233 -0.000446014185543506
"108" -6.99767693088675e-05 7.32063938953674e-05 4.64842381253419e-05 -0.000137567034496837 -7.36869627585423e-05 -0.000187661350506481 -2.7704913464475e-05 -0.000148997821910219 -0.000578842312407161 -0.000496199350683249 -0.000297432396798433 -0.000396175498075399 -0.000235760622303039 -0.000392070210126336 -0.000242139337707526 -0.00046272280854818
"109" -7.81279871277898e-05 4.09937576992614e-05 3.3039638191155e-05 -0.000139903928762239 -8.76469319384988e-05 -0.00018462195360197 -1.38562925661732e-05 -0.000152515679196062 -0.00056595307342538 -0.000473845761131114 -0.000288585808260448 -0.000389309089875239 -0.000228566335852893 -0.000391670749022917 -0.000247821577166797 -0.000476382185917454
"110" -8.45912911270401e-05 1.0670706069983e-05 1.98169188828783e-05 -0.000142422339924911 -0.000100829940748098 -0.000180838601104475 5.89679713272832e-07 -0.000154668499318208 -0.000550874876281675 -0.000449720390812825 -0.000278124121024547 -0.000380480275108534 -0.000218662442956112 -0.00038790517404251 -0.000250329108116287 -0.000486860792109485
"111" -8.93984451925467e-05 -1.76491353430569e-05 6.94500759896393e-06 -0.000145102440271932 -0.000113125964754771 -0.000176327654592423 1.54939537107233e-05 -0.000155415536415526 -0.000533715859836009 -0.000423983177326457 -0.00026612571170499 -0.000369712694297656 -0.000206157626549665 -0.000380812870860664 -0.000249611234116203 -0.000494039891469036
"112" -9.25852462963744e-05 -4.3870820039856e-05 -5.44797243975801e-06 -0.000147908113350531 -0.000124414405185973 -0.000171103320379068 3.07083940470927e-05 -0.000154727786388205 -0.000514589010741658 -0.000396825215414931 -0.000252683199300684 -0.000357039530377103 -0.000191181781522662 -0.000370464657112282 -0.000245637798042583 -0.000497830559731966
"113" -9.41836495058571e-05 -6.79028162542812e-05 -1.72272797197639e-05 -0.000150798434635051 -0.000134577965367527 -0.000165185844031557 4.60905828967907e-05 -0.000152582921184574 -0.000493615724036839 -0.000368435635026255 -0.000237890576115443 -0.000342500590436433 -0.000173881316792157 -0.000356937726577092 -0.00023839896323914 -0.000498161571467481
"114" -9.42352169547642e-05 -8.966480528413e-05 -2.82552786885773e-05 -0.000153721074588082 -0.000143500189915492 -0.000158594199980938 6.15034574895279e-05 -0.000148968959784286 -0.000470921637068031 -0.000339031996471662 -0.000221861416102394 -0.000326144475587784 -0.000154422404244444 -0.000340338679119991 -0.000227905238854501 -0.000494982279134148
"115" -9.27833325180798e-05 -0.00010908865814563 -3.83996930040645e-05 -0.000156613837988671 -0.00015106222690658 -0.000151350995196623 7.68050328297094e-05 -0.000143889459358866 -0.000446634614955036 -0.000308825411120727 -0.000204708768597807 -0.000308024794033642 -0.000132985831462192 -0.000320783159811802 -0.000214189083499561 -0.000488271333797933
"116" -8.98812106257216e-05 -0.00012612256597249 -4.75199651676331e-05 -0.000159412170225328 -0.000157150039746845 -0.000143483763091187 9.1865762537803e-05 -0.000137360441832355 -0.000420882711464632 -0.000278048960000524 -0.000186557803994639 -0.000288203358573259 -0.000109763702223356 -0.00029841026603245 -0.000197298719107754 -0.000478025939242986
"117" -8.55844599561839e-05 -0.000140722906857637 -5.5487392910686e-05 -0.000162044760271856 -0.000161654621260773 -0.000135025039834897 0.00010655849829493 -0.000129396530950507 -0.000393795168128979 -0.000246933358861929 -0.000167532257487401 -0.000266751159144041 -8.49640701665974e-05 -0.00027336755291565 -0.000177304988284906 -0.000464272381091307
"118" -7.99611643438753e-05 -0.000152867135846207 -6.21753927119864e-05 -0.000164431383053977 -0.000164476483602907 -0.000126006268772902 0.00012076434434063 -0.000120044477105952 -0.000365494497906163 -0.000215707693999681 -0.000147764417127163 -0.000243739889077043 -5.87986676648763e-05 -0.000245813456667258 -0.0001542940668323 -0.000447058857417891
"119" -7.3084195674799e-05 -0.000162544857923519 -6.74598619236147e-05 -0.000166495132862833 -0.000165520869699967 -0.000116466010270358 0.000134368375936223 -0.000109346806906513 -0.000336102929940708 -0.000184611866058899 -0.000127392577094076 -0.000219249513318072 -3.14904653725267e-05 -0.000215912695942351 -0.000128375439642627 -0.00042646201031136
"120" -6.50390840572215e-05 -0.000169757935780895 -7.12284492598784e-05 -0.000168156126436291 -0.00016469718525382 -0.000106448144908193 0.000147259910376235 -9.73702976516888e-05 -0.00030573299433741 -0.000153873205746722 -0.000106546026764258 -0.000193368242922362 -3.26854654118707e-06 -0.000183844210387557 -9.96692484835987e-05 -0.000402579314194972
"121" -5.59164678159986e-05 -0.000174529418207113 -7.33812347583224e-05 -0.000169329716260129 -0.000161939526118451 -9.59987713171175e-05 0.000159346890798907 -8.41801988323884e-05 -0.000274494173252876 -0.00012372197173152 -8.5365184459728e-05 -0.000166184661990719 2.56318021450439e-05 -0.000149789120166026 -6.83239002387515e-05 -0.000375536423387672
"122" -4.58230943878453e-05 -0.000176895445218751 -7.3826460098182e-05 -0.000169941227501449 -0.000157187807834905 -8.51716135700567e-05 0.000170530336950529 -6.98661103337647e-05 -0.000242483532146913 -9.4370801898148e-05 -6.39785179477938e-05 -0.00013779853907247 5.49780113937179e-05 -0.00011393060409257 -3.44902921254886e-05 -0.000345483878290358
"123" -3.48697614756061e-05 -0.000176904951238944 -7.24799137491666e-05 -0.000169909827480342 -0.000150390356592106 -7.4020199054211e-05 0.000180735767036041 -5.45214459241404e-05 -0.000209790235372334 -6.60287839662805e-05 -4.25169154501289e-05 -0.000108312042494404 8.45332744617782e-05 -7.64549760476776e-05 1.65395104884923e-06 -0.00031258975383212
"124" -2.31775275610058e-05 -0.000174625783126547 -6.92801182324146e-05 -0.000169162268001303 -0.000141514433268251 -6.26068378832377e-05 0.000189883751043469 -3.82467640845366e-05 -0.000176492007854278 -3.88920182196168e-05 -2.11060877772281e-05 -7.78316862834583e-05 0.000114064668243175 -3.75505385735889e-05 3.99254176670179e-05 -0.000277049741055485
"125" -1.08749233957995e-05 -0.000170132090652293 -6.41750526615028e-05 -0.000167628738153827 -0.000130545365967459 -5.09931978767053e-05 0.000197913416725068 -2.11542378426312e-05 -0.000142656142898852 -1.31393453442455e-05 1.34975602032116e-07 -4.64735501450759e-05 0.000143342769281438 2.59896827656868e-06 8.01213841001125e-05 -0.000239081058922936
"126" 1.9052972150337e-06 -0.000163518434966986 -5.71270566191972e-05 -0.000165240362181213 -0.000117480836249954 -3.92446771536963e-05 0.000204773673469141 -3.36472324226816e-06 -0.000108338925513995 1.10727822516037e-05 2.10991543313266e-05 -1.43542576402016e-05 0.000172138118210285 4.38034399326534e-05 0.000122026952614065 -0.000198913473194429
"127" 1.50279844071854e-05 -0.000154885237797417 -4.81187456110613e-05 -0.000161938166871466 -0.000102334741451981 -2.74303982724952e-05 0.000210418664230612 1.50012070051508e-05 -7.35876455948405e-05 3.35914137623468e-05 4.16819473674945e-05 1.8398705266069e-05 0.000200231164948322 8.5885006192117e-05 0.000165417374265647 -0.000156802700180411
"128" 2.83529137763277e-05 -0.000144341564893531 -3.71423225330413e-05 -0.000157669679442578 -8.51385949567303e-05 -1.56205624042517e-05 0.000214816743609968 3.38148728460145e-05 -3.84373480976713e-05 5.42969043217314e-05 6.17889598574669e-05 5.16566991765092e-05 0.000227413552453818 0.000128659758669993 0.000210052520294744 -0.00011301303583579
"129" 4.17451051234875e-05 -0.000132002156587745 -2.42126420404079e-05 -0.000152382972445631 -6.59406146707645e-05 -3.88563353255704e-06 0.000217945922262897 5.29527929687126e-05 -2.9109703739642e-06 7.30907850045374e-05 8.13416984284664e-05 8.52811601450081e-05 0.000253475192086741 0.000171956216989876 0.000255691717993475 -6.78260528993563e-05
"130" 5.50714832056896e-05 -0.000117994918594328 -9.35338099043341e-06 -0.000146036691810643 -4.47985569547353e-05 7.70831872329398e-06 0.000219801199928062 7.2282369105415e-05 3.29685598327805e-05 8.98843506546123e-05 0.000100267332083914 0.00011913374726584 0.000278229734999644 0.000215600501941049 0.000302078220428144 -2.15308167898974e-05
"131" 6.82055837092492e-05 -0.000102443748120515 7.38461525976224e-06 -0.000138592374539691 -2.17927122356344e-05 1.90897588552594e-05 0.000220378727689079 9.16789169498276e-05 6.91969871011679e-05 0.000104622106717481 0.00011850893049402 0.00015306427718716 0.000301495246278739 0.000259427516805327 0.000348949201072696 2.55733271063315e-05
"132" 8.10271683463268e-05 -8.54831841157551e-05 2.59469502752354e-05 -0.000130020109766206 2.9827032216712e-06 3.01971482283079e-05 0.000219698582039585 0.00011101544298497 0.000105766075859079 0.000117267770010431 0.000136016693003688 0.000186922059586281 0.000323104098760879 0.000303269977525829 0.000396034144595762 7.31809345062267e-05
"133" 9.34272464146066e-05 -6.7242711047002e-05 4.62517782403405e-05 -0.000120296657601 2.94203583963723e-05 4.0966889949702e-05 0.00021777891352773 0.000130176733388348 0.000142677681372716 0.000127803648125386 0.000152753348180922 0.00022054960550487 0.000342903288149655 0.000346971635737383 0.000443062052489465 0.000120984095843255
"134" 0.000105304754279014 -4.7856038716114e-05 6.82091810113094e-05 -0.0001094049094164 5.73999346182699e-05 5.13394210795228e-05 0.000214660724056752 0.000149049777046691 0.000179935144245133 0.000136239866288943 0.000168696507605245 0.000253787799219363 0.000360760282273452 0.000390376252513882 0.000489755431610527 0.000168674762773025
"135" 0.000116581633743307 -2.74606569625515e-05 9.17156048852964e-05 -9.73328564710008e-05 8.67852386024852e-05 6.12658858825775e-05 0.00021038797203247 0.000167522916635282 0.000217538144182495 0.000142596605649481 0.000183826963270991 0.000286470531427072 0.000376553922178973 0.000433331382391587 0.000535833071919517 0.000215949142130325
"136" 0.000127181775835053 -6.1902360273132e-06 0.000116648943534152 -8.40759608501775e-05 0.000117429552054 7.0696821011422e-05 0.00020502305287516 0.00018550598646308 0.000255482759140702 0.000146921368832844 0.000198144860437198 0.000318434723802588 0.000390179968088674 0.000475685445218778 0.000581013258538122 0.000262503444398989
"137" 0.000137047415669001 1.58183753921367e-05 0.000142871555673877 -6.96371351596829e-05 0.000149177341924928 7.95921356866283e-05 0.000198630977288788 0.000202900075925091 0.000293770296862392 0.00014927552507165 0.000211648733548392 0.000349509716917002 0.000401561443182761 0.000517293410560798 0.000625017705873743 0.000308048193517012
"138" 0.000146144451725901 3.84297087512032e-05 0.000170243298338955 -5.40270771866283e-05 0.000181858231715295 8.79185363689556e-05 0.000191288502039733 0.000219627212683491 0.000332381643199698 0.000149735146598237 0.00022434624725797 0.000379529625217792 0.000410633654320974 0.000558008246148883 0.000667565915268493 0.000352299601416556
"139" 0.000154441470404457 6.15066496724888e-05 0.000198600444476381 -3.72582937200282e-05 0.000215294711468124 9.56516364168857e-05 0.000183087810169384 0.000235613894274512 0.000371295797132059 0.000148387607789344 0.00023625336490044 0.000408324748640725 0.000417354319039338 0.000597685289785132 0.000708378083031622 0.000394985193825628
"140" 0.000161927441010178 8.49083176975301e-05 0.000227778738236148 -1.93531764662606e-05 0.000249302864598753 0.000102772661161513 0.000174119106834055 0.000250798729156645 0.000410473409918466 0.000145327380572816 0.000247385864468059 0.000435731039746329 0.00042170266142834 0.000636174512911792 0.000747189317135033 0.000435854124877546
"141" 0.0001686057429348 0.000108493456103389 0.000257599688442604 -3.40041059818096e-07 0.000283693669522307 0.000109271376724659 0.000164488947382713 0.000265128669219764 0.000449861573899533 0.000140663813493749 0.000257759270485044 0.000461590193424517 0.000423679855224341 0.000673330897769073 0.000783726559228384 0.000474668856573412
"142" 0.000174492669208496 0.00013211464844027 0.000287877781126012 1.97452283779987e-05 0.000318269813128204 0.000115149318924603 0.000154300834634687 0.000278561785886046 0.00048938933016407 0.00013449997678667 0.000267387271117246 0.000485741172805109 0.000423302162010007 0.000709000346049882 0.000817728440540438 0.000511210731027284
"143" 0.000179617958905037 0.000155624539264851 0.000318424284933271 4.08658239216259e-05 0.00035283461717091 0.000120413021599688 0.000143677142961527 0.000291057747788106 0.000528962273603211 0.000126946364989298 0.000276285115859913 0.000508036310075392 0.000420617063188297 0.000743027446523274 0.000848944867576163 0.000545286448548877
"144" 0.000184020273181717 0.000178866629293812 0.000349038619624921 6.2976243299075e-05 0.000387188756450716 0.000125080084046065 0.000132733126501215 0.000302598196224622 0.00056846266323396 0.000118109432608604 0.000284456319595287 0.000528333694685818 0.000415685289656702 0.000775250100425733 0.000877127056993582 0.00057672523636458
"145" 0.000187745172218276 0.000201681316072532 0.000379524847796943 8.60229532962662e-05 0.000421132318965339 0.000129176673145637 0.000121591000991184 0.000313167966359676 0.000607748142548043 0.00010808484329229 0.000291903096583143 0.000546497872848341 0.000408589322546592 0.000805503817468945 0.000902044475792231 0.000605378224886711
"146" 0.000190850070385831 0.00022389720436442 0.000409682467111549 0.000109948140689642 0.000454467635121124 0.000132737430192928 0.000110379184224148 0.000322754272120167 0.000646652822860746 9.69728745856568e-05 0.000298609949526453 0.00056240983947189 0.000399429922417851 0.000833613895566621 0.000923471924397481 0.000631129073161817
"147" 0.000193392997857973 0.000245344907629017 0.000439307193125435 0.00013469030372182 0.000487002705976664 0.000135801897562373 9.92198468278978e-05 0.000331363503146134 0.000684978078649627 8.48497499001687e-05 0.000304557596627307 0.000575955263518322 0.000388325524034897 0.000859401489894823 0.000941203024141439 0.000653884391774548
"148" 0.000195432996632734 0.000265840904387488 0.000468197427630619 0.000160176101037027 0.000518548375563771 0.000138420084942344 8.82364911096994e-05 0.000338999980972891 0.000722505190911519 7.17886738993313e-05 0.000309716094250843 0.000587037336495047 0.000375412219589046 0.000882683691501595 0.000955037935574213 0.000673577579083728
"149" 0.000197028080776426 0.00028519701942383 0.000496157334759631 0.000186330419142469 0.000548913261190111 0.000140642863616209 7.75518658377962e-05 0.000345677792781634 0.000758984414530092 5.7845131116105e-05 0.000314037768350228 0.000595570691548487 0.000360836888602664 0.000903273485053849 0.000964796656576683 0.000690171414122941
"150" 0.000198230743533844 0.000303220181632959 0.000522989610598616 0.000213063739795931 0.000577923941017017 0.000142527635688568 6.72749817465973e-05 0.000351414249213942 0.000794150516054838 4.30700522975053e-05 0.000317469476978055 0.000601486712683459 0.000344758820071296 0.000920982713072275 0.000970325460054808 0.000703654499982699
"151" 0.0001990844378497 0.000319711468409405 0.000548498506171883 0.00024027747877504 0.000605402973462193 0.000144128003869469 5.75151426538967e-05 0.000356228021280754 0.000827715196516532 2.7494122440103e-05 0.000319945205837484 0.00060472465473304 0.000327351316805934 0.000935622991842919 0.000971475495117781 0.000714035779628521
"152" 0.000199617931930535 0.000334470408356598 0.000572502905880284 0.000267864156852197 0.000631183289925398 0.00014550536541229 4.83654268391592e-05 0.000360147321702379 0.00085937943726139 1.11357000053396e-05 0.000321392105528743 0.000605250936340163 0.000308789603767535 0.000947015494679465 0.000968139397576926 0.000721357760200149
"153" 0.000199844050695328 0.000347295818053129 0.000594812382414391 0.000295699199829767 0.000655100070242531 0.000146703383694483 3.99050604479485e-05 0.000363189419351635 0.000888837647313273 -5.98440089070542e-06 0.000321736020356682 0.000603037401416948 0.000289256375902456 0.000954997126026143 0.000960224752519995 0.000725674359708867
"154" 0.000199755225061778 0.000357987163595816 0.000615253442449081 0.000323643225854483 0.000676991679768737 0.000147772436801295 3.21991444162391e-05 0.000365377624477952 0.000915783939975231 -2.38549217563204e-05 0.0003208898378076 0.000598074229166753 0.00026893944957818 0.000959413670133501 0.00094766932230294 0.000727065541014553
"155" 0.000199318794508804 0.000366344086566242 0.000633650250173419 0.000351540751498546 0.000696702117958992 0.000148742748962441 2.52900696487272e-05 0.000366725640844099 0.000939924491606028 -4.24692247944453e-05 0.000318785075448287 0.000590373482388618 0.000248022649675254 0.000960143904546467 0.000930457841586954 0.00072562195901044
"156" 0.000198472106364841 0.000372182300162816 0.000649835416191069 0.000379213549455998 0.00071407543573958 0.000149634806024994 1.92033225276676e-05 0.000367245831762963 0.000960981806034215 -6.1805714372684e-05 0.000315342687256865 0.00057995641500481 0.000226688355174641 0.000957092533108144 0.0009085944392171 0.000721457116187335
"157" 0.000197129104298023 0.000375316200452199 0.000663647162604861 0.000406465585730954 0.000728950986281997 0.000150455407007423 1.39389808929365e-05 0.000366937933288613 0.000978707728058315 -8.18446722126492e-05 0.000310508713991957 0.000566865648071912 0.00020511816850625 0.000950204253205759 0.000882132769583395 0.000714686147130099
"158" 0.000195166901041729 0.000375583529901932 0.000674933579728176 0.000433078467618798 0.000741181907380138 0.000151188720046818 9.46883567239622e-06 0.000365795822206324 0.000992890760045876 -0.000102541204893372 0.000304237089221017 0.000551158069627908 0.000183486460176919 0.000939472011284884 0.000851175865909887 0.000705439094448644
"159" 0.000192433417303122 0.000372834278534402 0.000683543032296967 0.000458811937713135 0.000750608342027394 0.000151803770116507 5.74507827713558e-06 0.000363800373978777 0.00100336107864714 -0.000123838039850533 0.000296505646751375 0.000532909186307613 0.000161956999028472 0.000924932331878081 0.000815861473258416 0.00069384727515654
"160" 0.000188747779526839 0.000366939658588577 0.000689334274612179 0.000483408451107801 0.000757075835111428 0.000152248104314528 2.68635671462468e-06 0.000360924793284827 0.0010100051600063 -0.000145653066939214 0.000287314526517998 0.000512209000423014 0.000140687941318857 0.00090667895371016 0.000776378202209829 0.000680051844152229
"161" 0.000183907080520425 0.000357795392025749 0.000692182003831567 0.000506592156874256 0.0007604323910695 0.000152448958957638 1.96769287665836e-07 0.000357130761303964 0.00101275647029761 -0.000167881837883452 0.000276688793057225 0.000489164416976631 0.000119823685056904 0.000884862006481338 0.00073296068130714 0.000664188130347299
"162" 0.000177676879960372 0.000345319277963868 0.000691967311703157 0.000528075764463608 0.000760530995446755 0.000152314470839803 -1.85094238228572e-06 0.00035237289605224 0.00101161591883469 -0.00019039312925476 0.00026468254122492 0.00046389724501209 9.95001106605994e-05 0.000859682949328323 0.000685894227162368 0.000646400090454046
"163" 0.000169815819177524 0.000329462305805682 0.00068858678074603 0.000547560910871716 0.000757228216877077 0.000151734981121404 -3.59957505077297e-06 0.000346592147531297 0.00100663861446174 -0.000213026579174916 0.000251377987171652 0.000436542434138558 7.98405829961735e-05 0.000831402421038179 0.00063550189822685 0.00062682334628335
"164" 0.000160068307351726 0.000310203158171962 0.000681959344232901 0.000564749996034569 0.000750405314325737 0.000150589569698693 -5.21182405456759e-06 0.000339729258221037 0.000997933324474652 -0.000235603780011915 0.000236881743400452 0.000407255025074152 6.09532123088179e-05 0.000800326659870425 0.000582149174841342 0.000605600526427546
"165" 0.000148179889227957 0.00028755034151496 0.000672022661744065 0.000579348196601939 0.000739940978856127 0.000148746074345871 -6.85687834488318e-06 0.000331721462247524 0.000985666916872432 -0.00025792358728331 0.000221328244968005 0.000376198484786482 4.29333551599092e-05 0.000766808085352505 0.000526239131801773 0.000582864978551889
"166" 0.000133904677477528 0.000261548768786067 0.000658740583183516 0.000591074514482059 0.000725752617538383 0.00014606795644569 -8.71557932304063e-06 0.000322506641893915 0.000970055345581228 -0.000279763561131389 0.000204874454945802 0.000343550104093981 2.58634084546368e-05 0.000731236267821237 0.000468198203987884 0.000558753138277831
"167" 0.000117013951600394 0.000232270379641832 0.000642101397107977 0.000599668800671135 0.000707769524478065 0.000142415172194183 -1.09701693431917e-05 0.000312027076789795 0.000951345814765678 -0.000300903493468161 0.000187690642771062 0.000309500039970963 9.81550750504541e-06 0.000694025997157264 0.000408483711023816 0.000533402360028915
"168" 9.73019564905164e-05 0.000199823455271979 0.000622125446025189 0.000604893166391678 0.000685962490549055 0.000137659016690855 -1.37978683708884e-05 0.000300233542113333 0.000929827379487629 -0.00032110302360376 0.000169958332140826 0.000274243252416588 -5.1558918556925e-06 0.000655608186122554 0.000347561337319274 0.000506947642548321
"169" 7.46040858624315e-05 0.000164348881520259 0.000598875134963905 0.000606554488080721 0.000660340742357154 0.000131674306220059 -1.73689865743565e-05 0.000287088996811928 0.000905806626646629 -0.000340135443590628 0.000151879293299413 0.000237993169423572 -1.90098449516295e-05 0.00061642655622915 0.000285909500390636 0.000479523827367185
"170" 4.87882884304062e-05 0.000126014309355722 0.000572433872213806 0.000604491278883615 0.000630938251603833 0.000124353906451171 -2.18387669472994e-05 0.000272569622748246 0.000879605977512909 -0.000357777142844434 0.000133647582221971 0.000200960181348475 -3.17155995506149e-05 0.000576916590768811 0.00022400870508108 0.00045126693150244
"171" 1.97775440133942e-05 8.50169616028464e-05 0.000542931485754308 0.00059859624492681 0.00059785069756069 0.000115610556000805 -2.73416478388276e-05 0.000256675245921408 0.0008515564122944 -0.000373814341974772 0.000115459296816883 0.00016336913507795 -4.32548721321526e-05 0.000537508646194629 0.000162335068558825 0.000422320804335811
"172" -1.24536209593495e-05 4.15821623276982e-05 0.000510532012818523 0.000588807864698597 0.000561201292627939 0.000105378715758841 -3.3994375714032e-05 0.000239420022047319 0.000821988714268179 -0.000388051401542357 9.75092534897714e-05 0.000125442040792021 -5.36201726821924e-05 0.000498615085487651 0.000101351521076313 0.000392823928519734
"173" -4.78726787535507e-05 -4.04290424445468e-06 0.000475434407699755 0.00057512464293602 0.000521165502495111 9.36155981187591e-05 -4.18817097154916e-05 0.000220843844949028 0.000791225937359448 -0.000400318516226174 7.99864597821556e-05 8.74108664558844e-05 -6.28129745292165e-05 0.000460618306566641 4.15076489164337e-05 0.000362923503672573
"174" -8.63921800859871e-05 -5.15852912121116e-05 0.000437874572516897 0.000557595746836932 0.000477968181780511 8.03121033224063e-05 -5.10672840545525e-05 0.000201007587197161 0.000759583981608389 -0.000410462620062784 6.30613434602174e-05 4.95016816836763e-05 -7.08472416573804e-05 0.000423878462414942 -1.67690192891651e-05 0.000332769298274061
"175" -0.000127864340122607 -0.000100762012231072 0.00039811926933398 0.000536327561454399 0.000431868270623116 6.54845709383461e-05 -6.15811368552151e-05 0.000179998089666872 0.00072736153572466 -0.000418359641484954 4.68996191593445e-05 1.19480061663152e-05 -7.77413633636998e-05 0.000388713877298942 -7.30702357249021e-05 0.000302513354627959
"176" -0.000172084827856822 -0.000151268105092598 0.000356464966967993 0.000511480799472263 0.000383165868549059 4.91777198122146e-05 -7.34198299723135e-05 0.000157925405664449 0.000694839117803224 -0.000423915521610318 3.1650547991521e-05 -2.50233720626822e-05 -8.35238696090645e-05 0.000355414830616963 -0.000127022600600043 0.000272307250868979
"177" -0.000218794790609898 -0.000202788399811917 0.000313232477323499 0.000483268743667797 0.000332196573949264 3.1462358064833e-05 -8.65538644733609e-05 0.000134919078809284 0.000662283107132901 -0.000427057215055857 1.745169358104e-05 -6.11830666073355e-05 -8.82268936636933e-05 0.00032423060910656 -0.000178277186633681 0.000242311773132425
"178" -0.000267688158714434 -0.000255000146818255 0.000268767014336168 0.000451949817242238 0.000279332975529659 1.24460831430529e-05 -0.000100919550381781 0.0001111267240236 0.000629939300567003 -0.000427739461245991 4.42381831917847e-06 -9.63102406593857e-05 -9.18880592522742e-05 0.00029537196782613 -0.000226514425551545 0.000212681062293669
"179" -0.000318409015521548 -0.000307573180217233 0.000223429160941893 0.000417825115856362 0.000224969051373769 -7.75118915191038e-06 -0.000116428664777129 8.67169493206921e-05 0.000598030075484655 -0.000425943404569871 -7.33181890725019e-06 -0.000130192518272433 -9.45456403224331e-05 0.000269015277368859 -0.000271448783415363 0.000183570830568963
"180" -0.000370574093042364 -0.000360184330054262 0.000177590528061115 0.000381235425353102 0.000169514293755009 -2.8981137919149e-05 -0.000132967152469577 6.18752815838587e-05 0.000566765802081455 -0.000421675646654026 -1.77232333619155e-05 -0.000162615993518357 -9.6248876143623e-05 0.000245302718458506 -0.000312831591755149 0.000155136089609976
"181" -0.000423759714307443 -0.000412503899631831 0.000131630114273161 0.000342553034830339 0.00011340297312567 -5.10707461262075e-05 -0.000150390736924444 3.6797432909732e-05 0.000536335152914588 -0.000414965081224494 -2.66714035497582e-05 -0.000193381590340408 -9.70399183992995e-05 0.000224337638061502 -0.000350436901007679 0.000127526183846267
"182" -0.00047752222172327 -0.000464209296051323 8.59302923043186e-05 0.000302173338552568 5.70732531030071e-05 -7.38416777865262e-05 -0.000168540155449011 1.16837197414305e-05 0.000506910364164302 -0.00040585290016414 -3.41172544200977e-05 -0.000222300689246683 -9.69673568193019e-05 0.000206198001454941 -0.000384083290013319 0.000100885185775152
"183" -0.00053140667591766 -0.000514989907418098 4.08660194172701e-05 0.000260508866465746 9.63333460698995e-07 -9.70962199153826e-05 -0.000187239861883463 -1.32506574585404e-05 0.000478650830045008 -0.000394406790381195 -4.00138353008664e-05 -0.000249192763585923 -9.60765927714192e-05 0.00019093334423202 -0.0004136101642935 7.53476365684967e-05
"184" -0.000584947337194481 -0.000564547012227375 -3.18896177755883e-06 0.000217984869665752 -5.44900699874605e-05 -0.000120630757877522 -0.000206292189160072 -3.77998013418987e-05 0.000451697356506781 -0.000380710899422958 -4.43252746370135e-05 -0.000273897631906636 -9.44192145855295e-05 0.000178565460935171 -0.000438896357343687 5.10380086245256e-05
"185" -0.00063767955459424 -0.000612594025423818 -4.58802757513619e-05 0.000175033353991789 -0.000108856281742177 -0.000144231755502739 -0.000225501008243491 -6.17475463767837e-05 0.000426179204297916 -0.000364855192054059 -4.70317230828782e-05 -0.000296259435208995 -9.20374671399598e-05 0.000169091152399961 -0.000459851271410099 2.80721025941121e-05
"186" -0.000689142918822612 -0.000658857568681405 -8.68636133336999e-05 0.000132078090563974 -0.000161724120705186 -0.000167690110466386 -0.000244654483053103 -8.48904506209446e-05 0.000402217342841508 -0.000346945669007921 -4.81197924996186e-05 -0.000316144507476606 -8.89823619084536e-05 0.000162493844357626 -0.000476412098369788 6.54667971587764e-06
"187" -0.000738899685725309 -0.000703089814969786 -0.000125823497982885 8.95381676625106e-05 -0.000212691267022729 -0.000190799239831619 -0.00026354406516007 -0.00010703156049047 0.000379915885519397 -0.000327098958331804 -4.75971368861517e-05 -0.000333437543405941 -8.52962361422864e-05 0.000158733064071399 -0.000488550699582288 -1.34524091478674e-05
"188" -0.000786522251304349 -0.000745062692306603 -0.000162462855818788 4.78240733260395e-05 -0.00026139312626629 -0.00021335213449176 -0.000281954724165468 -0.000127981421468291 0.000359369361953543 -0.000305440167810079 -4.54715623459867e-05 -0.00034803739506172 -8.10223475932566e-05 0.000157753476390856 -0.000496265913625647 -3.18571842578661e-05
"189" -0.000831613573046227 -0.000784563313290384 -0.000196514531105259 7.31905950804411e-06 -0.00030747853603472 -0.000235153672725887 -0.000299683872021137 -0.000147562098268084 0.000340666965199223 -0.000282098256132123 -4.17709865553598e-05 -0.000359863048555878 -7.62036697038012e-05 0.000159490846312484 -0.000499579647707269 -4.86199635233816e-05
"190" -0.00087380628580612 -0.000821401871936766 -0.000227736409752902 -3.16124767230388e-05 -0.000350632512674519 -0.000256018564919263 -0.000316528597674147 -0.000165614395520369 0.000323880886761826 -0.000257207775049253 -3.65284016642477e-05 -0.00036885311152003 -7.08810836633651e-05 0.000163861755043927 -0.00049855129829049 -6.37079564457249e-05
"191" -0.000912764638405316 -0.000855421466700761 -0.000255924901483343 -6.86313664898921e-05 -0.000390568900814908 -0.000275774564761934 -0.000332301242794938 -0.000181991061667691 0.000309077344677162 -0.000230910065650276 -2.97868752412747e-05 -0.000374969320107947 -6.50950812319302e-05 0.000170779335804645 -0.000493259435525058 -7.71093399605008e-05
"192" -0.000948190292934412 -0.000886472966272234 -0.000280902386486019 -0.000103430778237667 -0.000427039795475654 -0.000294264366223158 -0.000346820199132267 -0.000196565982219162 0.000296312331891008 -0.000203340826059043 -2.15965122580924e-05 -0.000378190250810776 -5.88818581615352e-05 0.000180141937803759 -0.000483808949201462 -8.88244950056778e-05
"193" -0.000979818148869863 -0.00091444612018984 -0.000302530486723872 -0.000135733122414147 -0.000459832739513849 -0.000311346171580924 -0.000359925545190329 -0.000209226222367134 0.000285633042141828 -0.000174645380096979 -1.20195075719687e-05 -0.00037852024266433 -5.22792009828367e-05 0.000191841059364111 -0.000470329995954089 -9.88796696659411e-05
"194" -0.00100742586855586 -0.000939244084657148 -0.000320700286914571 -0.00016529937948454 -0.000488767106613092 -0.000326892321899774 -0.000371464343614217 -0.000219885588612682 0.000277072048170502 -0.000144965607617372 -1.12154370506973e-06 -0.00037598184349792 -4.53210209775317e-05 0.000205762532717392 -0.000452979868348477 -0.000107313441964057
"195" -0.00103083033931287 -0.000960794355301746 -0.000335344831849009 -0.000191921920356589 -0.00051370675703634 -0.000340797797938597 -0.000381306037717086 -0.000228468459807529 0.000270656750936407 -0.000114443885917401 1.10226389014882e-05 -0.000370621027579835 -3.80428376974407e-05 0.000221781833077543 -0.000431930397491457 -0.000114181814807732
"196" -0.00104988609349876 -0.000979052287891776 -0.000346420059672389 -0.000215430496850259 -0.000534546740869667 -0.000352967498682354 -0.000389334062563538 -0.000234921232597435 0.000266396796554962 -8.32163534282222e-05 2.43350059999619e-05 -0.00036250224955411 -3.04749459816444e-05 0.000239768625925553 -0.000407381798551805 -0.000119552983855637
"197" -0.00106448502248595 -0.000993992727868568 -0.000353930563165028 -0.00023568826787276 -0.000551221353696917 -0.000363331679351969 -0.000395455144618032 -0.000239213033938349 0.000264295813897279 -5.1425958294739e-05 3.87317270015301e-05 -0.000351711940438916 -2.26517600629513e-05 0.00025958234992428 -0.000379549543333837 -0.000123513760937476
"198" -0.00107456209767653 -0.00100561573165195 -0.000357903339017293 -0.00025259765896503 -0.000563705433541242 -0.000371835021187487 -0.000399591442374527 -0.000241326322121561 0.000264344000256978 -1.9203950838402e-05 5.41280996927752e-05 -0.000338355420161115 -1.46026196446053e-05 0.000281077995001008 -0.000348671055802365 -0.000126156591926527
"199" -0.00108008723794678 -0.00101394654646652 -0.000358403571599392 -0.000266092229807349 -0.000572002464467467 -0.000378435683153525 -0.000401682211519717 -0.000241265147575507 0.000266520536723097 1.33180787844929e-05 7.04296049673721e-05 -0.000322558131667232 -6.35688216575843e-06 0.000304104555210179 -0.000314998283486201 -0.000127586857972881
"200" -0.00108106472486391 -0.00101903215403584 -0.000355519793367528 -0.00027614645242629 -0.000576161260185119 -0.00038311561070235 -0.00040168862776142 -0.00023904626196553 0.000270789071654826 4.60100352609611e-05 8.75467525099218e-05 -0.00030446014280758 2.05559491064513e-06 0.000328502558724948 -0.000278800279191816 -0.000127919447110375
"201" -0.00107753931980079 -0.0010209461158281 -0.000349376460685069 -0.00028275888585222 -0.000576253270216271 -0.000385868077186748 -0.000399589321377298 -0.000234713235145812 0.00027710336718331 7.87465486319543e-05 0.000105381440181206 -0.000284219138732752 1.06112621434822e-05 0.000354104574280255 -0.000240361220686783 -0.000127272780802211
"202" -0.0010695904161878 -0.00101978239118798 -0.000340128849507167 -0.000285967180170198 -0.000572395117740327 -0.000386702648132465 -0.000395382570135405 -0.000228318914933509 0.000285403042482354 0.000111413015694204 0.000123842879169836 -0.000262007997001205 1.92801045381143e-05 0.000380740642056001 -0.000199979379593559 -0.000125773805359374
"203" -0.00105732517127833 -0.00101566058268439 -0.000327949966548084 -0.000285834293844922 -0.000564723835936859 -0.000385641945033394 -0.000389084692928052 -0.000219933616707764 0.000295613855511891 0.000143893361737789 0.000142833827356167 -0.000238011610990177 2.80420734389563e-05 0.000408226280094793 -0.000157961981929854 -0.000123550074723367
"204" -0.00104088892914905 -0.00100873486490071 -0.000313045307637362 -0.000282454349228365 -0.000553417686559344 -0.000382726523711268 -0.000380726554497403 -0.000209642429294581 0.000307651112858136 0.000176078178701094 0.000162256708711052 -0.000212424950010372 3.68722449212003e-05 0.000436378044677026 -0.000114627547390636 -0.000120732920061249
"205" -0.00102045759291004 -0.00099916734480704 -0.000295636149937788 -0.000275950227627624 -0.000538675586734581 -0.000378006074847354 -0.000370360634980203 -0.000197547864113117 0.000321414978352294 0.000207865657561421 0.000182016380747796 -0.00018545530564597 4.57489989483722e-05 0.000465002217135231 -7.03007628012787e-05 -0.000117453089229802
"206" -0.000996240622448855 -0.000987161378913109 -0.000275964222660689 -0.000266466452010913 -0.00052072357375659 -0.000371545375371368 -0.000358047668855747 -0.000183767256734884 0.00033679423762698 0.000239156220544162 0.00020201860460033 -0.000157316217780363 5.46545030294766e-05 0.00049390348523816 -2.53146533095672e-05 -0.000113841478241709
"207" -0.000968468133590946 -0.000972936701689885 -0.000254293444081968 -0.000254172431286949 -0.000499817526458439 -0.000363418486336679 -0.000343869951915294 -0.000168424763301589 0.000353662976348464 0.000269854817391519 0.000222171152836252 -0.000128227023929678 6.35714173722856e-05 0.000522875984346231 1.99901931909714e-05 -0.00011002865124301
"208" -0.000937408019611337 -0.000956739404494588 -0.000230900825564962 -0.000239260309840403 -0.000476235496837969 -0.000353713275107918 -0.000327923116226334 -0.000151660707221479 0.000371883377965101 0.000299872260837017 0.000242376127534697 -9.84122697543909e-05 7.24820296110927e-05 0.000551709236920601 6.52809372928516e-05 -0.000106144487748893
"209" -0.000903349248091433 -0.000938835959811007 -0.000206073820670425 -0.00022193792756765 -0.000450271806433214 -0.00034252651272182 -0.000310316189356196 -0.000133633967409921 0.000391308077349967 0.000329129344931246 0.000262544037180399 -6.80948250718902e-05 8.13729996565424e-05 0.000580195631176621 0.000110209988374559 -0.000102310423914104
"210" -0.000866604442846992 -0.000919515681023781 -0.000180111268276083 -0.000202435311235675 -0.00042224271175455 -0.000329962148650372 -0.000291168631630969 -0.000114498914476518 0.000411773301617385 0.000357542789575807 0.00028258195335877 -3.75050913577027e-05 9.02309591987419e-05 0.00060811475054618 0.000154442530938087 -9.86488484227896e-05
"211" -0.000827510151218488 -0.000899084321330533 -0.000153317457283105 -0.000180995335756953 -0.000392480318311722 -0.000316134253769748 -0.000270612748627992 -9.44302865049871e-05 0.000433108057329804 0.000385039896046106 0.000302399986743778 -6.8679902582655e-06 9.90446128695224e-05 0.00063525189294713 0.000197646303344258 -9.52748175855562e-05
"212" -0.000786422188855198 -0.000877865698836069 -0.000126003321105801 -0.000157875895616205 -0.00036133140453547 -0.000301166721309663 -0.000248789405013575 -7.3605921238681e-05 0.000455129002620095 0.000411545603418214 0.0003219071431317 2.35946369990325e-05 0.000107802123308208 0.000661385843947078 0.000239486645962905 -9.23032880171643e-05
"213" -0.000743713535982569 -0.000856191992061325 -9.84762546641481e-05 -0.000133343889268619 -0.000329146682244787 -0.000285186079560075 -0.000225854257686179 -5.22110198356725e-05 0.00047764439818184 0.000436996637353345 0.000341013426063526 5.36615967676085e-05 0.000116493654320296 0.000686299429632187 0.00027964701600587 -8.98369265669796e-05
"214" -0.000699770928981873 -0.000834411319848093 -7.10422981541464e-05 -0.000107677027606856 -0.000296291104412301 -0.000268329845859986 -0.000201966452414115 -3.04311146853449e-05 0.000500448500191081 0.000461322397155614 0.000359630457608395 8.31231072929328e-05 0.000125109397400062 0.000709774205695984 0.00031781539629839 -8.79799123720199e-05
"215" -0.000654989487586925 -0.000812868504470765 -4.40079436444281e-05 -8.1159045860162e-05 -0.000263130075389584 -0.000250738479005803 -0.000177291656647428 -8.46141063722345e-06 0.000523334176039131 0.000484464169693727 0.000377669237627074 0.000111770266531798 0.000133639503374687 0.000731593678031996 0.000353699066145457 -8.68269809856206e-05
"216" -0.000609774492153928 -0.000791915813074036 -1.76616062143301e-05 -5.40765851883498e-05 -0.000230026762136578 -0.000232552896787957 -0.000152005717491459 1.35107255554028e-05 0.000546083630809266 0.000506359026434271 0.000395042340098065 0.000139406208080992 0.000142076519209597 0.000751547306656226 0.000387012868244023 -8.6464706255902e-05
"217" -0.000564528986902352 -0.000771891403678134 7.71909542617138e-06 -2.67216362108733e-05 -0.000197347175360894 -0.000213923634953208 -0.000126284419294996 3.52955433189985e-05 0.00056847455011336 0.000526947730468146 0.000411661891574513 0.000165843134852627 0.000150407093353676 0.00076943049408507 0.000417498198553129 -8.69797951047132e-05
"218" -0.000519659879483484 -0.000753132797463338 3.18606995148122e-05 6.18607775697015e-07 -0.000165444806158997 -0.000195002641901364 -0.000100308641942456 5.67024165015527e-05 0.000590281187894878 0.00054617234706805 0.000427441445059415 0.000190905073289891 0.000158621563033453 0.000785045223446321 0.000444906861680503 -8.84447005257501e-05
"219" -0.000475565424607098 -0.000735956210115544 5.45235334693641e-05 2.76566169784631e-05 -0.00013466609616109 -0.00017593676063123 -7.42631473701145e-05 7.75522294447855e-05 0.000611274614709823 0.000563980968645763 0.000442295925541102 0.000214424650116546 0.000166709412688997 0.000798203312076706 0.000469025493573146 -9.09290492414852e-05
"220" -0.000432630211631404 -0.000720656510113046 7.54784930836425e-05 5.41156303629007e-05 -0.000105342333014705 -0.000156880394702368 -4.83267533236791e-05 9.76760286736504e-05 0.000631227242990509 0.000580316237757255 0.000456144025969729 0.00023625397207335 0.000174655392978566 0.000808727382788927 0.000489653830970456 -9.44947620705976e-05
"221" -0.000391229097649059 -0.000707507755317281 9.45202530571577e-05 7.97187600390632e-05 -7.77815959533349e-05 -0.000137985062020385 -2.2686525668887e-05 0.000116904481293124 0.000649911101753301 0.000595127376310787 0.000468898162483118 0.000256250991112405 0.000182447282576203 0.000816455675172784 0.000506624708268319 -9.91942765722612e-05
"222" -0.000351709372589223 -0.000696748558951127 0.000111475321785727 0.000104208539440632 -5.2281837324562e-05 -0.00011939662484731 2.48340651683945e-06 0.000135089332743478 0.000667102658347839 0.000608360659781305 0.000480486051187334 0.000274294549512161 0.000190065781451081 0.0008212378555493 0.000519802702636511 -0.000105071901269788
"223" -0.000314400850765684 -0.000688581475839391 0.000126190570442029 0.00012733505262699 -2.91034444952017e-05 -0.0001012624392228 2.70043215626799e-05 0.000152092563186253 0.000682583139768992 0.000619969836770452 0.000490827750392862 0.000290277065170348 0.000197495995636006 0.000822946352098889 0.000529073298272857 -0.000112163535984832
"224" -0.000279598278691367 -0.00068317182562927 0.000138546487044335 0.000148868406498001 -8.48653814797686e-06 -8.37237785627399e-05 5.07114413496606e-05 0.000167789622665081 0.000696142537048756 0.000629907516979593 0.000499850957771916 0.00030410519277584 0.000204716138928895 0.000821462338631582 0.000534367585005365 -0.000120499705506799
"225" -0.000247567566960349 -0.000680640288675344 0.000148456712587747 0.000168591768927767 9.36185048264443e-06 -6.69142866881016e-05 7.34371604561462e-05 0.00018207316939827 0.000707578601286575 0.000638129647809968 0.000507487229771202 0.000315705412192223 0.000211705393367541 0.000816701284932018 0.000535638343256065 -0.000130087706561889
"226" -0.000218534031279426 -0.000681060917060094 0.000155855780669091 0.000186313383254575 2.42684613066814e-05 -5.09640696686769e-05 9.50353881339157e-05 0.00019485728181063 0.00071670538802934 0.000644599210125062 0.000513676168982601 0.000325021751687934 0.000218442385169309 0.000808589154587667 0.000532874800475835 -0.000140944297098639
"227" -0.000192686716477049 -0.000684460592269868 0.000160719838944951 0.000201861055545455 3.60947055972033e-05 -3.59920783737887e-05 0.000115358808905624 0.000206075482548393 0.0007233490287584 0.000649273238646583 0.00051836117175407 0.000332008077514812 0.000224900521212538 0.000797081210373983 0.000526101454971032 -0.000153058370112878
"228" -0.000170164246121375 -0.000690809163789787 0.000163055678640371 0.000215085185562942 4.47411602615753e-05 -2.2109064385184e-05 0.000134280350953552 0.00021567394859232 0.00072734979702781 0.000652126041628416 0.000521488678657986 0.000336644429489888 0.000231054043566752 0.000782155992799163 0.000515381038678807 -0.000166419415178029
"229" -0.000151067619141253 -0.000700035095037571 0.000162896067854134 0.000225861903803968 5.01414642371777e-05 -9.4205476327427e-06 0.000151677868638925 0.000223626133339976 0.000728568057229272 0.000653127521912347 0.000523016144190814 0.000338922692486305 0.000236874591795107 0.000763817118150937 0.000500806367297946 -0.000180998028062234
"230" -0.0001354419201991 -0.000712006081317873 0.000160308752721176 0.000234096447868314 5.22799486354996e-05 1.98653144041623e-06 0.000167448034238803 0.000229925377822295 0.000726887308394491 0.000652255564981946 0.000522911107291746 0.000338855095051244 0.00024233404796913 0.000742096241884218 0.000482501318651101 -0.000196760562107738
"231" -0.000123290501259672 -0.000726545487403012 0.000155389652254309 0.000239717822055422 5.11669342701289e-05 1.20314914950962e-05 0.000181506813313108 0.000234585303258867 0.000722206415707541 0.00064949406607249 0.000521146871234036 0.000336463686225106 0.000247403569509259 0.000717050339783256 0.000460628575633261 -0.000213657234985058
"232" -0.000114568150862197 -0.000743430898712728 0.000148262226936808 0.000242685030497115 4.68558999493699e-05 2.06485254267002e-05 0.000193775497914859 0.000237640386625125 0.000714453132803199 0.000644838886729204 0.000517707254587736 0.000331797361568245 0.000252053487790797 0.000688764553286001 0.000435377694090546 -0.000231625051805911
"233" -0.000109177400455847 -0.000762382509290124 0.000139074790441259 0.000242982354591658 3.94463971708064e-05 2.77840331964331e-05 0.000204202328102834 0.000239143431892257 0.000703576509360288 0.000638286078011716 0.000512584168351189 0.000324910927971168 0.000256253563881883 0.000657348409767378 0.000406968969040888 -0.00025059418826872
"234" -0.000106976686343698 -0.000783095951701669 0.000128003009766414 0.000240628875010053 2.90653761791914e-05 3.33992229617385e-05 0.000212749246850196 0.000239164135370191 0.000689551819562155 0.000629842318323263 0.00050578183339461 0.000315879614315851 0.000259974091710151 0.000622942087108037 0.000375650822128185 -0.000270481682177283
"235" -0.000107781215440283 -0.000805211723000068 0.000115234524181952 0.000235660582838243 1.58752911736018e-05 3.7469598010927e-05 0.000219395044225782 0.000237798009438479 0.000672378025473449 0.000619522977108744 0.000497315303139525 0.00030478934201752 0.000263182888491854 0.000585707704121302 0.000341693743324887 -0.00029118863897864
"236" -0.000111361060890465 -0.000828348891316149 0.000100981207529618 0.000228148783149525 7.85962571744543e-08 3.99821239822885e-05 0.00022413941690765 0.000235143546253518 0.000652084105735193 0.000607351976420033 0.000487208421660029 0.000291745150307776 0.000265858835870717 0.000545832778318126 0.000305394314259621 -0.000312611263452387
"237" -0.00011745129034621 -0.00085209190969521 8.54695093688954e-05 0.000218183753602977 -1.80969387688509e-05 4.09395740719392e-05 0.000226994158560235 0.000231320495852773 0.0006287206547596 0.000593361459214228 0.000475496478645954 0.000276857352181327 0.000267968967695168 0.000503529553438157 0.000267065193348927 -0.000334631031021808
"238" -0.000125752488765888 -0.000876006404895169 6.89349544585229e-05 0.000205886395597252 -3.83995677459626e-05 4.0359812234093e-05 0.000227994854923438 0.000226466408553404 0.000602370053464738 0.000577591636159246 0.000462222938320361 0.000260250348263395 0.000269490142439081 0.000459029885816293 0.000227039223587581 -0.000357122757625177
"239" -0.000135930279870108 -0.000899636445626038 5.16216634298488e-05 0.000191391412857084 -6.05490449351973e-05 3.82714000914728e-05 0.000227191495779027 0.000220715938247321 0.000573131549544379 0.000560094217878679 0.000447445118971365 0.000242060394637891 0.000270399527766803 0.000412586215556681 0.000185658527061694 -0.000379948593526029
"240" -0.000147636014682951 -0.000922520221114684 3.37804703037358e-05 0.00017485970803535 -8.42429669940783e-05 3.4716787613517e-05 0.000224650129896781 0.000214221920053234 0.000541136795958003 0.000540928728854568 0.000431225562969148 0.000222427829821179 0.000270678110855428 0.000364468959743235 0.000143281517563869 -0.000402965177424782
"241" -0.000160489141879926 -0.00094418642711187 1.56627815029152e-05 0.000156467602447727 -0.000109166358386477 2.9750582093869e-05 0.000220454222974124 0.000207131063892503 0.000506536392243361 0.000520157600402175 0.000413643570389765 0.000201506882724252 0.000270307321767245 0.000314966563016602 0.000100269333917293 -0.000426014493231293
"242" -0.000174105890662302 -0.000964171867736683 -2.48572925989535e-06 0.00013640413285858 -0.000134992175903039 2.34407346956563e-05 0.000214700298106425 0.000199604286425918 0.000469503906488686 0.000497864460938817 0.000394779304729003 0.000179451816970934 0.000269272791722672 0.000264377381222057 5.69843876514313e-05 -0.000448941647836145
"243" -0.000188087762796473 -0.000982012805339526 -2.04160850003084e-05 0.000114873071252346 -0.000161380320027024 1.58623835145595e-05 0.000207499333338879 0.000191790064547228 0.000430234612625011 0.000474127956380392 0.000374727579438084 0.000156426737320466 0.000267561284655673 0.000213014961465273 1.37963675264544e-05 -0.000471575855729753
"244" -0.000202034452709819 -0.000997265608161228 -3.78991971566839e-05 9.20906819945132e-05 -0.000187989643191109 7.10259097021556e-06 0.000198970321163005 0.000183845533962186 0.000388939596536943 0.000449045264915605 0.000353585445429477 0.000132595928348175 0.000265168481047464 0.000161194202737429 -2.89362755505708e-05 -0.000493748100109576
"245" -0.000215550978608675 -0.00100950038017445 -5.47080014541607e-05 6.82706954542178e-05 -0.000214476577648419 -2.74505789775242e-06 0.000189246951189946 0.000175911342216808 0.000345852084334274 0.000422712296231603 0.000331457640839875 0.000108128358594542 0.000262087696250027 0.000109246693512943 -7.08499428704563e-05 -0.000515284877479434
"246" -0.000228251760163536 -0.00101831100239959 -7.06304556869999e-05 4.364271574149e-05 -0.000240497460276072 -1.35767959410631e-05 0.000178468500328038 0.000168128432720387 0.000301211712610642 0.000395239644170367 0.000308458267305288 8.31931680022377e-05 0.000258320254414732 5.74949424396056e-05 -0.000111595970480787 -0.000536002258289538
"247" -0.000239760212946995 -0.0010233254683087 -8.54721248758501e-05 1.842689226788e-05 -0.000265715625234317 -2.52914335697151e-05 0.000166781304551435 0.000160621117921737 0.000255278242205946 0.000366734195995951 0.000284701614547809 5.79592334630824e-05 0.00025386615805375 6.27852925492839e-06 -0.000150840671347379 -0.000555728669291075
"248" -0.000249725968608319 -0.00102419958618718 -9.90636818944515e-05 -7.14975423644221e-06 -0.00028980597485321 -3.77740175936589e-05 0.000154338251474616 0.000153508521740811 0.000208320525981804 0.000337320917226005 0.000260310542651267 3.25939965202553e-05 0.000248736784168358 -4.40824492704175e-05 -0.000188258943470697 -0.000574281789063401
"249" -0.000257815400892292 -0.00102062809706518 -0.000111244418455692 -3.28721648465802e-05 -0.000312457228529453 -5.09134092750098e-05 0.000141293385128741 0.000146884512558302 0.000160609334113433 0.000307115188183001 0.000235407445506011 7.26012085250955e-06 0.00024294177996032 -9.32558395379949e-05 -0.000223540841777442 -0.000591480521685053
"250" -0.000263724053266269 -0.0010123453627489 -0.000121883866951557 -5.85244538335852e-05 -0.000333368318378151 -6.4594169749809e-05 0.000127803241095939 0.000140837949367859 0.000112429406304862 0.00027624943254683 0.00021011758258482 -1.78815862738717e-05 0.000236493096761695 -0.000140928155690867 -0.000256401169620939 -0.000607154815076345
"251" -0.000267182987922864 -0.000999131252746397 -0.000130876330409835 -8.3902699819296e-05 -0.000352261091147294 -7.87005645813191e-05 0.000114024526448249 0.000135434418906494 6.40614737604681e-05 0.000244852833358258 0.000184570759869414 -4.26758332138451e-05 0.000229408931238537 -0.000186793208500455 -0.00028657290226683 -0.000621128539965334
"252" -0.00026794980329305 -0.000980807510447679 -0.000138135132329875 -0.000108816432531143 -0.000368877999671005 -9.31176939640427e-05 0.000100108074474993 0.000130724641403548 1.57904772374533e-05 0.000213057724294608 0.000158890173482418 -6.6972878697288e-05 0.000221709731267452 -0.000230544297961511 -0.000313812885399111 -0.000633238434550861
"253" -0.000265827205957466 -0.000957248829515437 -0.000143606743899436 -0.000133082501729977 -0.000382984393456096 -0.000107734598910928 8.6206371050608e-05 0.000126732848435865 -3.21015706789398e-05 0.000180992806883537 0.000133203383809433 -9.06348147356488e-05 0.000213416386864687 -0.00027190637097096 -0.000337897499923361 -0.000643323895155359
"254" -0.000260648588473181 -0.000928377956682602 -0.000147257300154871 -0.000156535096190093 -0.000394369855712381 -0.000122440756016811 7.24606741136817e-05 0.00012347116143766 -7.9334393748747e-05 0.000148793273800297 0.000107638120866122 -0.000113530756297693 0.000204554905418956 -0.000310609728173598 -0.000358644777468427 -0.000651233639633372
"255" -0.000252294903715829 -0.000894166649223937 -0.000149087049379565 -0.000179021077387765 -0.00040285407671988 -0.000137131248225457 5.90115545093756e-05 0.000120926613706671 -0.000125639603457979 0.000116594468799672 8.23184230883785e-05 -0.000135536739323089 0.000195150661871855 -0.000346404897444951 -0.000375880730539714 -0.000656826899560827
"256" -0.00024068387312697 -0.000854639498847937 -0.000149111208878603 -0.000200411741473481 -0.000408281247136815 -0.000151711406306427 4.59801681251335e-05 0.000119071158074123 -0.000170750573881392 8.45235954553512e-05 5.73600911530289e-05 -0.000156543876807856 0.000185225852321182 -0.000379063936707778 -0.000389477566351391 -0.000659972744130286
"257" -0.000225779738582597 -0.00080987257768103 -0.000147382664845202 -0.000220585080486533 -0.00041053062811568 -0.000166079862621787 3.34934307190724e-05 0.000117853017088997 -0.000214418702974917 5.27090398206578e-05 3.28820810889117e-05 -0.000176451115611462 0.000174811213561642 -0.000408378682090519 -0.000399330073269973 -0.000660556582960522
"258" -0.000207579771964582 -0.000759995669354919 -0.000143974009980773 -0.000239445430456715 -0.000409506861248231 -0.000180153336332466 2.16563295909055e-05 0.000117201521824423 -0.000256401410597714 2.12762316057718e-05 8.99705109335017e-06 -0.000195173554650464 0.000163930030353397 -0.000434166722167323 -0.000405367142549526 -0.00065847347441362
"259" -0.000186132678136692 -0.000705187559432369 -0.000138986678913367 -0.000256910428331821 -0.000405153077848297 -0.000193852765447338 1.0565599496603e-05 0.000117030967352439 -0.000296472419438238 -9.65667977879509e-06 -1.41895238403858e-05 -0.000212637827894889 0.00015260795777936 -0.000456274203369346 -0.000407546866997048 -0.000653633602238314
"260" -0.000161522136914574 -0.000645680246576001 -0.000132538299194243 -0.000272917932643944 -0.000397438647747761 -0.000207100408820698 3.06741093313539e-07 0.00011723861209135 -0.000334426707430735 -3.99772685151784e-05 -3.65771450776858e-05 -0.000228782708605282 0.000140869584987171 -0.000474568095129481 -0.000405867801948149 -0.000645971408361594
"261" -0.000133877626044036 -0.000581754051162887 -0.000124771194859559 -0.000287429288870536 -0.000386372803038307 -0.00021983738853905 -9.04944333863517e-06 0.000117699889119292 -0.000370067785635362 -6.95776252912895e-05 -5.80694759000345e-05 -0.000243564904420509 0.000128735575775357 -0.00048894708886241 -0.000400349613429896 -0.000635432893176444
"262" -0.000103359654559534 -0.000513737592961978 -0.000115853001000404 -0.000300415077786637 -0.000371992404057803 -0.000232003331303108 -1.74451781638122e-05 0.000118283660058555 -0.000403226953192858 -9.83542567437205e-05 -7.85806109188023e-05 -0.000256950782062704 0.000116225837339977 -0.000499338300478732 -0.000391054198371038 -0.000621984723776457
"263" -7.01682733716547e-05 -0.000442007895681103 -0.000105961309848846 -0.000311871440799372 -0.000354369554308605 -0.000243552067566151 -2.48350730441122e-05 0.000118849218068929 -0.000433749702523008 -0.00012621776788806 -9.80285339548289e-05 -0.000268925396656338 0.000103355823601151 -0.000505700469790467 -0.00037808000346919 -0.000605613823184074
"264" -3.45386540574794e-05 -0.000366986738726566 -9.52981779577282e-05 -0.000321808822928988 -0.000333605445829582 -0.000254443467625662 -3.11912064100963e-05 0.000119235963365765 -0.000461505664412651 -0.00015308603915483 -0.000116342004602941 -0.000279486570826601 9.01425509218403e-05 -0.000508020603740237 -0.000361544041976944 -0.000586334502748526
"265" 3.25900565956271e-06 -0.000289136818544045 -8.40677898096309e-05 -0.000330255351059303 -0.000309842891545503 -0.000264645521570662 -3.64959331791222e-05 0.000119282974528535 -0.00048638258932579 -0.000178880800733187 -0.000133456512106315 -0.000288646704125585 7.65903760795892e-05 -0.000506316202992486 -0.000341613872829583 -0.000564180428229729
"266" 4.29290243859919e-05 -0.000208963781053055 -7.24993582398192e-05 -0.00033725650382174 -0.000283247070149597 -0.000274136643550785 -4.0749010425752e-05 0.000118820359435812 -0.000508296809015851 -0.000203539837788961 -0.000149315648882086 -0.000296431635104024 6.27113730248834e-05 -0.000500638535419133 -0.000318472094193551 -0.000539205230821625
"267" 8.41463061246504e-05 -0.000127004450907688 -6.08164654904232e-05 -0.000342871201521449 -0.000254017765312901 -0.000282902920445735 -4.39595144223787e-05 0.000117682914947292 -0.000527182490132482 -0.000227003984413846 -0.000163875438328646 -0.00030288144449768 4.85094130977707e-05 -0.000491066366777598 -0.000292341575756815 -0.000511493261273342
"268" 0.000126560119373979 -4.38363845545437e-05 -4.92540809511732e-05 -0.000347170672313922 -0.000222382930382457 -0.00029093673607183 -4.61539372780633e-05 0.00011569306626188 -0.000543000639334118 -0.000249225795249181 -0.000177094797473269 -0.000308049883901708 3.39843258202944e-05 -0.000477716038946735 -0.000263472963459478 -0.000481149269719063
"269" 0.000169804249346178 3.99451536474301e-05 -3.8057828981494e-05 -0.000350244004520619 -0.000188596999113701 -0.00029824312092726 -4.73676048302811e-05 0.000112681800922382 -0.000555730597519552 -0.000270176647369265 -0.000188950204907557 -0.000311998478186968 1.91350712023287e-05 -0.000460725964248195 -0.000232137667052747 -0.000448306586217557
"270" 0.000213487777975223 0.000123712562676567 -2.74577196815457e-05 -0.000352185941935933 -0.00015294240342744 -0.000304829341870671 -4.76525843700715e-05 0.000108485089670549 -0.000565379681768783 -0.00028982232713576 -0.000199419159845283 -0.000314806581860521 3.95692913411575e-06 -0.000440267885495779 -0.000198644140269897 -0.000413123532113208
"271" 0.000257212098933346 0.000206822157052551 -1.76859051330067e-05 -0.000353108714590282 -0.000115725014241252 -0.000310713296091788 -4.70691097722619e-05 0.000102943224854686 -0.000571974967806997 -0.000308150445623739 -0.00020849231252145 -0.000316556184915177 -1.15542312692302e-05 -0.000416539920977002 -0.000163309738209414 -0.000375775022057321
"272" 0.000300564909492499 0.000288625576210165 -8.9736734967997e-06 -0.000353125261401731 -7.72678559806902e-05 -0.000315917121880738 -4.56894669366246e-05 9.59120949469591e-05 -0.000575568716823265 -0.000325151484622173 -0.000216173940032689 -0.000317342962505251 -2.74047331545502e-05 -0.00038976658932055 -0.000126480316071793 -0.000336467371059538
"273" 0.000343126292229599 0.000368453520379338 -1.53193650372835e-06 -0.000352360036568605 -3.79165919658197e-05 -0.000320471141617644 -4.35906836498698e-05 8.72525251856875e-05 -0.000576232646662239 -0.000340828082001873 -0.000222471314744793 -0.00031726664177155 -4.36019151283161e-05 -0.000360200248051584 -8.85205550243956e-05 -0.000295428713590918
"274" 0.000384484186871821 0.000445653677469757 4.43226629511075e-06 -0.000350943742637878 1.97650819239082e-06 -0.000324408836365195 -4.08595400935951e-05 7.6840587826111e-05 -0.000574059842796129 -0.000355187475763325 -0.000227400742164461 -0.000316434750174356 -6.0153378976506e-05 -0.000328112502011382 -4.98023883284323e-05 -0.000252904540894852
"275" 0.000424219109701301 0.000519576095561343 8.73595434677948e-06 -0.000349006603271769 4.20376053183524e-05 -0.000327771341407054 -3.75959550969452e-05 6.45773689494958e-05 -0.000569164256521931 -0.000368250231976524 -0.000230992580484387 -0.000314957478822469 -7.70658406682822e-05 -0.000293799855737608 -1.07149167767426e-05 -0.000209163439136713
"276" 0.000461925934641105 0.00058958776572845 1.12095359600465e-05 -0.00034668533476572 8.18908885347132e-05 -0.000330601861115903 -3.38958183559697e-05 5.03724790521067e-05 -0.000561678505079833 -0.000380040649739426 -0.000233283407149998 -0.000312948606615919 -9.4341071002449e-05 -0.000257572865265942 2.83526692080436e-05 -0.000164487288995185
"277" 0.000497207578493325 0.000655081089960038 1.17088104547383e-05 -0.000344112647143329 0.000121159374379946 -0.00033294364918412 -2.98662515558248e-05 3.41644252128405e-05 -0.000551748281408816 -0.000390587524549191 -0.000234312368486223 -0.000310517632568487 -0.000111982163435734 -0.000219763045026038 6.69996444895282e-05 -0.000119175467551692
"278" 0.000529683708601397 0.000715485949570216 1.0109665188219e-05 -0.000341420530027107 0.000159464080551433 -0.000334850489353649 -2.56078854967794e-05 1.59080611052601e-05 -0.000539539621213034 -0.000399927331611363 -0.000234131151006321 -0.000307777453663174 -0.000129987360231809 -0.000180708503954486 0.000104836082839562 -7.35428150372946e-05
"279" 0.000559005240971978 0.000770266405454182 6.31420165077617e-06 -0.000338740968915106 0.000196429313502538 -0.000336367505120467 -2.12310519275373e-05 -4.41022286818196e-06 -0.000525233461351584 -0.000408097578564667 -0.000232797457144791 -0.00030484087848966 -0.000148348470092223 -0.000140767447321956 0.000141468551878346 -2.79056107813673e-05
"280" 0.000584833624411065 0.000818942546187836 2.53489312372621e-07 -0.00033619612209301 0.00023168814753807 -0.000337550659539038 -1.68409422885062e-05 -2.67879368869536e-05 -0.000509021019560441 -0.000415139231584418 -0.000230370834490888 -0.000301808973930077 -0.000167056616590732 -0.000100291823914741 0.000176517978047821 1.74096624871091e-05
"281" 0.000606873444343185 0.000861086063638424 -8.11182424296206e-06 -0.000333901449979246 0.000264897186151962 -0.000338445296577742 -1.25401534191813e-05 -5.11886409747155e-05 -0.000491101456131386 -0.000421100923583639 -0.000226917826600391 -0.0002987793765293 -0.000186092257749023 -5.96470354127429e-05 0.000209618166926791 6.20718063663729e-05
"282" 0.0006248602909944 0.000896338408115221 -1.87935970747853e-05 -0.000331965867831112 0.000295720007899854 -0.000339101948169966 -8.42672403933508e-06 -7.75579946635087e-05 -0.00047168594988637 -0.000426023907055191 -0.000222510068619464 -0.00029584423222589 -0.00020543486694617 -1.91984501750324e-05 0.000240423759593324 0.000105754934382766
"283" 0.000638566161919754 0.000924402833348352 -3.17764652387343e-05 -0.000330484117773535 0.000323850869690532 -0.00033956798737106 -4.59590474929933e-06 -0.000105811183449271 -0.000450995528302068 -0.000429952401890304 -0.000217219774574989 -0.000293084721016103 -0.000225052070862551 2.06948091648707e-05 0.000268603379962458 0.000148134970557047
"284" 0.000647807632894506 0.000945066955373882 -4.70053010502062e-05 -0.000329544501450001 0.000349002185363988 -0.00033988963409505 -1.13265301014224e-06 -0.000135834688331839 -0.000429247855370927 -0.000432932505862708 -0.000211120765610893 -0.000290570062073382 -0.00024490867361268 5.96814136169409e-05 0.000293863334382911 0.000188899491100858
"285" 0.000652440113443717 0.000958186744713535 -6.44091056715638e-05 -0.000329218481377871 0.000370922115734531 -0.000340104314018903 1.88458013742265e-06 -0.000167496166873209 -0.000406670590869741 -0.000434998741082362 -0.000204291107612792 -0.000288359932707921 -0.000264957473686278 9.74203742976254e-05 0.000315929203951339 0.000227743353950334
"286" 0.000652378484428521 0.000963707970188402 -8.38739163452869e-05 -0.000329564529627164 0.000389397075910739 -0.00034024864654616 4.38449061645611e-06 -0.000200637129144936 -0.00038348639651519 -0.000436193546083579 -0.000196808354852435 -0.000286502370018495 -0.000285150811037187 0.000133577447948847 0.000334566772967881 0.000264381696078851
"287" 0.000647571663496145 0.000961651307790646 -0.00010527111969166 -0.00033062503837211 0.000404241543774405 -0.00034035561040237 6.31131406400511e-06 -0.00023507538089962 -0.000359922363926658 -0.000436553278256575 -0.000188744606323792 -0.000285030484022679 -0.000305427349255147 0.000167841980493223 0.000349574333617597 0.000298547033995429
"288" 0.00063803232316707 0.000952121437015127 -0.00012843420337761 -0.000332428846978293 0.000415312890675978 -0.000340447698793922 7.61876610962871e-06 -0.000270612818478853 -0.000336198795032711 -0.000436102065896746 -0.000180179930508666 -0.000283964560022241 -0.000325717223961791 0.000199923416438933 0.000360788818070846 0.000329992388120831
"289" 0.000623815962960962 0.00093530148858328 -0.00015317773844959 -0.000334987489451872 0.000422512339873758 -0.000340549380773152 8.27058684894624e-06 -0.000307024111984688 -0.000312531916352396 -0.000434867967612971 -0.00017118614265223 -0.000283311317530722 -0.000345952428780197 0.000229549550966322 0.000368088778426956 0.000358501986693823
"290" 0.000605029090954382 0.000911452675488537 -0.000179298090318775 -0.000338297684940452 0.000425778056642663 -0.000340670404586462 8.24729689438165e-06 -0.000344074269804842 -0.000289133326749881 -0.000432874978718298 -0.000161834780710076 -0.000283063638906035 -0.000366050319784826 0.000256477971179615 0.000371397745858564 0.00038388231044444
"291" 0.000581832835578224 0.000880909260130518 -0.000206564913792944 -0.00034233927144914 0.000425097895236819 -0.000340822230838052 7.53750345689176e-06 -0.000381516362218967 -0.000266202192853414 -0.000430135309039437 -0.000152197273160398 -0.000283203522239766 -0.000385925045178205 0.000280491358240372 0.000370674296757182 0.000405972357946017
"292" 0.000554430524303635 0.000844067268161166 -0.000234737517138565 -0.000347076976583918 0.000420495694433487 -0.000340999728544782 6.15027990166162e-06 -0.000419090817594174 -0.000243932556468181 -0.000426665280466478 -0.000142338554763509 -0.000283697582302206 -0.00040548904927433 0.000301407390532805 0.000365933074470562 0.000424643527441922
"293" 0.000523079216813314 0.000801387701809188 -0.000263556069345884 -0.000352462908238689 0.00041204867882774 -0.000341202242553898 4.10238202358103e-06 -0.000456523053485738 -0.000222505663461165 -0.000422470780651797 -0.000132323675893599 -0.00028450316101498 -0.000424643635876276 0.00031906820690137 0.000357219195941209 0.00043980031275762
"294" 0.00048807610884609 0.000753382086607773 -0.000292751630018608 -0.000358428885811109 0.000399864343629684 -0.00034141621794835 1.42584539500578e-06 -0.00049354342811834 -0.000202089556875138 -0.000417560482539694 -0.000122213091143678 -0.000285562240466707 -0.000443296119321637 0.000333358359917372 0.000344627859596579 0.000451382668775479
"295" 0.000449754432509343 0.000700609259429699 -0.000322047954318624 -0.000364901147960373 0.000384095368294944 -0.0003416206390715 -1.83588287242772e-06 -0.000529875289764222 -0.000182840880273424 -0.000411931257603024 -0.000112065641950252 -0.000286811109040976 -0.000461342164854434 0.00034419031133417 0.000328290437435135 0.00045936161483692
"296" 0.000408497970346052 0.0006436651691049 -0.000351167561626137 -0.000371791028708998 0.000364937869754124 -0.000341794729654242 -5.62118785546251e-06 -0.00056523806527951 -0.000164896428922795 -0.000405584177790362 -0.000101937466493461 -0.000288177383319415 -0.000478682976298736 0.000351515014265048 0.000308382470981163 0.000463748322466734
"297" 0.000364708413371672 0.000583172163146537 -0.000379823140799771 -0.000378995587091186 0.000342614541407374 -0.00034190636074745 -9.8644367129767e-06 -0.000599359065178374 -0.000148385266842074 -0.0003985211273292 -9.18777752606734e-05 -0.000289578759747283 -0.000495216545308515 0.000355317361238277 0.000285109563040289 0.000464583897334642
"298" 0.000318828005337226 0.000519780132723352 -0.000407737060465629 -0.000386408893280759 0.000317387173921542 -0.000341915861256427 -1.44844996393689e-05 -0.000631968014951756 -0.000133412553090673 -0.000390732388959175 -8.19336916277575e-05 -0.000290928108361423 -0.000510845001107072 0.000355618417822729 0.000258720245151529 0.000461945030614288
"299" 0.000271313400634636 0.000454145158836165 -0.000434633946646581 -0.000393914063645653 0.000289539106529392 -0.000341789851904569 -1.93900241904402e-05 -0.00066280335894944 -0.000120068760693273 -0.000382220269462662 -7.21517392011185e-05 -0.000292134612823022 -0.000525468843554291 0.000352475991600691 0.000229487437920675 0.000455937704631603
"300" 0.000222650355394729 0.000386934811647953 -0.000460241426108544 -0.00040138921414642 0.000259384933359781 -0.000341477363424657 -2.44826320888392e-05 -0.000691615920199039 -0.000108424922468026 -0.000372975722038136 -6.25669850182843e-05 -0.00029310462009011 -0.000538994767235625 0.000345980583656652 0.00019771194708731 0.000446701484364936
"301" 0.000173328996166808 0.00031880627985926 -0.000484301558957671 -0.000408705017555879 0.000227260547244347 -0.000340931074986159 -2.96547123627197e-05 -0.000718161707321658 -9.85355600851029e-05 -0.000362998089616892 -5.32211767756136e-05 -0.00029373940358863 -0.00055132648634948 0.000336252852883873 0.000163718661840241 0.00043440424738232
"302" 0.000123855828776937 0.000250416865259192 -0.000506568028536365 -0.000415732989378315 0.000193513680581806 -0.000340098626178876 -3.4796567739316e-05 -0.000742222957441404 -9.04326581205553e-05 -0.000352289400785773 -4.4143518931122e-05 -0.000293942963919788 -0.000562383395269526 0.000323451089228308 0.000127858339235665 0.000419238069091089
"303" 7.47339360706941e-05 0.000182407878818546 -0.000526812436971875 -0.000422343628533645 0.000158512070526341 -0.000338925465739544 -3.97864391402628e-05 -0.000763582068109559 -8.41297098936622e-05 -0.00034084518934013 -3.53612114188203e-05 -0.000293621992618537 -0.000572079898575444 0.000307757805835875 9.04904273564869e-05 0.000401419333484665
"304" 2.64725522081121e-05 0.000115391351310801 -0.000544815937121513 -0.000428404666587195 0.000122628859922142 -0.000337355310014273 -4.45023180205021e-05 -0.000782053095301651 -7.96183592019522e-05 -0.000328669328087627 -2.68940253370722e-05 -0.000292678380355617 -0.000580342169680158 0.000289386338914035 5.19939546076765e-05 0.000381190248421264
"305" -2.04347111841386e-05 4.99612474024068e-05 -0.000560382361025978 -0.000433789136501089 8.62420786212682e-05 -0.000335328469667562 -4.88212509919092e-05 -0.000797461050657667 -7.68764037442099e-05 -0.000315770009933415 -1.87601023498851e-05 -0.000291024957958891 -0.000587100186984626 0.000268571392245573 1.27471669547687e-05 0.00035880570942082
"306" -6.55007970484612e-05 -1.3327782268452e-05 -0.000573342778214203 -0.000438369025061126 4.97294790988428e-05 -0.000332786420538604 -5.26171622424947e-05 -0.000809652976198633 -7.5853914765539e-05 -0.000302149054656396 -1.09716211607208e-05 -0.000288573025902063 -0.000592291854870702 0.000245572674432406 -2.68570042938512e-05 0.000334543944284705
"307" -0.0001082511388192 -7.3949981512262e-05 -0.000583535762314221 -0.000442026679851558 1.34683557070416e-05 -0.000329672318038007 -5.57638661520986e-05 -0.000818497168791288 -7.64846006326646e-05 -0.000287823494212696 -3.53612181984888e-06 -0.000285241917768669 -0.000595862161053779 0.000220670611715244 -6.64321809745399e-05 0.00030868787616667
"308" -0.000148243832221926 -0.000131424143861244 -0.00059084031255597 -0.000444646865776763 -2.21698106016562e-05 -0.000325928472928176 -5.81417032578846e-05 -0.000823890286956665 -7.86864057231235e-05 -0.000272805770518011 3.54602384968761e-06 -0.000280955106916868 -0.000597763299396491 0.000194157428046556 -0.00010558875306135 0.000281540276528986
"309" -0.000185047695680624 -0.000185305732889765 -0.000595146074558642 -0.000446123931049754 -5.68253222157514e-05 -0.000321496580337953 -5.9627963282469e-05 -0.000825740170998796 -8.23537140167259e-05 -0.000257108556745588 1.02813575649682e-05 -0.000275645932754274 -0.000597955802124643 0.000166342707085419 -0.000143948354309822 0.000253406231606384
"310" -0.000218274064197508 -0.000235208014001142 -0.000596377268209275 -0.000446357322809826 -9.01504499093812e-05 -0.00031632363431668 -6.01125498031204e-05 -0.000823990754633934 -8.73702994164887e-05 -0.00024075483035661 1.66790735919492e-05 -0.000269247152564883 -0.000596404538716608 0.000137544815406689 -0.000181137910466689 0.000224598757734545
"311" -0.000247559280953791 -0.000280779891480636 -0.000594479646288767 -0.000445260519242651 -0.000121818565287318 -0.00031035800481513 -5.94811872261787e-05 -0.000818598605725685 -9.35982009468024e-05 -0.000223766515660997 2.27571578656387e-05 -0.000261708568337741 -0.000593087115958622 0.000108084771588722 -0.000216802071949766 0.000195431112411904
"312" -0.000272579537590272 -0.000321729918904867 -0.000589427983621288 -0.00044275503226751 -0.000151513734232712 -0.000303554829497159 -5.76392132381685e-05 -0.000809557045789255 -0.000100888801640074 -0.000206169117919846 2.85348140657847e-05 -0.000252984073394844 -0.000587988333777025 7.82942659139188e-05 -0.000250596434404597 0.000166215013736215
"313" -0.00029304935995518 -0.000357813336666187 -0.000581217572595968 -0.000438774499582612 -0.000178948422105798 -0.000295867426893289 -5.44923029847315e-05 -0.000796876951425126 -0.000109080139021663 -0.000187991247562669 3.40390610362084e-05 -0.000243032758085808 -0.000581095275402123 4.84966517263769e-05 -0.0002821979214052 0.000137265916870862
"314" -0.000308721136491406 -0.000388841302304792 -0.000569881847724898 -0.00043325926912832 -0.000203859978163277 -0.000287260979646179 -4.99592856446006e-05 -0.000780590686331176 -0.000118000943837447 -0.000169262130870244 3.93055974801529e-05 -0.000231827357133652 -0.000572411312966939 1.90178586232425e-05 -0.000311305618628711 0.000108886216449239
"315" -0.000319399422994908 -0.000414677434554039 -0.000555472500948551 -0.000426171170470511 -0.00022600378487667 -0.000277702062277975 -4.39698637990237e-05 -0.000760763214263441 -0.000127467020657066 -0.00015001428672038 4.4369187218969e-05 -0.000219348177672222 -0.000561938517242104 -9.82409467914841e-06 -0.000337641837404208 8.13711076621408e-05
"316" -0.00032492864259596 -0.00043524248463898 -0.000538072720542751 -0.000417476246054569 -0.000245173956603986 -0.00026716414539517 -3.64632526834178e-05 -0.000737483337170733 -0.000137292130204236 -0.0001302812209486 4.92682484380705e-05 -0.000205583586630152 -0.000549697059177233 -3.77218052529337e-05 -0.000360947304491089 5.5010690832325e-05
"317" -0.000325201783917396 -0.000450512359385159 -0.000517783892681693 -0.000407159401914459 -0.000261192338548475 -0.000255627322768502 -2.7395945645238e-05 -0.000710855352077882 -0.000147279286712699 -0.000110100897636175 5.40537767218902e-05 -0.000190530835276401 -0.000535704026134896 -6.43804491866061e-05 -0.000380997998736809 3.00725525351549e-05
"318" -0.000320162582450878 -0.000460517385910084 -0.000494741719793272 -0.000395211429205276 -0.000273902011254168 -0.000243079970479362 -1.67349689541753e-05 -0.000681019207053963 -0.000157230886880998 -8.95071614299682e-05 5.87727050199334e-05 -0.000174201827405535 -0.000519994183903317 -8.9517050499715e-05 -0.000397601514666922 6.81590867418357e-06
"319" -0.00030980130434712 -0.000465336505966663 -0.000469102424079271 -0.000381645633545001 -0.000283193001111589 -0.000229514558777864 -4.45981710645517e-06 -0.000648127930710174 -0.000166950762574072 -6.85409320618963e-05 6.34748208982623e-05 -0.000156613661549528 -0.000502602976624227 -0.000112870079786595 -0.000410588576089632 -1.45228046088927e-05
"320" -0.000294158027407489 -0.000465111990106442 -0.000441041182990003 -0.000366481299516413 -0.000288978000943819 -0.000214937091615569 9.42867453486438e-06 -0.0006123617963764 -0.000176240886139908 -4.72361350790578e-05 6.82167215802649e-05 -0.000137790872415915 -0.000483576096461533 -0.00013419594434854 -0.000419824697553153 -3.37257427309585e-05
"321" -0.000273326162324334 -0.00046002963529009 -0.00041076106361377 -0.00034975379899209 -0.000291214542926877 -0.000199357213267897 2.49175330545451e-05 -0.000573921381414108 -0.000184908965617505 -2.56380251667483e-05 7.30517401586406e-05 -0.000117773257778546 -0.00046297102354703 -0.000153276530228693 -0.000425214228763748 -5.05997323670912e-05
"322" -0.000247442894880139 -0.00045032456903497 -0.000378484295904147 -0.000331510144639336 -0.000289885577172985 -0.00018279444032415 4.19837392453257e-05 -0.000533023025952144 -0.000192765322985275 -3.78212436892923e-06 7.80390857150263e-05 -9.66092419616659e-05 -0.00044084319478406 -0.000169911199113601 -0.000426683672681086 -6.49737868504578e-05
"323" -0.00021669333567522 -0.000436283810759072 -0.000344445586176959 -0.000311810062633702 -0.000285012410111285 -0.000165276354868329 6.05772384390964e-05 -0.00048990694995958 -0.000199628573496968 1.82916583364864e-05 8.32328816837088e-05 -7.43537445786806e-05 -0.000417267778541683 -0.000183932871086773 -0.000424202345884038 -7.67041430144993e-05
"324" -0.00018131364643347 -0.000418231657551989 -0.000308898387493826 -0.000290724233972897 -0.000276653033954118 -0.000146841773086268 8.0643471042269e-05 -0.000444820788050749 -0.00020533095545305 4.05397340551075e-05 8.868636422283e-05 -5.10724678655746e-05 -0.000392317058918951 -0.000195196738106488 -0.000417773459635222 -8.56761770610815e-05
"325" -0.000141578837393081 -0.000396541394382867 -0.000272113063395145 -0.000268338928068952 -0.000264896247947313 -0.000127534971175284 0.000102104965233726 -0.000398033863950294 -0.000209711034827722 6.292506444999e-05 9.44565513906484e-05 -2.68414181334189e-05 -0.000366074759178926 -0.000203587662339504 -0.000407437200597206 -9.18034724337275e-05
"326" -9.78112760546332e-05 -0.000371612268763323 -0.000234366513489476 -0.000244746097709035 -0.000249867874026142 -0.000107407501180944 0.000124867837276732 -0.00034982657590086 -0.000212624008160524 8.54033905988425e-05 0.000100590939168379 -1.74734987518501e-06 -0.000338634292193039 -0.000209021670966011 -0.000393258278604286 -9.50299305806669e-05
"327" -5.03674524476879e-05 -0.000343887972552615 -0.000195947379179306 -0.000220051888072851 -0.000231725458160028 -8.65276568057254e-05 0.000148829305103077 -0.000300484147422891 -0.000213933371503103 0.000107935116650319 0.000107140186816623 2.41197849180026e-05 -0.000310089532225566 -0.000211439901129261 -0.000375348444203286 -9.53274198248899e-05
"328" 3.52740806088709e-07 -0.000313832493001766 -0.000157146052722944 -0.000194371912184089 -0.000210658598739629 -6.49620511285456e-05 0.000173866256423992 -0.000250306381777477 -0.000213530798203095 0.000130477948755103 0.000114148186325723 5.06580939489181e-05 -0.000280547865685497 -0.000210820289060265 -0.000353847558142058 -9.27055929920225e-05
"329" 5.39195280136773e-05 -0.000281928999017807 -0.00011825895374979 -0.000167827488550674 -0.000186885668805525 -4.27896494080387e-05 0.000199843227201773 -0.000199593795767455 -0.000211312182854987 0.000152990045528507 0.000121650105307746 7.77597961392967e-05 -0.000250114666771106 -0.00020716787338256 -0.000328923893944761 -8.71994496908038e-05
"330" 0.000109873290813566 -0.000248686734704613 -7.95810045891736e-05 -0.000140551692273225 -0.000160655198674597 -2.0096013042572e-05 0.000226612938345214 -0.000148645839540707 -0.000207201942881686 0.00017542996733471 0.000129680317802156 0.000105310390400504 -0.000218906992432133 -0.000200517771562978 -0.000300780653297895 -7.88783268578554e-05
"331" 0.000167724627417297 -0.000214625174667843 -4.14086227591585e-05 -0.000112685935854692 -0.000132241479439171 3.02251504776261e-06 0.000254013324797132 -9.77737765899e-05 -0.000201140520063304 0.000197753839190271 0.000138262136093361 0.000133186041946796 -0.000187043132038773 -0.000190935636647003 -0.000269652409027463 -6.78394444583709e-05
"332" 0.00022696579160769 -0.0001802581234522 -4.02240498706098e-06 -8.43726370952599e-05 -0.000101937088372039 2.64710544992101e-05 0.000281876085351428 -4.72743251499781e-05 -0.000193089367193099 0.000219919513160068 0.000147418328437267 0.000161264309471769 -0.000154649568249969 -0.000178520773510742 -0.000235798275205288 -5.42109924748989e-05
"333" 0.000287074186170928 -0.000146115322685202 3.22962834304743e-05 -5.57638090290243e-05 -7.00607649793885e-05 5.01424856064621e-05 0.0003100179197021 2.56021564021444e-06 -0.000183030612864236 0.000241876901982505 0.000157157240515436 0.000189414001775194 -0.000121848645438532 -0.000163395891910798 -0.000199507130084254 -3.8152792449798e-05
"334" 0.000347509238082207 -0.000112697838237659 6.72847871961035e-05 -2.70154276834561e-05 -3.69484299500386e-05 7.39276120350234e-05 0.000338247743531216 5.14382001799319e-05 -0.000170973626475848 0.000263584402797828 0.000167481564576162 0.000217497264280103 -8.87745155315764e-05 -0.000145713091157593 -0.000161089471286066 -1.98464135178891e-05
"335" 0.000407728501941947 -8.05125065376009e-05 0.000100693718562635 1.71531074972674e-06 -2.94704498175065e-06 9.77127024851796e-05 0.000366372606869755 9.90872957649309e-05 -0.000156943155786993 0.000284994534351568 0.000178383300845256 0.000245378981066604 -5.55599765637625e-05 -0.000125651753376179 -0.000120875166943041 5.01797364105878e-07
"336" 0.000467182277694086 -5.00307762273428e-05 0.000132286235657925 3.02657477715614e-05 3.15826956899798e-05 0.000121378903525812 0.000394187796872604 0.000145246312398662 -0.000140992002237096 0.000306056093997744 0.000189845563040771 0.000272918517400536 -2.2337981661633e-05 -0.000103417968303835 -7.92106871796863e-05 2.26554588153364e-05
"337" 0.000525331694959683 -2.17045504369308e-05 0.000161850025372576 5.84731511649991e-05 6.62744626079868e-05 0.00014480909570029 0.000421489747887491 0.000189668426660436 -0.000123189253328682 0.000326720647440811 0.000201843329136647 0.000299982002565801 1.0759911767188e-05 -7.92356305460316e-05 -3.64647713274479e-05 4.63688101402229e-05
"338" 0.000581641066332981 4.05213911633057e-06 0.000189193123181836 8.61790986776437e-05 0.000100764573855377 0.00016788299775599 0.00044807292734736 0.000232123152439217 -0.000103636654978757 0.000346934182039117 0.000214341424378443 0.000326424870868956 4.35915320407546e-05 -5.3357367776136e-05 6.98741989812812e-06 7.13692463874693e-05
"339" 0.000635595924766869 2.68641848399148e-05 0.000214147769757205 0.000113218555937697 0.000134678501786249 0.000190474223829718 0.000473730065319595 0.000272407708898105 -8.24482523893171e-05 0.000366646348311445 0.00022729145637432 0.000352113730487941 7.60279082974843e-05 -2.60459902496102e-05 5.07597383567679e-05 9.73756371664668e-05
"340" 0.000686695776802367 4.64019915016083e-05 0.000236572016225959 0.000139436864563394 0.000167659109394485 0.000212467274271616 0.000498255305642432 0.000310333988156427 -5.97629546071963e-05 0.000385797917688526 0.000240637768603635 0.000376909819270392 0.000107930183106237 2.41055171722421e-06 9.44636568522018e-05 0.000124092634199763
"341" 0.000734473512663072 6.23835279609279e-05 0.000256347089955596 0.000164677067567784 0.000199347932340361 0.000233738578178465 0.000521451474231094 0.000345740607680672 -3.57421796098533e-05 0.000404338420111058 0.000254316301712131 0.000400682286216223 0.000139171483273469 3.17143257422642e-05 0.000137702809676583 0.000151218154541236
"342" 0.00077848808391403 7.45835075761201e-05 0.000273385037139432 0.000188787830657175 0.000229405817627954 0.000254173248451142 0.00054311847355816 0.000378492566684562 -1.05646231342859e-05 0.000422202329168349 0.000268247621358913 0.000423301365634904 0.000169615490629758 6.15583369070258e-05 0.000180094115201598 0.000178444284299324
"343" 0.000818336938322979 8.28324999400714e-05 0.000287618849242145 0.000211627144087102 0.000257509721696549 0.000273655418323698 0.000563076234302081 0.00040847626438469 1.55726601385068e-05 0.000439337047568551 0.000282348480424186 0.000444648744666795 0.000199137666304275 9.16219047240678e-05 0.000221249277716229 0.000205465034330351
"344" 0.000853660012149633 8.70203039058612e-05 0.000299016860182977 0.000233056595254333 0.000283359764941945 0.000292075150399309 0.000581142520387364 0.000435607137686682 4.24553272189388e-05 0.000455677957663739 0.000296525979086934 0.000464604659443108 0.000227612881140219 0.000121580994981713 0.000260793950715725 0.000231972544014476
