"V1" "V2" "V4" "V5" "V7" "V8" "V10" "V11" "V13" "V14" "V15" "V17" "V18" "V20" "V21" "V23"
"1" -8.32223228999173e-05 -0.000129840369383551 -0.000109457150855485 -3.81884886661121e-05 -0.000426919971867833 -0.000256590296316412 -0.000134817645795553 -0.000193146347321904 3.66299444571758e-05 -0.000218587991895963 -0.000465456162452782 -0.00043578543994484 -0.000328110547367878 0.000104869422789726 -0.0004252634775071 -0.00028182615173292
"2" -7.86851600561453e-05 -0.000125114888561763 -0.000107534981855553 -3.4345990527581e-05 -0.000420068757052396 -0.00024750511225986 -0.000129641068482026 -0.000186339622385095 4.04029848413336e-05 -0.000210854235703237 -0.000456742943041414 -0.000427891640387738 -0.000320273712218559 0.000106509230808318 -0.000417253486622814 -0.000273322160561808
"3" -7.26082217707377e-05 -0.000119928305993186 -0.000104348900962454 -3.00113297143551e-05 -0.000412259714566533 -0.000237908301246187 -0.000123826359156856 -0.000178997707221009 4.6126264995126e-05 -0.000201580645172999 -0.000447098316419314 -0.000419573760327112 -0.000311693327924804 0.000109341211918319 -0.000408536270600181 -0.00026406547191915
"4" -6.50599891918861e-05 -0.000114337795714774 -9.99186501160905e-05 -2.52274957588658e-05 -0.000403560437932742 -0.000227858522262353 -0.000117436586555408 -0.000171186049071489 5.37730753380741e-05 -0.000190866111019835 -0.000436591218491514 -0.000410878126516521 -0.000302455232364552 0.000113300634963846 -0.000399184493982466 -0.000254141544751126
"5" -5.61268341266159e-05 -0.000108403234239202 -9.42747839722048e-05 -2.00400814221223e-05 -0.000394044763933119 -0.000217419981723842 -0.000110531727648137 -0.000162983915138741 6.33123424409629e-05 -0.00017881821570361 -0.000425294262183421 -0.000401863102592629 -0.000292657424011899 0.000118322222329847 -0.000389279539870201 -0.000243641113046362
"6" -4.58996684102483e-05 -0.000102189322464633 -8.74597218489046e-05 -1.44979957973315e-05 -0.000383791252141667 -0.000206661834696953 -0.000103178780463503 -0.000154466022282794 7.47136869080838e-05 -0.000165554734829505 -0.000413283278257803 -0.000392575457357689 -0.000282392030278843 0.000124334343569768 -0.000378901657498825 -0.000232661186952259
"7" -3.44717044511447e-05 -9.57667945409266e-05 -7.95213878182333e-05 -8.65762190740117e-06 -0.000372879508868388 -0.000195663874661259 -9.54407658456515e-05 -0.000145715814989664 8.79132013967769e-05 -0.000151193641825574 -0.000400629888248721 -0.000383072653723344 -0.000271754392365333 0.00013125827575416 -0.000368130421328071 -0.000221294406042973
"8" -2.196801992183e-05 -8.92050612174894e-05 -7.05186438516142e-05 -2.56998422544026e-06 -0.000361401882376888 -0.00018450575561891 -8.73841079383333e-05 -0.000136825372420793 0.000102861750932331 -0.000135871490767668 -0.000387418186109208 -0.000373399011623286 -0.000260832370207434 0.000139016640060534 -0.000357047589149758 -0.000209641447942399
"9" -8.49741635592249e-06 -8.25767571781735e-05 -6.05229185499613e-05 3.70403256800281e-06 -0.000349442403539772 -0.000173277901199631 -7.90742635415907e-05 -0.000127879761038497 0.00011947071529973 -0.000119720261219357 -0.000373724168564939 -0.000363606150463683 -0.000249718232133487 0.00014752622084966 -0.000345731958218346 -0.000197795398025214
"10" 5.810506887536e-06 -7.59580905316778e-05 -4.96052244832992e-05 1.01040082947938e-05 -0.000337090963242195 -0.000162071395097982 -7.05743466669214e-05 -0.000118970345910282 0.000137668558549644 -0.000102877785328354 -0.000359632110996327 -0.000353737579135663 -0.000238499653496243 0.000156703514901865 -0.000334266524483103 -0.000185856573019625
"11" 2.08209312273576e-05 -6.94246682397927e-05 -3.78568141297252e-05 1.65748045040106e-05 -0.000324446444664937 -0.000150980271137061 -6.19452193345559e-05 -0.000110190319922865 0.000157343064775809 -8.54877955975439e-05 -0.000345220740808688 -0.000343840541948323 -0.000227262628437185 0.000166456495314089 -0.000322729123794239 -0.000173920245641132
"12" 3.63980956061824e-05 -6.30569214565969e-05 -2.53700052888394e-05 2.30491246343028e-05 -0.000311597288058451 -0.000140106223238805 -5.32508377385352e-05 -0.000101632469296349 0.000178388108508803 -6.76914684520654e-05 -0.000330569059620612 -0.000333954975277987 -0.000216083614336672 0.000176706392844861 -0.000311193115669113 -0.000162077751485748
"13" 5.23961088368611e-05 -5.69303002253447e-05 -1.22431067952464e-05 2.94652511080246e-05 -0.000298645543371829 -0.000129545064303559 -4.45493127113212e-05 -9.3387670074934e-05 0.000200669271915772 -4.96359629835131e-05 -0.000315757155076784 -0.000324122914757811 -0.000205039555920068 0.000187356828364196 -0.000299731856688496 -0.000150419783866103
"14" 6.86776789200236e-05 -5.11237648930929e-05 1.42170088133816e-06 3.57627425512228e-05 -0.0002856780142409 -0.000119400402973523 -3.58947307915754e-05 -8.55446763248695e-05 0.000224056642478562 -3.14613560091071e-05 -0.000300862769944455 -0.000314382890832448 -0.00019419637922869 0.000198325098024777 -0.000288416263585007 -0.000139030704785824
"15" 8.50892990152424e-05 -4.57197488380504e-05 1.55003124273744e-05 4.18767242763734e-05 -0.000272796037511604 -0.000109768518485375 -2.73418920038052e-05 -7.81923979009249e-05 0.000248378518361323 -1.33172417246823e-05 -0.000285960335742684 -0.000304771147076048 -0.00018362371788558 0.000209518801449173 -0.000277315875192398 -0.000127994671052559
"16" 0.000101499387250292 -4.07899755289367e-05 2.98834799476972e-05 4.77443100172522e-05 -0.000260089747001901 -0.000100750717119645 -1.89422026115365e-05 -7.14134331904846e-05 0.000273473138032749 4.66328552337515e-06 -0.000271127373827111 -0.000295321077775729 -0.000173375851165666 0.000220851392785995 -0.00026648861425416 -0.000117387056725355
"17" 0.000117760141909448 -3.64136201933155e-05 4.44498515392837e-05 5.3303047581003e-05 -0.000247645871181653 -9.24417833433261e-05 -1.07398800455272e-05 -6.5286156257528e-05 0.00029915069057418 2.23417240983188e-05 -0.00025643445845102 -0.000286064740464046 -0.000163502127100383 0.000232237343092726 -0.000255992253470074 -0.00010727636335845
"18" 0.000133726779973965 -3.26641854479532e-05 5.90727266115088e-05 5.84950196819444e-05 -0.000235558979876628 -8.4934937430286e-05 -2.77947415581867e-06 -5.98878244149902e-05 0.000325219447134289 3.95784192045e-05 -0.000241951420632713 -0.000277035071273418 -0.000154051573723293 0.000243596005448734 -0.000245882700854722 -9.77270315169307e-05
"19" 0.000149269658201107 -2.96107578717241e-05 7.36271119116416e-05 6.32571566500701e-05 -0.000223910611140613 -7.831889786267e-05 4.90162572204757e-06 -5.52827242226266e-05 0.000351463426027254 5.62514825187394e-05 -0.00022774211267483 -0.000268255386367074 -0.000145059941640473 0.000254836135735396 -0.000236210182380376 -8.88012119344446e-05
"20" 0.000164259947477664 -2.73225535745649e-05 8.79800781110489e-05 6.7531977017767e-05 -0.000212781274923607 -7.26711477231202e-05 1.22616743388309e-05 -5.15346214452771e-05 0.000377665119042391 7.22333257041682e-05 -0.000213878947447835 -0.000259756973667758 -0.00013656037531234 0.000265884368899008 -0.000227013798152447 -8.05446049134707e-05
"21" 0.000178576103583462 -2.5862567594427e-05 0.00010200775134527 7.12630438739406e-05 -0.000202249571204412 -6.80701980186734e-05 1.92738303923488e-05 -4.86951758318303e-05 0.000403595914664306 8.74033693627097e-05 -0.000200416094238493 -0.000251563692205503 -0.000128576095482204 0.000276662523152012 -0.000218334227030851 -7.29999776529861e-05
"22" 0.000192108721448868 -2.52916169433072e-05 0.000115581570262677 7.43961582443192e-05 -0.000192384599397565 -6.45830732817428e-05 2.59088882744915e-05 -4.68129078264629e-05 0.000429019531742393 0.000101657022458453 -0.000187417096510252 -0.000243701611389009 -0.000121125439612247 0.000287096177895724 -0.00021020611601867 -6.6206814718916e-05
"23" 0.000204741866139172 -2.56656616556068e-05 0.0001285697202295 7.68804393104619e-05 -0.00018325435686093 -6.22664734622405e-05 3.21379653758575e-05 -4.59201523182003e-05 0.000453684932827321 0.000114881478041821 -0.000174937659667778 -0.000236190786729328 -0.000114226305289213 0.00029711218745965 -0.000202660716333209 -6.01924291241696e-05
"24" 0.000216395983081381 -2.7033068975292e-05 0.000140854327240154 7.86642088459227e-05 -0.000174919765629981 -6.11713538120314e-05 3.79426086421888e-05 -4.60501532688332e-05 0.000477353690170103 0.000126980482028876 -0.000163028680991532 -0.000229052375630045 -0.000107881789329255 0.000306645776099163 -0.000195719534189844 -5.49751729578574e-05
"25" 0.000226971100482417 -2.94374334558514e-05 0.000152314561342121 7.97053330041766e-05 -0.000167435075831549 -6.13377843455377e-05 4.3300474545248e-05 -4.72209449778187e-05 0.000499769594736137 0.000137864404336266 -0.00015174743609987 -0.000222313755315706 -0.000102098927044226 0.000315625020689302 -0.000189403940958529 -5.05727163278094e-05
"26" 0.000236410082408502 -3.29179559786825e-05 0.00016283190024942 7.99576767797219e-05 -0.000160849261695065 -6.27926089897915e-05 4.82012838301288e-05 -4.94402656001964e-05 0.000520684918269082 0.000147446898728784 -0.000141131610483867 -0.000215989650163205 -9.68699459299017e-05 0.000323989243605242 -0.000183728039802314 -4.69893130521606e-05
"27" 0.000244643141782107 -3.7505210411109e-05 0.000172299742472323 7.93842638556416e-05 -0.000155203888164554 -6.55522055490499e-05 5.26264655669936e-05 -5.27083943804152e-05 0.00053985242819922 0.000155651453625337 -0.000131239773583516 -0.00021010435335946 -9.21962380501587e-05 0.000331683542926965 -0.000178705115285653 -4.42234297776418e-05
"28" 0.000251630386909978 -4.32244266684543e-05 0.00018061265421686 7.79490118511684e-05 -0.000150531306605538 -6.96265785950612e-05 5.65725538503272e-05 -5.70136404238895e-05 0.000557030435918325 0.000162408610274381 -0.000122106908993743 -0.000204672869432535 -8.80613349281674e-05 0.000338643836856124 -0.000174342850372702 -4.2271852780893e-05
"29" 0.000257323542703605 -5.00903941173452e-05 0.000187674165353548 7.56226156531003e-05 -0.00014686234292516 -7.50081541924556e-05 6.00223813091346e-05 -6.23382831761041e-05 0.000571973973520289 0.00016765339788872 -0.000113781455629669 -0.000199717131261992 -8.44600206805467e-05 0.000344820755949079 -0.000170643041258611 -4.11177826430356e-05
"30" 0.000261714455462204 -5.81154568360142e-05 0.000193402407956446 7.23760507063476e-05 -0.000144214901902479 -8.16778903713196e-05 6.29771055726962e-05 -6.8649966606265e-05 0.00058445463094478 0.000171332941037731 -0.000106297531229753 -0.000195254911220673 -8.13723082322787e-05 0.000350156237826083 -0.000167611415630216 -4.07441736327278e-05
"31" 0.000264783696014399 -6.73009773055453e-05 0.000197710063015665 6.81892529235027e-05 -0.000142605000039543 -8.96093146455291e-05 6.54311744815346e-05 -7.59149926049893e-05 0.000594246773359333 0.000173399614053619 -9.96952520739973e-05 -0.000191304164107218 -7.87887541898767e-05 0.000354598679080818 -0.000165242624966834 -4.11265613890045e-05
"32" 0.00026653698091097 -7.76388848521219e-05 0.000200535899157503 6.30460514463416e-05 -0.000142034831887857 -9.87635471561381e-05 6.73796378331891e-05 -8.40809914064495e-05 0.000601136262477499 0.000173808387537588 -9.40096240399294e-05 -0.000187881861371051 -7.6684936834373e-05 0.000358100912054597 -0.000163535459861221 -4.22362848522076e-05
"33" 0.000266984571903018 -8.91171119469339e-05 0.000201817473203956 5.69337277569591e-05 -0.000142505759516928 -0.000109087319295709 6.88219090670732e-05 -9.30968339076358e-05 0.000604916594461897 0.000172525632738522 -8.92756573427635e-05 -0.000185004962750225 -7.50498808726869e-05 0.000360609487660128 -0.000162482492535959 -4.40416663208066e-05
"34" 0.000266155705507841 -0.00010171300785319 0.000201509375246939 4.98467856167161e-05 -0.000144010380261396 -0.000120520415986975 6.97569816542575e-05 -0.00010289316007953 0.000605398360983704 0.000169519458733575 -8.55256299421998e-05 -0.000182690576651866 -7.38625678520885e-05 0.000362077478876708 -0.000162074649074275 -4.65080055497408e-05
"35" 0.000264083486120484 -0.000115397922136016 0.000199576188383967 4.17838115013394e-05 -0.000146533151294 -0.000132991439815743 7.01824152997001e-05 -0.000113403367662582 0.000602393329009489 0.000164769646045262 -8.27865002761346e-05 -0.000180952742371447 -7.31106130134396e-05 0.000362453431450207 -0.000162308340470541 -4.95938909517956e-05
"36" 0.000260810855466085 -0.00013012975367917 0.000195990130308341 3.27514604161689e-05 -0.000150052087087693 -0.000146422943973378 7.01019928021888e-05 -0.000124551797295404 0.000595737476649275 0.000158250314660799 -8.10903077217584e-05 -0.000179806219488054 -7.27797578622771e-05 0.000361688119434433 -0.000163174157663948 -5.32595264894092e-05
"37" 0.000256394241930731 -0.000145867605874868 0.000190738872795176 2.27598015972493e-05 -0.000154537038712396 -0.0001607214326669 6.95160598816194e-05 -0.000136249980430049 0.00058527616933934 0.000149952348293299 -8.04579005351799e-05 -0.000179266480037878 -7.28565825597666e-05 0.00035973156728602 -0.000164658877434961 -5.74641930562193e-05
"38" 0.000250897510146789 -0.000162554624315101 0.000183825520329694 1.182410385678e-05 -0.000159957328572356 -0.000175796437388524 6.84237053202006e-05 -0.000148414658322774 0.000570854127381902 0.000139865115365026 -8.09145815751857e-05 -0.000179340759453515 -7.33281815203935e-05 0.00035653214952615 -0.000166753651022812 -6.21640766781777e-05
"39" 0.000244382573118997 -0.0001801332271507 0.000175260617808882 -3.0601864051683e-08 -0.000166271940326949 -0.000191542638537168 6.68249906362483e-05 -0.000160947989374083 0.000552345282030283 0.000127980801096672 -8.24748094092287e-05 -0.000180041017088628 -7.41928248492841e-05 0.000352031163123435 -0.000169457086358004 -6.7316246600769e-05
"40" 0.000236923600337477 -0.000198532849501929 0.000165061626225466 -1.27763420619137e-05 -0.000173437042881463 -0.000207855995621907 6.47236486501824e-05 -0.00017376009717298 0.000529631300871637 0.000114295687493946 -8.51578125903239e-05 -0.000181371468358362 -7.54369268474901e-05 0.000346177936303238 -0.000172751692132564 -7.2876215485006e-05
"41" 0.000228602533998003 -0.000217681056263897 0.000153271597839727 -2.63793936109946e-05 -0.000181398734252698 -0.00022462188191707 6.21175394247599e-05 -0.000186751306654108 0.00050260188172675 9.88106108203539e-05 -8.89724304915481e-05 -0.000183340382234218 -7.70651466806156e-05 0.00033891470963189 -0.000176637025558963 -7.88057577479741e-05
"42" 0.000219498774336201 -0.000237497700789517 0.000139926844766557 -4.07991443819563e-05 -0.000190107064692956 -0.000241727212944834 5.90060831468838e-05 -0.000199820642856707 0.00047116888550429 8.15286175547523e-05 -9.39256937608405e-05 -0.000185950858792841 -7.90733054554767e-05 0.000330184030232994 -0.000181105694836462 -8.50611372619717e-05
"43" 0.000209685631922156 -0.000257897989528076 0.000125089464424392 -5.59875786310447e-05 -0.000199501484028042 -0.000259054558878181 5.5391098284442e-05 -0.000212869643669833 0.000435257460379948 6.24538196931582e-05 -0.000100018277507933 -0.000189196748313985 -8.14704875889952e-05 0.000319928048697176 -0.000186152324059761 -9.16053250932226e-05
"44" 0.000199260700591278 -0.000278788131466889 0.000108828140151177 -7.1896619771749e-05 -0.000209517446607938 -0.000276486918359223 5.12742380272227e-05 -0.000225795482027785 0.000394793376062146 4.15974034559331e-05 -0.000107244518032012 -0.000193078189564952 -8.42560800711439e-05 0.000308078774871803 -0.000191774021843606 -9.84010104253169e-05
"45" 0.000188293393982657 -0.000300075934380741 9.12152525179135e-05 -8.84656466840701e-05 -0.000220093752069549 -0.000293905762697012 4.66484980534918e-05 -0.000238503461841044 0.000349735918379614 1.89661946358562e-05 -0.000115594040600479 -0.000197583488209132 -8.74465116356742e-05 0.000294580395771622 -0.000197968301152402 -0.000105414957822571
"46" 0.000176871907235797 -0.000321658678995675 7.23385290854177e-05 -0.000105633340025356 -0.000231157193698163 -0.000311194040326426 4.15190464977799e-05 -0.000250893010949226 0.00030005099874184 -5.42339369836702e-06 -0.00012504800635152 -0.000202700263398706 -9.10478032486496e-05 0.000279367826516775 -0.00020473314282638 -0.000112617369210669
"47" 0.000165071430833721 -0.000343434518597091 5.22924895761519e-05 -0.00012333150077584 -0.000242638646681288 -0.000328239732742589 3.58831366008249e-05 -0.000262870188350933 0.000245721108118746 -3.15594553486798e-05 -0.000135584332152834 -0.000208413527107609 -9.50783375339609e-05 0.000262378147871166 -0.000212069925042687 -0.000119979413879032
"48" 0.000152970366952652 -0.000365297514654441 3.11794859978027e-05 -0.00014148695261256 -0.000254466920333137 -0.000344930106224834 2.97408591842365e-05 -0.000274349746772737 0.000186754089785379 -5.94228576506121e-05 -0.000147172811439121 -0.000214698564684491 -9.95521693242416e-05 0.000243560203709244 -0.000219978823215235 -0.000127476167172768
"49" 0.000140630440942384 -0.000387138104885564 9.10482948186832e-06 -0.000160026280631914 -0.000266567695964182 -0.000361156800507559 2.30953848848998e-05 -0.000285238461947551 0.000123166110678169 -8.89898509572205e-05 -0.000159772576633947 -0.000221530626796648 -0.000104483347907141 0.000222844940617303 -0.00022846094312667 -0.000135086298993285
"50" 0.000128125836762586 -0.000408847687800319 -1.38175230778709e-05 -0.000178864488217626 -0.000278863638130862 -0.000376817548071275 1.59482220404868e-05 -0.000295457556145261 5.5007518982915e-05 -0.000120234087135715 -0.000173336377431507 -0.000228873872961337 -0.000109895095154907 0.000200183481335565 -0.000237516940097142 -0.00014279464367081
"51" 0.000115515864528166 -0.000430311536310451 -3.74625230755467e-05 -0.000197919028701874 -0.00029127849085672 -0.000391813594221883 8.30173768195262e-06 -0.000304932065348626 -1.76623944139188e-05 -0.000153128186967747 -0.000187815080523446 -0.000236695108153959 -0.000115803139113303 0.000175525582560137 -0.000247145102165924 -0.00015058344963167
"52" 0.000102847131805427 -0.000451419007083987 -6.17108993097154e-05 -0.000217099701446701 -0.000303737012090378 -0.000406054004628408 1.58338528013439e-07 -0.000313589997593515 -9.47459175241885e-05 -0.000187632520478468 -0.000203143949925731 -0.000244947787832552 -0.000122226847887069 0.000148831203619242 -0.000257343387761357 -0.000158442726041843
"53" 9.01709400958536e-05 -0.000472058870933451 -8.64341190299273e-05 -0.000236313724723724 -0.000316163054616326 -0.000419457133955072 -8.47253148646515e-06 -0.000321373193931339 -0.000176122873342792 -0.000223702402665666 -0.000219260748206474 -0.000253585923269849 -0.000129184854601116 0.000120066142156195 -0.000268109971387325 -0.000166366738987017
"54" 7.75348214768322e-05 -0.000492115594908368 -0.000111507959665603 -0.000255469581126386 -0.000328476377956684 -0.000431942038402505 -1.75807949245758e-05 -0.000328221591228243 -0.000261652694194064 -0.000261287874935886 -0.000236084890287818 -0.000262554299085302 -0.000136692102465633 8.92021564504669e-05 -0.000279440936592517 -0.00017434690644707
"55" 6.4962542846996e-05 -0.00051148284124617 -0.000136796945415014 -0.000274467118428357 -0.000340606512071475 -0.000443437896081415 -2.71611288786027e-05 -0.00033408805457344 -0.000351150116482244 -0.000300329090903042 -0.000253546683004105 -0.000271795441998366 -0.00014476398305742 5.62359722658004e-05 -0.000291320696471848 -0.000182381487183532
"56" 5.24923105698861e-05 -0.000530045356296868 -0.000162168024936085 -0.000293211452899031 -0.000352472729686738 -0.000453885171132103 -3.71949176211679e-05 -0.000338934034577674 -0.000444401475266191 -0.000340751386216544 -0.000271556282864146 -0.000281246635389713 -0.00015341606039856 2.11699338835914e-05 -0.000303739787066284 -0.000190470359907457
"57" 4.01430962440373e-05 -0.000547699641257428 -0.000187497080124932 -0.000311600047206317 -0.000364003201455094 -0.000463226743072613 -4.766721373873e-05 -0.000342727518031527 -0.000541160687278345 -0.000382472646932824 -0.000290027596068931 -0.000290839168745957 -0.000162651682647149 -1.59773436396399e-05 -0.000316679302793785 -0.000198614155532332
"58" 2.7932230483546e-05 -0.000564336876971085 -0.000212648913145489 -0.000329531390171798 -0.000375126257664665 -0.00047142013545309 -5.85533824189743e-05 -0.00034544637445386 -0.000641127597898924 -0.000425394500450682 -0.000308873060498562 -0.000300497872543522 -0.000172478043176544 -5.51556211854759e-05 -0.000330114582278537 -0.000206816002356211
"59" 1.58750864162247e-05 -0.000579856686614244 -0.000237491607701844 -0.000346904952876888 -0.000385771573087296 -0.000478427229477211 -6.98356761634672e-05 -0.00034707435815694 -0.000743977803268627 -0.000469403008376954 -0.000327996695660056 -0.000310148821751964 -0.000182898057267136 -9.63023959029642e-05 -0.00034401600285871 -0.000215076036826542
"60" 3.97783896435037e-06 -0.00059415931384146 -0.000261901007998954 -0.000363619922986225 -0.000395866408472977 -0.000484219758844928 -8.14802192366388e-05 -0.000347608588782322 -0.000849334341406773 -0.000514372028439307 -0.000347306733270403 -0.000319710452612499 -0.000193904235519304 -0.000139325796351437 -0.000358345960025285 -0.000223396423180746
"61" -7.76135636983167e-06 -0.000607150080830807 -0.000285754042625701 -0.000379572545225013 -0.000405347789036181 -0.000488776876688198 -9.34567067720879e-05 -0.000347056805036394 -0.000956775639399447 -0.00056015456969851 -0.000366703455911736 -0.000329105112127648 -0.000205489696845509 -0.000184106994133651 -0.000373066492030773 -0.000231782643990341
"62" -1.93318002763171e-05 -0.000618738001185982 -0.000308926837407752 -0.000394665863776728 -0.000414150337093613 -0.000492090037857987 -0.000105728722538129 -0.000345425425979036 -0.00106583937227408 -0.000606584415858637 -0.000386098315663426 -0.000338243704239344 -0.000217635048441462 -0.000230495200809001 -0.000388117930642403 -0.000240233937370891
"63" -3.073510846782e-05 -0.000628836497569763 -0.000331303496246497 -0.000408801959137604 -0.000422211927043263 -0.000494155737885096 -0.000118253183105941 -0.000342741077587941 -0.0011759965541429 -0.000653472748627097 -0.00040539310169048 -0.000347043747082673 -0.000230317096914244 -0.000278306146869922 -0.000403447208123195 -0.000248748717149044
"64" -4.19755473245772e-05 -0.000637366332120952 -0.000352770157724834 -0.000421882308674193 -0.000429476456960723 -0.000494979977939291 -0.000130985845059953 -0.000339033704844738 -0.00128670316152945 -0.000700621861377595 -0.000424499472764463 -0.000355417413177713 -0.000243508013731231 -0.000327327705579779 -0.000418986059085796 -0.000257325265790243
"65" -5.30583961918983e-05 -0.00064425077747642 -0.000373218787846853 -0.000433814624438012 -0.000435890296001086 -0.000494580528233526 -0.000143876678774816 -0.000334344875799387 -0.0013973321242961 -0.000747801748111247 -0.000443325668649199 -0.000363280525219648 -0.000257167563734989 -0.000377304265411049 -0.00043466466903672 -0.000265955730333186
"66" -6.39790739893493e-05 -0.000649424234609842 -0.000392544253692471 -0.000444509723364889 -0.000441399749918565 -0.000492976492351999 -0.000156869402195078 -0.000328721394822827 -0.00150723603746268 -0.000794767377104892 -0.000461784602259286 -0.000370543576539939 -0.000271248706696784 -0.000427949785133737 -0.000450396063026727 -0.000274631014289142
"67" -7.47468927407055e-05 -0.000652825914894311 -0.000410648328787182 -0.000453882753004597 -0.000445960115885809 -0.000490202377212712 -0.000169903925683417 -0.000322217918942286 -0.0016157148829881 -0.000841257782348194 -0.000479793574495735 -0.000377126398804383 -0.000285697371518565 -0.000478950048949189 -0.00046609954577248 -0.000283335302509165
"68" -8.53595969124032e-05 -0.000654401334164446 -0.000427436570959867 -0.000461851232685517 -0.00044953198856582 -0.000486292973277064 -0.000182921202301639 -0.000314899734456178 -0.00172203619963844 -0.000886990385791911 -0.000497272643595991 -0.000382949415876269 -0.000300455855170529 -0.000529941651455449 -0.000481679754507603 -0.000292052198384118
"69" -9.58163271442836e-05 -0.000654107736571331 -0.00044282985836126 -0.000468341383167056 -0.000452076094042228 -0.000481297154685319 -0.000195855101377865 -0.000306834846372114 -0.00182543365635979 -0.000931672513752544 -0.00051413867987922 -0.000387932814466889 -0.000315445325009414 -0.00058055076038987 -0.000497043872231553 -0.000300757294253571
"70" -0.000106116750180666 -0.000651911079303423 -0.000456745825068708 -0.00047328387129774 -0.000453566775364173 -0.000475264936898632 -0.000208634035253462 -0.000298100880701405 -0.00192512062473443 -0.000974994187398801 -0.000530321096796825 -0.000392003911755856 -0.000330597264776051 -0.000630359645241957 -0.000512086054693737 -0.000309420927411317
"71" -0.000116257989153991 -0.000647785680169509 -0.000469111458846201 -0.000476620084653558 -0.000453977758730955 -0.000468256240521194 -0.000221185648365324 -0.000288774080294975 -0.00202029607474542 -0.00101664295671373 -0.000545739984085463 -0.000395091096241924 -0.000345816495774513 -0.00067894693973725 -0.000526707906103628 -0.000318010197847277
"72" -0.000126231228632383 -0.000641716820806165 -0.000479867108455758 -0.000478294824252005 -0.000453291378815128 -0.000460333549038797 -0.000233441081580625 -0.000278939705826274 -0.00211015762020237 -0.00105629430076735 -0.000560332748338423 -0.000397133194041997 -0.000361016163356975 -0.000725860913853097 -0.000540803279341994 -0.000326487056726585
"73" -0.000136028432902689 -0.000633701798697613 -0.000488956071998063 -0.000478265121139209 -0.000451494723639769 -0.000451566695872954 -0.00024532419266277 -0.000268680398729271 -0.00219391346124318 -0.0010936323684937 -0.000574021921180857 -0.00039806899670299 -0.000376094592640723 -0.00077065276648541 -0.000554272896469281 -0.000334806767982673
"74" -0.000145652134409879 -0.00062375173433877 -0.00049633660973968 -0.000476498133940905 -0.000448585844265574 -0.000442029119776535 -0.00025676370664098 -0.000258087882535418 -0.00227079661687526 -0.0011283427123176 -0.000586743204156259 -0.00039784925714738 -0.000390947495768686 -0.000812868631826165 -0.000567015177977564 -0.000342924370273863
"75" -0.000155095368894475 -0.000611887635554589 -0.000501974896039833 -0.000472968885475717 -0.000444570318522839 -0.000431794024500661 -0.000267682823102204 -0.000247248839550239 -0.00234009166560912 -0.0011601225471683 -0.000598425276706664 -0.000396425454192631 -0.000405472511576549 -0.000852076855541969 -0.000578938209947465 -0.000350786795728043
"76" -0.000164348139371092 -0.000598144434715526 -0.000505844856819995 -0.000467665888565766 -0.000439457603189334 -0.000420941927657301 -0.000278015443335433 -0.000236245955507268 -0.00240112236955961 -0.00118868890595212 -0.000609003870980845 -0.000393761341531959 -0.000419551539152703 -0.000887847614692035 -0.000589949111398778 -0.000358341569212401
"77" -0.000173407885854022 -0.00058257153367934 -0.000507938687321931 -0.0004605921079759 -0.000433267278532109 -0.000409553208989382 -0.000287693140872114 -0.000225165636060325 -0.0024532965470277 -0.00121378009925554 -0.00061840779419643 -0.000389823565420449 -0.000433078479516781 -0.000919795475274056 -0.000599970617338464 -0.000365533692859932
"78" -0.000182287179614799 -0.000565232241979395 -0.000508261599622638 -0.000451757820787982 -0.000426029852919709 -0.000397706461291813 -0.000296653656670342 -0.000214086660985922 -0.0024961021557752 -0.00123516503474516 -0.000626572691011092 -0.0003845873178473 -0.000445940525303552 -0.000947568486959269 -0.000608923994118868 -0.000372303371342475
"79" -0.000190978606684722 -0.000546202537675445 -0.000506820908026591 -0.000441191219687145 -0.000417776749256699 -0.000385482990152669 -0.000304833486428605 -0.000203086434021795 -0.00252912804279338 -0.00125264253001631 -0.000633428774771788 -0.000378037222628159 -0.000458025610377837 -0.000970857727422889 -0.00061674758845199 -0.000378593577737546
"80" -0.000199496062311429 -0.000525574798749081 -0.000503649529470765 -0.000428930554382549 -0.000408556703718038 -0.000372960131388971 -0.000312183288393399 -0.000192231576997029 -0.0025520715962042 -0.00126604969023073 -0.000638910308764339 -0.000370163043940087 -0.000469230249272893 -0.00098941480579992 -0.000623389310597969 -0.000384348573772673
"81" -0.000207851889798629 -0.000503453484757455 -0.000498785903480655 -0.000415033420170619 -0.000398416748553052 -0.000360215629740901 -0.00031865733739155 -0.000181585238919285 -0.00256474359598133 -0.00127526129467358 -0.000642954816782775 -0.00036096613022565 -0.000479446606060991 -0.00100303995045767 -0.000628808224502025 -0.000389510609150544
"82" -0.000216070263877203 -0.000479957275133654 -0.000492290263953424 -0.000399561006321566 -0.000387422532133487 -0.00034732130555299 -0.000324210645209723 -0.000171208390460179 -0.00256708498726526 -0.00128020812730803 -0.000645496847049401 -0.000350451681346902 -0.000488585033312709 -0.00101161114829079 -0.000632973200771697 -0.000394027622656878
"83" -0.000224166683179509 -0.000455215578069719 -0.000484224948789883 -0.000382598635930696 -0.000375636559264921 -0.000334350951456725 -0.000328819045308467 -0.000161146469424809 -0.00255915075730492 -0.00128084677631394 -0.000646472457691655 -0.000338638594886607 -0.000496552002415716 -0.00101506432918554 -0.000635866967696386 -0.000397849174128824
"84" -0.000232168638567383 -0.00042937300587394 -0.000474673291134666 -0.00036424042056176 -0.000363133701654038 -0.000321364171275258 -0.000332455327769393 -0.000151440953849733 -0.00254111849599391 -0.00127718553663626 -0.000645829927176091 -0.000325549515172196 -0.000503264860636867 -0.00101339790506752 -0.000637479560344117 -0.000400926836286901
"85" -0.000240110396549687 -0.000402580264584999 -0.000463734884222514 -0.000344587848432577 -0.000349995507907309 -0.000308425736734817 -0.00033510612786726 -0.000142127476589403 -0.0025132820788237 -0.00126928088530564 -0.000643521447253448 -0.000311220014074761 -0.000508656917876463 -0.00100667196345654 -0.000637820410608143 -0.000403220396503625
"86" -0.000248025963671733 -0.000374998629961664 -0.000451511982599812 -0.000323758871739836 -0.000336307967195107 -0.000295589716027526 -0.000336769273156022 -0.000133231624892791 -0.00247604705759235 -0.00125722448272748 -0.000639498507809952 -0.00029569027341772 -0.000512661529266741 -0.000995021064791542 -0.000636902166632438 -0.000404694008515204
"87" -0.000255955565906348 -0.000346799624973857 -0.000438116839108031 -0.00030188082170556 -0.000322161965849628 -0.000282907243225564 -0.000337441440902237 -0.000124778202387969 -0.00242990820296088 -0.00124113880566704 -0.000633726236279404 -0.000279013746826119 -0.000515229792740994 -0.000978621683707913 -0.000634751910283021 -0.000405311764422637
"88" -0.000263923678582933 -0.000318158542285677 -0.000423682059959183 -0.000279092298171964 -0.000307653539636243 -0.000270419914245191 -0.000337138472017988 -0.000116777064710504 -0.00237544855850546 -0.00122119387134563 -0.00062618472716786 -0.000261252853492559 -0.000516318954507001 -0.000957702584396869 -0.000631400160944754 -0.000405050319762837
"89" -0.000271976194630728 -0.000289254530980181 -0.000408337050465729 -0.000255533329091811 -0.000292884141722912 -0.000258166864490722 -0.000335884965291984 -0.000109237595196331 -0.00231332336641799 -0.0011975798457116 -0.000616859434766232 -0.000242475080332477 -0.000515903989495585 -0.000932539595450529 -0.000626892253618371 -0.000403888631450281
"90" -0.000280149740241554 -0.000260272344952992 -0.000392222289223473 -0.000231356981603927 -0.000277955379789253 -0.000246177327982457 -0.000333709515488603 -0.00010216594435445 -0.00224423390913797 -0.00117051354492985 -0.000605750885340826 -0.000222764883262794 -0.000513964724194398 -0.000903431351837995 -0.000621270033688938 -0.000401809504620786
"91" -0.000288473116429304 -0.000231394342214826 -0.000375488145131096 -0.000206717408364441 -0.000262973953748491 -0.000234480505623263 -0.000330648622908053 -9.55591688150097e-05 -0.00216893082942562 -0.0011402336065376 -0.000592877940148344 -0.000202204905523381 -0.0005104988238933 -0.000870718557470022 -0.000614589249207311 -0.000398808729619194
"92" -0.000296976585327366 -0.000202803278241736 -0.000358282085590194 -0.000181775182248559 -0.000248045648987794 -0.000223093530846935 -0.00032675238403979 -8.94139625944394e-05 -0.0020881985382523 -0.00110699892884793 -0.000578270001886781 -0.000180896473401142 -0.000505513919125033 -0.000834756716499116 -0.000606911803438386 -0.000394880197527035
"93" -0.000305687636180151 -0.000174682068573195 -0.00034075713308685 -0.000156690388017825 -0.000233278178102436 -0.000212034484535065 -0.000322076234530733 -8.37256953409318e-05 -0.00200282054095057 -0.00107107272459749 -0.000561975108735427 -0.000158944642157778 -0.000499032632555193 -0.000795910561462501 -0.000598291892017021 -0.000390030767036475
"94" -0.00031463134114346 -0.000147203088279928 -0.000323069788946254 -0.000131624919851084 -0.000218777912176674 -0.000201309162074989 -0.000316677704662299 -7.84857811542158e-05 -0.00191359417589237 -0.00103273585143878 -0.000544064416201301 -0.000136459671620444 -0.000491085684906352 -0.000754555047584987 -0.000588799953350763 -0.000384270144779481
"95" -0.000323822602526811 -0.000120541593334566 -0.000305369140933077 -0.000106739359069346 -0.000204652413083369 -0.000190923080163577 -0.00031063028272874 -7.36823000541204e-05 -0.00182130758970665 -0.000992265461535924 -0.000524615367386239 -0.000113566617454984 -0.000481718566223291 -0.000711064040491541 -0.000578498270479999 -0.000377616216572921
"96" -0.000333274668105008 -9.48587595488407e-05 -0.000287814009391081 -8.21944196997987e-05 -0.00019100452663748 -0.000180877262058166 -0.00030400679619359 -6.93030276587573e-05 -0.00172673047670695 -0.000949950833177668 -0.000503735978966086 -9.03883558860925e-05 -0.00047098497409649 -0.000665819434545984 -0.000567454966078332 -0.000370096647741287
"97" -0.000342999555202782 -7.03111834427677e-05 -0.000270551151178055 -5.81445414067265e-05 -0.000177934745408401 -0.000171166274900521 -0.000296888410674984 -6.53395476263322e-05 -0.00163061991791127 -0.000906075485599175 -0.000481539863531264 -6.70554186438776e-05 -0.000458963476578771 -0.00061918526680298 -0.000555742360177805 -0.00036174163340861
"98" -0.000352993475395997 -4.70469127662326e-05 -0.00025372688685182 -3.47402296119745e-05 -0.000165544739895251 -0.000161783454962221 -0.000289359388807172 -6.1776396216354e-05 -0.00153369228988341 -0.000860925308223245 -0.000458168912262548 -4.37054183673275e-05 -0.000445726033108931 -0.000571520061266926 -0.000543429381339624 -0.000352589015284078
"99" -0.000363267569312018 -2.51989307648365e-05 -0.000237479123580432 -1.21278496125099e-05 -0.000153924134846748 -0.000152716503952228 -0.000281513721364453 -5.860005087628e-05 -0.00143663650588895 -0.000814777479700965 -0.000433772161393093 -2.04776244298117e-05 -0.000431365808661636 -0.000523168365787718 -0.00053058345863568 -0.000342684676398846
"100" -0.000373815528170144 -4.8926837084614e-06 -0.000221945269069033 9.55900044909837e-06 -0.000143166581847322 -0.000143954529976605 -0.000273443762220625 -5.58000492647819e-05 -0.0013401045779731 -0.000767914726928331 -0.000408514708860445 2.49040145108647e-06 -0.000415990848837048 -0.000474465635475072 -0.000517280183408213 -0.000332080541323641
"101" -0.000384630645348572 1.37590828104543e-05 -0.000207257118839074 3.01876929589638e-05 -0.000133352582922817 -0.000135482392002651 -0.000265244259549558 -5.33611863570359e-05 -0.00124471586500556 -0.000720604762418365 -0.000382574849338787 2.50593338809526e-05 -0.000399709653419167 -0.000425734693229586 -0.000503590374849155 -0.000320838237701289
"102" -0.000395703723374266 3.06573749129623e-05 -0.000193524985036683 4.96394574264271e-05 -0.000124557845251804 -0.000127281174706197 -0.000257018381344826 -5.12736726760934e-05 -0.00115104102624542 -0.000673119217176578 -0.000356147551089119 4.70850801257071e-05 -0.000382643105102535 -0.000377279444652941 -0.000489583443387574 -0.000309020410082138
"103" -0.000407036154007619 4.5720070351463e-05 -0.000180864868321519 6.78033785518417e-05 -0.000116858243936862 -0.000119338134827015 -0.000248862059256579 -4.95256278125598e-05 -0.00105962052188066 -0.000625715238762383 -0.00032942460333889 6.84345850882043e-05 -0.000364922754729653 -0.000329388092893938 -0.000475338435367803 -0.000296701277718661
"104" -0.000418613676741954 5.88721799941629e-05 -0.000169383299539229 8.45850053337274e-05 -0.000110313931957885 -0.000111635382956587 -0.000240879493634388 -4.81053228109808e-05 -0.000970950600446356 -0.000578656797251009 -0.000302613111771119 8.89711938204564e-05 -0.000346688493856762 -0.000282341315940094 -0.000460925405365042 -0.000283959298702176
"105" -0.000430426330209331 7.00594712200131e-05 -0.00015916033314634 9.98960251648387e-05 -0.000104979884073769 -0.000104153344437526 -0.000233166935338935 -4.69997540279339e-05 -0.0008854843828332 -0.000532185806635262 -0.000275920304866645 0.000108570008135759 -0.000328079083101356 -0.000236398025862105 -0.000446418802518332 -0.00027087494981759
"106" -0.000442469135594415 7.92378464139576e-05 -0.00015028298022861 0.000113660793521969 -0.000100903467374912 -9.68793713604564e-05 -0.000225823721923486 -4.61997836884679e-05 -0.000803649543762686 -0.000486551775887048 -0.000249555625377497 0.000127107220269827 -0.000309249320537881 -0.000191817005771844 -0.000431891307994703 -0.000257537536375437
"107" -0.000454733465232095 8.63847632961627e-05 -0.000142817500545792 0.000125821926422309 -9.8125566435353e-05 -8.97984645628772e-05 -0.000218948062657536 -4.56944914825713e-05 -0.000725818643629045 -0.000441991745355405 -0.000223723933336193 0.000144471134282053 -0.000290343852701424 -0.000148827458502144 -0.000417421542751269 -0.000244040036305957
"108" -0.000467208160060941 9.14875484894972e-05 -0.000136820505085524 0.000136332792038533 -9.66716933370267e-05 -8.28976424061096e-05 -0.000212628320565567 -4.54733238795252e-05 -0.000652335105720145 -0.000398731264828575 -0.000198627472387162 0.000160559864550026 -0.000271520601601548 -0.000107659550588452 -0.000403083187530294 -0.00023047812014768
"109" -0.000479890528043874 9.45473468761975e-05 -0.000132338025621638 0.000145156150904334 -9.65638682575576e-05 -7.61661856644931e-05 -0.000206955404860913 -4.55235546899221e-05 -0.00058351122685827 -0.000356999364613255 -0.000174464416225291 0.000175274420543589 -0.000252936166713208 -6.85262295944055e-05 -0.00038894697637586 -0.000216949197560745
"110" -0.000492778849397931 9.55867153530454e-05 -0.000129396521181493 0.000152279382619105 -9.78104945812659e-05 -6.95946012896406e-05 -0.000202008090500784 -4.58369864673909e-05 -0.000519607207638946 -0.000317004921299494 -0.00015141792149758 0.000188534331248144 -0.000234745952237206 -3.16239697602241e-05 -0.000375093167449124 -0.000203553502802074
"111" -0.000505866802426102 9.46400576608121e-05 -0.000128016511551922 0.000157695175101625 -0.00010040645040953 -6.31796028668124e-05 -0.000197861443109875 -4.640011443291e-05 -0.000460857243425501 -0.000278956769304663 -0.000129667842435937 0.000200269536916841 -0.000217097912467811 2.85700495107796e-06 -0.000361587159241124 -0.000190392207062552
"112" -0.000519148934941298 9.17558554798665e-05 -0.000128206293681838 0.000161415801041773 -0.000104344254489409 -5.69150503211768e-05 -0.000194587234295436 -4.72059829110197e-05 -0.000407460699525049 -0.000243046333802317 -0.000109366829073889 0.000210425423406301 -0.000200141001287556 3.47387828947703e-05 -0.000348502907172939 -0.000177566817639885
"113" -0.000532630516072899 8.69962149525557e-05 -0.000129956536111172 0.000163466629281459 -0.000109603982223597 -5.08022791310215e-05 -0.0001922440518295 -4.82408226960185e-05 -0.000359580297731037 -0.000209464419633277 -9.06642084114907e-05 0.000218955947822283 -0.000184020949404453 6.3859474362857e-05 -0.000335910609409809 -0.0001651780057366
"114" -0.000546301668360531 8.04430641543838e-05 -0.000133247008650376 0.000163887186639432 -0.000116146726890543 -4.48448732188799e-05 -0.000190880441171817 -4.94975050003579e-05 -0.000317335941917255 -0.000178374350408916 -7.36872349537585e-05 0.000225834014362733 -0.000168874484633828 9.00704893996595e-05 -0.000323868212937072 -0.000153320307067243
"115" -0.000560165751088222 7.21872633389667e-05 -0.000138042810601417 0.000162731485426903 -0.000123931618690629 -3.90430023945398e-05 -0.0001905391535257 -5.09644927792489e-05 -0.000280813383605804 -0.000149932825308745 -5.85452442134782e-05 0.000231045887876551 -0.0001548252980056 0.000113244587903655 -0.000312440436786363 -0.000142090498657159
"116" -0.000574215661947187 6.233499728342e-05 -0.000144303288667901 0.000160067925534688 -0.000132905253399256 -3.34090553080739e-05 -0.000191250655734494 -5.26301161544938e-05 -0.000250076912620704 -0.000124282479568902 -4.53289434637572e-05 0.000234590765839477 -0.000141996752971157 0.000133257867895621 -0.000301682146887532 -0.000131576792232882
"117" -0.000588447668485063 5.10046413953965e-05 -0.000151966669342053 0.000155976473953669 -0.000143001822564591 -2.79521007626603e-05 -0.000193031131115677 -5.44835390285637e-05 -0.000225127396647099 -0.000101546688000977 -3.41062085830181e-05 0.000236485471851106 -0.000130493158984436 0.000150022094623646 -0.00029163967552912 -0.000121867549972262
"118" -0.000602847950023102 3.83284974729395e-05 -0.000160962879133432 0.000150550394915838 -0.000154144552915006 -2.26844912698888e-05 -0.000195891416855859 -5.65192099478237e-05 -0.000205942563044826 -8.18225326355459e-05 -2.4925711684173e-05 0.000236760055775458 -0.000120409157590178 0.000163455551008615 -0.000282357686524372 -0.000113036347878243
"119" -0.000617408147126557 2.44454541304349e-05 -0.000171215641823927 0.000143894765716538 -0.000166252446545867 -1.76202069445639e-05 -0.000199825363268606 -5.8720909113599e-05 -0.000192459993688334 -6.51978949230165e-05 -1.78219165785426e-05 0.00023546069547583 -0.000111827951519031 0.000173509291641355 -0.000273868303571253 -0.000105157282666788
"120" -0.00063211240140443 9.51364934195375e-06 -0.000182631559614376 0.000136128020866602 -0.000179226107782212 -1.2776313331376e-05 -0.000204817106274363 -6.10821657829293e-05 -0.00018456947256709 -5.17241213640822e-05 -1.28007367525047e-05 0.000232642430293742 -0.000104814132058067 0.000180155783727036 -0.000266201150055766 -9.82945541571859e-05
"121" -0.000646934527614609 -6.3082309973617e-06 -0.000195105463343175 0.000127371559125303 -0.000192966338707051 -8.16928646477969e-06 -0.000210836336046846 -6.35955455981038e-05 -0.000182125826519148 -4.14396269259363e-05 -9.85045771665122e-06 0.000228380385988495 -9.94182945195145e-05 0.000183391233626094 -0.00025937029043426 -9.24958502025154e-05
"122" -0.00066184941303102 -2.28464577852754e-05 -0.00020853286766263 0.00011776529297263 -0.000207359373536945 -3.82232839083898e-06 -0.000217841499898364 -6.62502245082649e-05 -0.000184921409134937 -3.4345418491278e-05 -8.94432525348252e-06 0.000222756117426262 -9.56780278501731e-05 0.00018325741616252 -0.00025338244427035 -8.78092507093768e-05
"123" -0.000676821401575074 -3.99247698901529e-05 -0.000222793616725966 0.000107449683004652 -0.0002222862041524 2.49107055471998e-07 -0.000225781660874693 -6.90357131065349e-05 -0.0001927336418331 -3.04265813949464e-05 -1.00385070169187e-05 0.000215867708167495 -9.36070541589613e-05 0.000179804974151044 -0.000248238539009281 -8.42671896172322e-05
"124" -0.000691810690326392 -5.73527620072909e-05 -0.000237759471111025 9.65723270200984e-05 -0.000237619193393952 4.022350188643e-06 -0.00023458795371631 -7.1950903314855e-05 -0.000205276574186227 -2.96329715786973e-05 -1.30651562096053e-05 0.000207816709531532 -9.32136458290258e-05 0.000173135515617128 -0.000243923805156032 -8.18909695602908e-05
"125" -0.000706765065099206 -7.49450271234387e-05 -0.000253298864609236 8.52898858243236e-05 -0.000253227776522945 7.47589952028649e-06 -0.000244188346748845 -7.49822598309267e-05 -0.000222209248787042 -3.18866265352912e-05 -1.79484565241171e-05 0.000198723050771492 -9.4476460229405e-05 0.000163376011027004 -0.000240414633198125 -8.06886109858617e-05
"126" -0.000721633659777246 -9.25070361142475e-05 -0.000269272962510643 7.37578945253508e-05 -0.000268974566695568 1.05888885221175e-05 -0.000254493994296796 -7.81212215756224e-05 -0.000243161887811288 -3.7090603046654e-05 -2.45959968762815e-05 0.000188705455235112 -9.73658978360345e-05 0.000150693646517127 -0.000237682352873845 -8.06614680338931e-05
"127" -0.000736343527147196 -0.000109841095516625 -0.0002855359000396 6.21373777701764e-05 -0.000284719012407316 1.33424378270896e-05 -0.000265412188215763 -8.13676091053613e-05 -0.000267707089271907 -4.51073498409584e-05 -3.2898760343284e-05 0.000177897241088687 -0.000101829698347916 0.000135285354105181 -0.000235681445501818 -8.17932226562888e-05
"128" -0.000750832345483802 -0.000126753056475867 -0.000301946592960057 5.05893344147265e-05 -0.000300320984500677 1.57163056586225e-05 -0.000276830364852744 -8.47052415012828e-05 -0.000295391600435147 -5.57905134060536e-05 -4.27413582134599e-05 0.000166430488029365 -0.000107808197004575 0.000117380958699688 -0.000234365160727564 -8.40613700328379e-05
"129" -0.000765025684684233 -0.000143047374237879 -0.000318357510720691 3.92697922035133e-05 -0.000315632027359484 1.76918228330673e-05 -0.000288644230979245 -8.81322739355911e-05 -0.000325696791528771 -6.89595056689142e-05 -5.39943592272202e-05 0.000154447889667797 -0.000115216393432754 9.72490310348556e-05 -0.00023367633645222 -8.74284964792606e-05
"130" -0.000778835516654739 -0.00015853174024299 -0.000334616996313541 2.83393511201232e-05 -0.000330509960616597 1.92535988784618e-05 -0.000300732219546923 -9.16370536660017e-05 -0.000358095366951621 -8.44184661256147e-05 -6.65165732271297e-05 0.000142093654434653 -0.000123961794498699 7.51733936646461e-05 -0.000233550637207552 -9.18461609463906e-05
"131" -0.00079217893471233 -0.000173021111496445 -0.00035058399652601 1.79468243405353e-05 -0.000344813572271036 2.03854391772397e-05 -0.000312970584692273 -9.52085409855951e-05 -0.000392007848903529 -0.000101958763771427 -8.01622781757833e-05 0.000129511188633033 -0.000133932181421425 5.14735561369992e-05 -0.000233922724079007 -9.72565334435527e-05
"132" -0.000804970557780889 -0.000186336804613974 -0.000366111886788287 8.2403047102218e-06 -0.00035840134239244 2.10746878024044e-05 -0.000325230569714656 -9.8833906547341e-05 -0.000426851085541774 -0.000121356936067071 -9.47744293292274e-05 0.000116845324820775 -0.000145014702479179 2.64761777796547e-05 -0.000234719395593566 -0.000103590940767892
"133" -0.000817122751770253 -0.000198306851679515 -0.000381061477646453 -6.45469058155977e-07 -0.000371135368580884 2.13141948963772e-05 -0.000337388324308954 -0.000102501622977933 -0.000462017729035679 -0.000142390058775401 -0.000110190921284382 0.00010424462754482 -0.000157076945786199 5.23613373828511e-07 -0.000235871506639885 -0.000110776412854845
"134" -0.000828545586238236 -0.000208767806789406 -0.000395299545848632 -8.57735232819532e-06 -0.00038288729521844 2.10917729957317e-05 -0.000349311508295272 -0.000106190298701966 -0.000496897340240231 -0.000164825242688637 -0.00012624890538474 9.18546943442124e-05 -0.000169981682865697 -2.60320892257925e-05 -0.000237306093008509 -0.000118730485779482
"135" -0.000839150565392715 -0.000217574451805635 -0.000408699472672803 -1.54399307203921e-05 -0.000393532214140895 2.04065249030352e-05 -0.000360872692928537 -0.000109878075826413 -0.000530882510511511 -0.000188436632632462 -0.000142769526110606 7.98118290824262e-05 -0.000183584118007691 -5.28469197770078e-05 -0.000238955385369974 -0.000127360133864795
"136" -0.000848864008291646 -0.000224593544797155 -0.000421146743444609 -2.11272456976499e-05 -0.000402954259633917 1.92570651783689e-05 -0.000371948984057567 -0.000113543547453881 -0.000563392430040323 -0.00021301301120998 -0.000159580132768359 6.82608831949235e-05 -0.000197737946860316 -7.95864193485364e-05 -0.000240750709122562 -0.000136575047037782
"137" -0.000857601585734905 -0.0002297037754588 -0.000432525778758132 -2.55476863982925e-05 -0.000411048306777624 1.76445600015939e-05 -0.00038241877574589 -0.00011715891955559 -0.000593874279609621 -0.000238346008493963 -0.000176498825742173 5.73321275497394e-05 -0.00021229082549722 -0.000105933531826616 -0.000242633470740655 -0.000146275856527498
"138" -0.000865301734115286 -0.000232803348161349 -0.000442746534948696 -2.86222864637069e-05 -0.000417712652416107 1.55780471499709e-05 -0.000392168161832964 -0.000120688406955946 -0.000621801817884571 -0.000264253961642869 -0.000193343522090179 4.71538253588906e-05 -0.000227091666265921 -0.000131587371556783 -0.000244548189202851 -0.00015636580328419
"139" -0.000871900125566358 -0.000233804570187603 -0.000451720550582961 -3.02896002147104e-05 -0.000422865018385927 1.30633088621233e-05 -0.000401090375354737 -0.000124097658240792 -0.000646704510591337 -0.000290566350045543 -0.000209936258785998 3.78515031482039e-05 -0.000241990189625033 -0.000156282743311318 -0.000246448937166217 -0.000166741255727667
"140" -0.000877348965118755 -0.000232644627707472 -0.000459377569151225 -3.05005832495483e-05 -0.000426428033255127 1.01182579100794e-05 -0.000409088754882544 -0.000127347849422736 -0.00066817107224004 -0.000317145237056017 -0.000226090657468573 2.9535877605564e-05 -0.000256840017357222 -0.000179786153067362 -0.000248298714495696 -0.000177308102613565
"141" -0.000881601279346039 -0.000229274212901634 -0.000465652062173345 -2.92280709422117e-05 -0.000428343411547404 6.75483328858181e-06 -0.000416070613628734 -0.00013039267283775 -0.000685848908249252 -0.000343862600383641 -0.00024163006746984 2.23144568514195e-05 -0.000271494950876832 -0.00020189675975959 -0.000250064499911231 -0.000187960329711175
"142" -0.000884630370386397 -0.000223664565334099 -0.000470503081831224 -2.64565387857773e-05 -0.000428561960550908 2.9964968839348e-06 -0.000421959617841438 -0.000133189164948233 -0.000699451966392498 -0.000370623681776529 -0.000256376306128605 1.62834311840978e-05 -0.000285816910420506 -0.000222455151159006 -0.000251728321567623 -0.000198603806932057
"143" -0.000886411288441213 -0.000215806058008675 -0.000473895911434037 -2.21857634301158e-05 -0.00042704660686599 -1.13794804319326e-06 -0.000426687654947782 -0.000135688621747428 -0.000708769125242075 -0.000397352754160161 -0.000270162622901995 1.15293863448306e-05 -0.000299674648340694 -0.000241334860448457 -0.000253275856938351 -0.000209147407105921
"144" -0.00088693415269932 -0.000205709431000743 -0.000475807068393375 -1.64350150452685e-05 -0.000423779107967536 -5.62202583646757e-06 -0.000430199244691517 -0.000137845658796054 -0.000713664543746558 -0.000423998913559875 -0.000282822681714336 8.12696679015301e-06 -0.000312944008220989 -0.000258457041396022 -0.000254700737002725 -0.000219499372349925
"145" -0.00088619485761201 -0.000193405840684731 -0.000476230580026795 -9.23847875116715e-06 -0.000418751200119472 -1.0425993397317e-05 -0.000432453606688348 -0.000139608912973425 -0.000714064318769265 -0.000450522081467797 -0.000294201628899207 6.14063443446972e-06 -0.000325510144010265 -0.000273767447999279 -0.000256008279194291 -0.000229573629065398
"146" -0.000884192294124544 -0.000178938933772531 -0.00047516713858884 -6.42810396042716e-07 -0.000411973301792732 -1.55237125751271e-05 -0.000433420589655791 -0.000140931453440963 -0.000709968057232444 -0.000476902699606909 -0.000304160918344959 5.6164476346007e-06 -0.000337263913510553 -0.000287248088410503 -0.000257206467477172 -0.000239289819054032
"147" -0.000880941361151059 -0.000162378112361746 -0.000472634792740484 9.29063236974422e-06 -0.000403462672370357 -2.088349885496e-05 -0.000433078412713395 -0.000141772351231622 -0.000701438312872555 -0.000503131739343952 -0.000312564605696063 6.59501313393042e-06 -0.000348113968073316 -0.000298908685425807 -0.000258307183813538 -0.00024857041436553
"148" -0.000876457613187701 -0.000143801310729844 -0.000468660461805566 2.04868317715997e-05 -0.000393257469224353 -2.64728450573129e-05 -0.00043142256583128 -0.000142087238282107 -0.000688599516228861 -0.000529205657628571 -0.000319300878375035 9.0937522017566e-06 -0.000357967108715573 -0.000308790366973815 -0.000259330302151071 -0.000257347349573445
"149" -0.000870764036962076 -0.00012330828332631 -0.000463278147750609 3.28617207495626e-05 -0.00038140935476721 -3.22596286176415e-05 -0.000428463347164238 -0.00014184428482186 -0.000671629942311318 -0.00055513240644761 -0.000324267167598743 1.31242115760386e-05 -0.000366755059467957 -0.000316946626934288 -0.000260297243987968 -0.000265556297774538
"150" -0.000863889654075087 -0.000101009305036472 -0.000456532998915105 4.63170303595433e-05 -0.000367976078839664 -3.82114982550807e-05 -0.000424218058962922 -0.000141010602951752 -0.000650756199148164 -0.000580919250954266 -0.000327388212800047 1.86754056282345e-05 -0.00037440910428725 -0.000323446166720986 -0.000261231983606075 -0.000273139944291716
"151" -0.00085585626609034 -7.70308633895304e-05 -0.000448479429144766 6.0747599986304e-05 -0.00035303513112025 -4.42973811677914e-05 -0.000418719419362713 -0.000139564742432602 -0.000626246403605791 -0.000606567856297517 -0.000328595702413079 2.57259580176005e-05 -0.000380879587155249 -0.000328379181075504 -0.000262158557864156 -0.000280044933778826
"152" -0.000846701701502168 -5.15093084911204e-05 -0.000439180059295082 7.60390173038924e-05 -0.000336674423308789 -5.04832505435265e-05 -0.000412011854113923 -0.000137486785176993 -0.000598392304092478 -0.000632081166916934 -0.000327854497040785 3.42390991349999e-05 -0.000386127704092737 -0.00033183532205502 -0.000263100156660242 -0.000286233266520503
"153" -0.000836460317555841 -2.45947770498325e-05 -0.00042870626009212 9.20709473541125e-05 -0.000318987162423012 -5.67357477180847e-05 -0.000404152975996439 -0.000134768376836411 -0.000567527908763624 -0.000657457746691799 -0.000325148445662032 4.41598428631993e-05 -0.000390124505183601 -0.000333911912578038 -0.000264078123520076 -0.000291665239131661
"154" -0.000825171072491604 3.55517478201189e-06 -0.000417128267317805 0.000108715351197212 -0.000300088376913758 -6.30268178803526e-05 -0.000395203990526135 -0.000131412907703338 -0.000534011042193812 -0.000682685045224623 -0.000320475903965325 5.54226301952076e-05 -0.000392855638930496 -0.000334709217021874 -0.000265116701453785 -0.000296313809579192
"155" -0.000812870098781798 3.27722346427192e-05 -0.000404537514480894 0.000125841196788538 -0.000280093017744559 -6.9326113032599e-05 -0.00038524445463037 -0.000127421938299111 -0.000498205838846524 -0.000707739243816971 -0.000313869064617644 6.79436980369004e-05 -0.000394316632321937 -0.000334332930000527 -0.00026623003033206 -0.000300155542406736
"156" -0.000799607043435235 6.2883157935897e-05 -0.000391019723461727 0.000143314390590627 -0.000259125651482421 -7.56051734931517e-05 -0.000374357506855081 -0.000122820471947595 -0.000460496236479273 -0.000732603156821654 -0.000305378214253806 8.16315400936348e-05 -0.000394519595837974 -0.000332878764703823 -0.000267441318153258 -0.000303187333949361
"157" -0.000785415666059814 9.37094173629303e-05 -0.000376663819842053 0.000160999167526622 -0.0002373222464382 -8.18373607294969e-05 -0.000362639260321189 -0.000117625207284278 -0.000421270523783324 -0.000757233123801469 -0.000295078387325224 9.6377327083068e-05 -0.000393489198236276 -0.000330438860319698 -0.000268758417798821 -0.000305398626943314
"158" -0.000770351546470604 0.000125063393443803 -0.000361572185567375 0.000178753308991845 -0.000214825799119601 -8.799571288181e-05 -0.00035019242839092 -0.000111871136761614 -0.00038092147080303 -0.00078158913200872 -0.000283066000804788 0.000112064486209799 -0.000391259846762664 -0.000327112990697399 -0.000270196587403271 -0.000306801912173804
"159" -0.000754462285017753 0.000156760489875494 -0.000345851821219489 0.000196443999174656 -0.000191781127906821 -9.40605431132868e-05 -0.000337123151476114 -0.000105601703804629 -0.000339835465804312 -0.00080561933082559 -0.000269458696405441 0.000128564011381527 -0.000387880800537772 -0.000322979168285092 -0.000271758885063387 -0.000307405849677143
"160" -0.000737796635113898 0.000188605961042679 -0.00032960483958594 0.000213929539501637 -0.000168339923106727 -0.000100005924537159 -0.000323551686705183 -9.88613285212057e-05 -0.000298403419934494 -0.000829261402864905 -0.000254392176771823 0.00014573499351224 -0.000383409671555333 -0.000318130164385241 -0.00027345629087642 -0.000307237297498448
"161" -0.000720423411242065 0.000220409856386097 -0.000312940507025056 0.000231078626972818 -0.000144655813636693 -0.000105814504678964 -0.000309598130412517 -9.17069793177333e-05 -0.000257003614635553 -0.0008524541408575 -0.000238024387855309 0.00016343381365246 -0.000377921147470528 -0.000312637849697535 -0.000275291263506999 -0.000306330690357614
"162" -0.000702389220833951 0.000251979618042164 -0.000295976564330736 0.000247758038427755 -0.000120887735145406 -0.000111469063019491 -0.000295385069029493 -8.41986112695356e-05 -0.000216000085062249 -0.00087512735025621 -0.00022052383113182 0.000181505309833853 -0.000371492580233816 -0.000306577138653147 -0.000277262841730283 -0.000304722225232179
"163" -0.000683771269220541 0.000283126026421573 -0.000278822976183253 0.000263842353414412 -9.71900111344648e-05 -0.000116951256430577 -0.000281039216521307 -7.64011561674068e-05 -0.000175745919055586 -0.000897205290955398 -0.000202081697041288 0.000199796246764083 -0.000364219181064189 -0.000300008874599289 -0.00027937345575753 -0.000302462713828551
"164" -0.000664627082515827 0.000313663452026691 -0.000261593852330565 0.000279206988504503 -7.37229116998885e-05 -0.000122251503441574 -0.00026669362731175 -6.8384609993135e-05 -0.000136578593685052 -0.000918610208586601 -0.000182894184395819 0.000218138763298636 -0.000356195659853086 -0.000293004674557154 -0.000281620002280514 -0.000299605632759072
"165" -0.000645038922940404 0.000343406318187409 -0.000244411456329996 0.000293739641662237 -5.06432639844614e-05 -0.000127357228374143 -0.000252473570046739 -6.02252494672318e-05 -9.88218959089338e-05 -0.000939267018599559 -0.000163166740332991 0.000236378367333701 -0.000347537445717938 -0.000285616384332635 -0.000284003625933127 -0.000296219065743305
"166" -0.000625080152500195 0.00037217604240173 -0.000227388786391349 0.000307328182243325 -2.81047949510421e-05 -0.000132259257254573 -0.000238510390792446 -5.19955321645118e-05 -6.27689631611776e-05 -0.000959091290046186 -0.000143107436927318 0.000254343685330061 -0.000338347943814528 -0.000277901447944154 -0.000286518291890217 -0.000292365360855811
"167" -0.000604832485715363 0.000399804247582316 -0.000210643232980486 0.000319874117965995 -6.25606230002877e-06 -0.000136950844691271 -0.000224930820956427 -4.3777617445121e-05 -2.8695983596217e-05 -0.00097800852041774 -0.000122942231874822 0.000271874508533847 -0.000328753689066522 -0.00026990674528378 -0.000289167186114955 -0.000288122528949643
"168" -0.000584388991413133 0.000426118938938395 -0.000194285665579559 0.000331283974849201 1.47527275946015e-05 -0.00014142812776674 -0.000211859329893689 -3.5647604340385e-05 3.14346976694011e-06 -0.000995935879809129 -0.000102877008546484 0.00028881189625899 -0.000318873358994115 -0.000261681715333357 -0.000291944755023402 -0.000283565493711081
"169" -0.000563836775374311 0.000450969755143845 -0.000178429969229765 0.000341474774947771 3.47875126589866e-05 -0.000145687793681547 -0.000199411890501272 -2.76841248363058e-05 3.25239970597814e-05 -0.00101279746011277 -8.31314912716019e-05 0.000304999461216829 -0.000308832226011655 -0.000253265896875583 -0.000294853441290138 -0.000278780975090344
"170" -0.000543265448241444 0.000474209515037764 -0.000163184165441834 0.000350375299314624 5.37108103182449e-05 -0.000149731886102137 -0.000187702753947813 -1.99677272033545e-05 5.92442681708058e-05 -0.00102851732980913 -6.39115368442019e-05 0.000320287709917586 -0.000298755028683 -0.000244700589759907 -0.000297893517492832 -0.000273849622728064
"171" -0.000522776206323442 0.000495697392395217 -0.000148649752329932 0.000357918586994177 7.14000479798765e-05 -0.000153559460401613 -0.000176841995062038 -1.25704944148228e-05 8.31305293725071e-05 -0.00104302244214321 -4.5413748605335e-05 0.000334529965256863 -0.000288766456913045 -0.000236021884608161 -0.000301061677276015 -0.000268857833494269
"172" -0.000502463325678254 0.000515314696399533 -0.000134926171674665 0.000364056970803079 8.77403701938684e-05 -0.000157178330809892 -0.000166926302767616 -5.56783272089197e-06 0.000104037262535364 -0.00105624528293862 -2.78261697860454e-05 0.00034759507284972 -0.000278984232413358 -0.000227264703517226 -0.000304367369326307 -0.000263892855632026
"173" -0.000482437478799852 0.00053294526040481 -0.000122108771139588 0.000368746825825248 0.00010262456885915 -0.000160592385997381 -0.000158043624680271 9.71722315483138e-07 0.000121854889702474 -0.00106812015210064 -1.13252605062921e-05 0.000359360086464715 -0.000269532791939009 -0.000218459375823493 -0.000307812110139694 -0.000259042431513261
"174" -0.000462792972540558 0.000548490600984944 -0.000110283232916931 0.000371960466267118 0.000115959305488466 -0.000163808330078319 -0.000150279008849379 6.98054545357459e-06 0.000136489044477157 -0.00107858480589402 3.9351344034542e-06 0.000369706485057945 -0.000260521661980599 -0.000209634580765323 -0.000311399180245582 -0.000254384117913903
"175" -0.000443634445687416 0.000561865570863495 -9.9527164069917e-05 0.000373677905475513 0.000127656072893622 -0.000166834963616624 -0.000143700945796987 1.24041344710457e-05 0.000147888736864993 -0.00108758325128077 1.78112161002605e-05 0.00037853285137595 -0.000252055104170901 -0.000200819024700438 -0.000315139743501906 -0.000250003782390386
"176" -0.000425061412516675 0.000572997602591372 -8.99147784778505e-05 0.000373891750201544 0.000137649816226506 -0.000169682259992896 -0.000138365168205505 1.71827888858074e-05 0.000156031035528092 -0.00109506058869538 3.01857303701914e-05 0.000385751601835943 -0.00024423454280896 -0.000192032616932821 -0.000319034834828196 -0.000245977254928145
"177" -0.000407171584241045 0.000581832871143476 -8.15038400307628e-05 0.000372609056758914 0.000145880269748542 -0.000172363832396498 -0.000134321512982118 2.12716114110835e-05 0.000160917312271734 -0.00110096634815812 4.09598401337077e-05 0.000391287272535991 -0.000237147560882833 -0.000183301881733071 -0.000323098207910453 -0.000242378249026532
"178" -0.000390071694932533 0.000588327444950809 -7.43555824012261e-05 0.000369841657524169 0.000152298401469978 -0.000174890982891664 -0.000131601613139208 2.46287233816657e-05 0.00016258302749322 -0.00110526067173298 5.00528354692917e-05 0.000395075702018674 -0.000230873956381213 -0.000174645280165819 -0.000327336763315578 -0.000239272031885745
"179" -0.000373844325713689 0.000592458249595646 -6.85095556869267e-05 0.000365618907468119 0.000156877394254774 -0.000177275075845182 -0.000130228447430538 2.72209008539287e-05 0.000161095725827756 -0.00110790402563421 5.74144624111157e-05 0.000397076680886901 -0.000225486663591849 -0.000166082702010539 -0.000331759858790153 -0.000236719384411409
"180" -0.000358582133830078 0.000594214717782413 -6.40025212977455e-05 0.000359974555577771 0.000159599328176835 -0.000179526645292318 -0.000130211339516104 2.90203510345817e-05 0.000156559165016221 -0.0011088582560034 6.30087266497399e-05 0.000397251612592925 -0.000221036762448773 -0.000157623112798473 -0.000336373825305321 -0.000234772820103435
"181" -0.000344374210467655 0.00059360204636217 -6.08601703499157e-05 0.000352956488475227 0.000160459321250734 -0.00018166360160787 -0.000131545753668188 3.00105516319043e-05 0.000149080598762248 -0.00110809582236015 6.68318284078298e-05 0.000395590181714998 -0.000217569945623665 -0.000149293160206203 -0.000341190105501271 -0.000233478551218959
"182" -0.000331292822498476 0.000590639104257012 -5.90995517367668e-05 0.000344623285957797 0.000159464964150276 -0.000183694674826431 -0.000134215639152922 3.01801816804822e-05 0.000138831387213021 -0.00110559159206856 6.88926437259726e-05 0.00039208876847541 -0.000215124408153508 -0.000141097199659084 -0.000346209175388691 -0.000232871378051578
"183" -0.000319413838089718 0.000585365859809547 -5.87252829694904e-05 0.000335038237687817 0.000156647630616897 -0.000185632495168846 -0.000138192715456191 2.9524305435634e-05 0.000125987668054456 -0.00110132524921095 6.92264409389193e-05 0.000386763345666182 -0.000213713083435022 -0.000133043495984689 -0.000351441620679793 -0.000232981736035462
"184" -0.000308796109569376 0.000577830876241906 -5.97322264870269e-05 0.000324272864014584 0.000152040017474972 -0.000187487089228349 -0.000143431671047297 2.80521048497176e-05 0.000110765242519303 -0.00109528050944064 6.7893581573324e-05 0.000379640468190549 -0.000213347973348907 -0.000125146190219903 -0.000356887693206033 -0.000233824726735911
"185" -0.00029949409678713 0.000568100240276825 -6.21032418140728e-05 0.000312410064261299 0.000145693665920155 -0.00018926769522674 -0.00014988206754231 2.57750764436541e-05 9.33946927436299e-05 -0.00108744709416667 6.49648780044666e-05 0.000370767446370807 -0.000214013539746297 -0.00011740853378052 -0.000362545370233083 -0.000235412168670468
"186" -0.00029155480837266 0.000556256654393851 -6.58171998164153e-05 0.000299533878244604 0.00013767656298025 -0.000190985767556554 -0.000157479586193509 2.27145533726642e-05 7.41460035062975e-05 -0.00107781794968489 6.05326188549879e-05 0.00036020197771272 -0.000215701216382151 -0.000109834024539245 -0.000368416392580664 -0.000237744327188874
"187" -0.000285010194381691 0.000542388806209528 -7.08417407544072e-05 0.000285738462642942 0.000128059997150205 -0.000192646756615952 -0.000166149402669615 1.89003761962107e-05 5.33044436310431e-05 -0.00106638946627047 5.4703688844255e-05 0.000348011386288754 -0.000218369865988361 -0.000102423842318604 -0.00037449215016233 -0.000240808616650017
"188" -0.000279885827899429 0.000526602765737087 -7.71322046156294e-05 0.000271122122850238 0.000116936864294636 -0.000194256466355705 -0.000175802578891474 1.43651715034234e-05 3.11772504169974e-05 -0.0010531674644498 4.76039901520401e-05 0.000334283332886056 -0.000221978218155317 -9.51778907009924e-05 -0.000380760496984268 -0.000244584940065944
"189" -0.000276191764071905 0.000509014489217423 -8.46366174649327e-05 0.000255782396808528 0.000104403768421752 -0.000195815515704068 -0.000186345788477115 9.15155106387568e-06 8.09886304859414e-06 -0.00103815573660265 3.93641504916732e-05 0.000319107731770694 -0.000226470187403142 -8.80953619233552e-05 -0.000387210127032834 -0.000249044891889682
"190" -0.000273934736834637 0.000489751893767142 -9.32965468774883e-05 0.000239826127670704 9.05673213957896e-05 -0.000197329018003831 -0.00019768215614729 3.30958405571888e-06 -1.55808973361466e-05 -0.00102136839132019 3.01264559215967e-05 0.000302591725053434 -0.000231779751919529 -8.11610648844271e-05 -0.000393820519397485 -0.000254150227071932
"191" -0.000273101718353072 0.000468950019606029 -0.000103050406342272 0.000223357589182968 7.55499756173562e-05 -0.000198793821194651 -0.000209699187689993 -3.10996417716333e-06 -3.95007243350287e-05 -0.00100281913426433 2.00448693100522e-05 0.000284850744009953 -0.000237826543705803 -7.43737209103485e-05 -0.000400568744400069 -0.000259854145628269
"192" -0.00027367179640752 0.000446755104468051 -0.000113819045496104 0.000206486624154435 5.94717981636274e-05 -0.000200209881646316 -0.000222284664022129 -1.00468496352411e-05 -6.32783242383881e-05 -0.000982532445288239 9.26999594687425e-06 0.000266004303047518 -0.000244528237907026 -6.77180249420363e-05 -0.000407428578479126 -0.000266103806938664
"193" -0.000275609823209919 0.00042331982658844 -0.000125525435758715 0.000189317540612816 4.24687958541909e-05 -0.000201571103905208 -0.000235315943758099 -1.74388060639421e-05 -8.65281515417137e-05 -0.000960528099533158 -2.03679799143782e-06 0.000246182777593717 -0.000251785808119564 -6.11776152892265e-05 -0.000414364444245158 -0.000272835010737039
"194" -0.000278868465556217 0.000398798711933096 -0.000138085882939633 0.000171958568675826 2.46806781698994e-05 -0.000202869645662629 -0.000248670562181367 -2.5220796179196e-05 -0.000108853885024817 -0.000936836840756615 -1.37161339380264e-05 0.000225521509050157 -0.000259500605001976 -5.47337737129259e-05 -0.000421340508204753 -0.000279978249317867
"195" -0.000283394685259513 0.000373356731765076 -0.000151407767782005 0.000154512807848347 6.24445087667793e-06 -0.000204101075535851 -0.000262226855551581 -3.33225217699327e-05 -0.000129847053713042 -0.000911492609618909 -2.56135179988355e-05 0.000204159116769059 -0.000267565337687702 -4.83641346196719e-05 -0.000428312230399512 -0.000287459343115065
"196" -0.000289112072357578 0.000347158905538607 -0.000165394140264927 0.000137081592035706 -1.26848639752987e-05 -0.000205252235098415 -0.00027585052956032 -4.16747398642501e-05 -0.000149124787271496 -0.000884533933592473 -3.75667273440779e-05 0.000182236932294254 -0.000275862335527199 -4.20467723448343e-05 -0.000435232205888817 -0.000295194162805546
"197" -0.000295952936382646 0.000320374080258475 -0.000179956204514556 0.000119768413151694 -3.19693313728727e-05 -0.000206312494906443 -0.000289419791020606 -5.02023588285859e-05 -0.000166291621111944 -0.000856004362167943 -4.94273336162949e-05 0.000159900631191753 -0.000284277632884502 -3.57550280256843e-05 -0.000442054680016959 -0.000303101223796471
"198" -0.00030381821605392 0.000293172473344505 -0.000194988299404724 0.000102666458827532 -5.14527834504296e-05 -0.000207270875806405 -0.000302811463361349 -5.88360200374287e-05 -0.000180958937834918 -0.000825949215997427 -6.10516096226273e-05 0.000137291455020183 -0.000292692479155612 -2.94481528899837e-05 -0.000448721800900582 -0.000311087408999475
"199" -0.000312607728928988 0.000265721187026803 -0.00021038625234171 8.58663409069717e-05 -7.09862849839706e-05 -0.000208110309288336 -0.00031589447664799 -6.75022647381268e-05 -0.000192760252262374 -0.00079442104647073 -7.23014984684482e-05 0.000114557704206469 -0.000300984090204606 -2.31025910554711e-05 -0.000455172619413362 -0.000319059249476127
"200" -0.000322216275936889 0.000238190558490215 -0.000226047103566365 6.94517239888655e-05 -9.04209274079968e-05 -0.000208819515953084 -0.000328548285612917 -7.61261680511488e-05 -0.000201355111724338 -0.000761477336952103 -8.30438017341677e-05 9.18414453335358e-05 -0.000309029872587497 -1.6679778797527e-05 -0.000461349767816873 -0.000326927127521383
"201" -0.000332525189831642 0.000210743301250595 -0.000241871275868048 5.35066973668171e-05 -0.000109613290330197 -0.000209382954038936 -0.000340660435413104 -8.46405044826204e-05 -0.000206423089735766 -0.000727182835862828 -9.31622000618281e-05 6.92791213602339e-05 -0.000316713242491617 -1.01387200624834e-05 -0.000467189470611308 -0.000334593893349998
"202" -0.000343409524113201 0.000183541945632557 -0.000257748511684972 3.81006264763833e-05 -0.000128420829420303 -0.000209786021320001 -0.000352112665794314 -9.29732162269455e-05 -0.000207677164586502 -0.000691602368614666 -0.000102546290716459 4.70111557642516e-05 -0.000323909834774586 -3.44259980241265e-06 -0.000472627835378356 -0.000341959319419946
"203" -0.000354743116127072 0.000156739211317433 -0.000273576494895933 2.33006465382323e-05 -0.000146706372449061 -0.000210014986549471 -0.000362806532485995 -0.000101059069851761 -0.000204868673567516 -0.000654812121878992 -0.000111094032946045 2.51632210447236e-05 -0.000330506379835296 3.4413387978611e-06 -0.000477599818446771 -0.000348933262667579
"204" -0.000366387631426945 0.000130488416276185 -0.00028925484469005 9.17185217347121e-06 -0.0001643351262121 -0.000210053087866275 -0.000372636185115847 -0.0001088362052803 -0.000197785502459637 -0.000616892929327004 -0.000118716933999048 3.86671106149681e-06 -0.000336390606917546 1.05618924376618e-05 -0.000482040131626352 -0.000355418623712669
"205" -0.000378205388023757 0.000104927626230778 -0.000304678268416232 -4.24184573571446e-06 -0.000181181545483674 -0.000209891006250862 -0.000381511891320557 -0.000116244165913445 -0.000186268138178602 -0.000577925668583214 -0.000125338227568579 -1.67602218020468e-05 -0.000341453942697394 1.79518425329637e-05 -0.000485886952170231 -0.000361326231754464
"206" -0.000390056744108612 8.0196951737224e-05 -0.000319751433299237 -1.68881207638581e-05 -0.000197131700928525 -0.000209513312291802 -0.000389352142320599 -0.000123227225361774 -0.000170213113956995 -0.000538004798189858 -0.000130894261066186 -3.66066306613821e-05 -0.000345594952774837 2.56502230313953e-05 -0.000489077074545666 -0.000366567126379411
"207" -0.000401798064471953 5.64151820301536e-05 -0.000334375442998761 -2.87351048344845e-05 -0.000212070646337212 -0.000208912094538378 -0.000396078468975654 -0.000129733268524116 -0.000149574765277403 -0.000497231527307807 -0.000135321042221485 -5.55633590257822e-05 -0.000348723375157251 3.36816108173636e-05 -0.000491550802924905 -0.000371058391005696
"208" -0.00041328294748161 3.37010228486148e-05 -0.000348458620493068 -3.97498672450652e-05 -0.000225897809768949 -0.000208078271508398 -0.000401627057417719 -0.000135713678629803 -0.000124351503709184 -0.000455705885620428 -0.000138582276055894 -7.35362665982005e-05 -0.000350747358760545 4.20863738180891e-05 -0.000493253334908163 -0.000374716294073168
"209" -0.000424377274644996 1.21589961641046e-05 -0.000361911825737237 -4.99118873338278e-05 -0.000238522567701173 -0.000207002326849346 -0.000405942993729835 -0.000141131075217306 -9.46186401578207e-05 -0.000413543041630614 -0.000140642075952142 -9.04371005354031e-05 -0.000351593976015731 5.0884165054602e-05 -0.000494131654381343 -0.000377474148447444
"210" -0.000434943088478704 -8.12201860776004e-06 -0.000374653629339628 -5.92116645537011e-05 -0.000249860707324227 -0.000205682761980014 -0.000408979702857161 -0.00014593948798007 -6.05112327557056e-05 -0.000370855533544426 -0.000141473373117407 -0.000106184931122177 -0.000351188881386369 6.00871017204378e-05 -0.000494144352965847 -0.000379260690500813
"211" -0.000444844146316622 -2.70562545235266e-05 -0.000386600947680469 -6.76390660824514e-05 -0.000259838088785803 -0.000204114221391566 -0.000410701529588665 -0.000150112120248368 -2.22299588721748e-05 -0.000327770821870993 -0.000141064070402169 -0.000120707146254991 -0.000349477830344974 6.97116979396328e-05 -0.00049325018079 -0.000380016672986729
"212" -0.000453955395159905 -4.45777180644601e-05 -0.000397681379826162 -7.51964475704691e-05 -0.000268397635092786 -0.000202298155338913 -0.000411087270752533 -0.000153619028105054 1.99754105327025e-05 -0.000284414292955982 -0.000139409130633784 -0.000133944386429559 -0.000346408829839349 7.97587206604687e-05 -0.000491412226419684 -0.00037968765926839
"213" -0.000462155755737658 -6.06300728777359e-05 -0.000407824542801809 -8.18975720240835e-05 -0.000275488165660825 -0.000200235940046028 -0.000410116607758001 -0.000156437768209908 6.57821644511135e-05 -0.000240921387525534 -0.000136514343970437 -0.000145840269645653 -0.000341947978409928 9.02181728956735e-05 -0.000488607856589486 -0.000378232249582774
"214" -0.000469325700699555 -7.51690307100846e-05 -0.00041696578874185 -8.77543896353384e-05 -0.000281067074626378 -0.000197931739150889 -0.000407792824526216 -0.000158551105405615 0.000114808252445106 -0.000197427341357862 -0.000132387821498853 -0.000156357346713509 -0.000336064911053688 0.000101074872774203 -0.000484816549644484 -0.000375611662644559
"215" -0.000475373065709359 -8.81658540770682e-05 -0.000425051171623496 -9.27905598449457e-05 -0.000285106332348615 -0.0001953933065501 -0.000404117983762453 -0.000159945909525619 0.000166644568940205 -0.000154077125330426 -0.000127053099330274 -0.000165456021549871 -0.000328745845833432 0.000112308863767295 -0.0004800299974229 -0.000371799641173025
"216" -0.000480192872223974 -9.96001998286273e-05 -0.000432019731680983 -9.70379298177742e-05 -0.000287589132596195 -0.000192627923000718 -0.000399111049381514 -0.000160614458834667 0.000220809466494219 -0.000111005882765697 -0.00012053362343774 -0.000173116454338983 -0.000319985777528068 0.000123870426129412 -0.000474244387985049 -0.00036677794003194
"217" -0.000483699220906091 -0.000109469481506088 -0.000437835149248511 -0.000100530924168312 -0.000288508017784532 -0.00018964884689027 -0.00039279569954221 -0.000160554209084129 0.000276803846765439 -6.83639529248234e-05 -0.000112865309547001 -0.000179319207544637 -0.000309792447361909 0.000135718750165009 -0.000467465324084013 -0.000360533499543499
"218" -0.000485825003641278 -0.0001177801556683 -0.000442451762641896 -0.000103308233264313 -0.00028786367888904 -0.000186468040887953 -0.000385210831391997 -0.000159766035798481 0.000334080914875717 -2.62923672801422e-05 -0.000104087473896486 -0.000184060742183341 -0.000298184113822854 0.000147793677826718 -0.000459707445492859 -0.000353069241256738
"219" -0.000486504411691175 -0.000124551043910995 -0.000445839399168523 -0.000105416337428516 -0.000285675540186683 -0.000183099831958981 -0.000376399381474337 -0.000158257929210641 0.000392101485664053 1.50648644062458e-05 -9.42462593111498e-05 -0.000187345471892146 -0.000285195748078405 0.000160033753815474 -0.000450991576422723 -0.000344393836267195
"220" -0.000485684461283925 -0.000129811982406047 -0.000447965864442154 -0.000106903053835782 -0.000281961917071803 -0.000179561195615633 -0.000366416856639285 -0.000156041425028858 0.000450279490394991 5.55711619447773e-05 -8.338714529619e-05 -0.000189178074461079 -0.000270867806844473 0.000172353636752646 -0.000441353213127233 -0.000334524929252635
"221" -0.000483329739463794 -0.000133608397083626 -0.000448815474603358 -0.000107824426372019 -0.000276759996633382 -0.00017586950223563 -0.000355320756462232 -0.000153129127137686 0.000508056342554134 9.50916325498394e-05 -7.15715288673166e-05 -0.000189581914734274 -0.000255247843310194 0.000184675124186077 -0.000430824215371345 -0.000323489745134014
"222" -0.000479405818817032 -0.000135986126237924 -0.000448367481066096 -0.000108230140241351 -0.000270104495711805 -0.000172043186231713 -0.000343177654476637 -0.000149540839443428 0.000564867576278665 0.000133501601552683 -5.88539652674535e-05 -0.000188584345768675 -0.000238402159317861 0.000196907303587433 -0.000419455634555694 -0.000311320727161916
"223" -0.0004739054488855 -0.000137005532489576 -0.000446615195840363 -0.000108181174244496 -0.000262051370068753 -0.000168102791272029 -0.000330062837552092 -0.000145302444133196 0.000620155664435001 0.00017067284370581 -4.53022619191291e-05 -0.000186215872099282 -0.000220406011545943 0.000208953172987616 -0.000407296605872058 -0.000298066256218533
"224" -0.000466818722612973 -0.000136738226870988 -0.000443555628496856 -0.000107734961109134 -0.000252653549294477 -0.000164066933450651 -0.000316055973796832 -0.000140438957447172 0.000673399435378594 0.00020650275623786 -3.0976346553146e-05 -0.000182522197827214 -0.000201336213188513 0.000220713338249659 -0.000394408120057521 -0.000283774244191978
"225" -0.000458155847629433 -0.000135261069083749 -0.000439186168344357 -0.000106950414027658 -0.000241978718048838 -0.000159953628931386 -0.000301236195830639 -0.000134979508664115 0.000724103949471334 0.000240886273466899 -1.59497624381345e-05 -0.000177547978715406 -0.000181283762499081 0.000232088871948078 -0.000380855966022461 -0.000268505998222902
"226" -0.000447931476335025 -0.000132652923870468 -0.000433518230817646 -0.000105887956832193 -0.000230098556658712 -0.000155784953871638 -0.000285693220710277 -0.000128959759707934 0.000771801602286054 0.000273733023877963 -2.94158443081913e-07 -0.000171349211722034 -0.000160342162856261 0.000242973914989811 -0.000366705662233481 -0.000252324951616289
"227" -0.000436172073005634 -0.000129004601618709 -0.000426562946704857 -0.000104607968341478 -0.000217082156930805 -0.000151577468269837 -0.000269511888794131 -0.000122416563083119 0.000816079356604099 0.000304966669257953 1.59203765421816e-05 -0.000163987262642943 -0.000138622697095256 0.000253276346922284 -0.000352034033379472 -0.000235304708058711
"228" -0.000422922840147821 -0.0001244109605194 -0.000418335564956475 -0.000103170643475932 -0.000203017757958625 -0.000147348463768515 -0.000252790188815168 -0.000115385514942786 0.000856556858779393 0.000334525394956316 3.26154049902956e-05 -0.000155524146202899 -0.000116227347465916 0.000262889510347519 -0.000336913902622002 -0.000217522400276839
"229" -0.000408220986275747 -0.000118964374439687 -0.000408861470375822 -0.000101634068649971 -0.000187986593351 -0.000143113138928997 -0.000235617011153762 -0.000107908322027274 0.000892910328353296 0.000362350515347733 4.97184577780705e-05 -0.000146032919428458 -9.32783098162556e-05 0.000271728609377423 -0.00032143257892816 -0.000199059827717191
"230" -0.000392127232640213 -0.000112766177965411 -0.000398163819141935 -0.000100051975652702 -0.000172078479731559 -0.000138889643479189 -0.000218080785286102 -0.000100027659056193 0.000924860025566224 0.000388411235881107 6.71510723176381e-05 -0.000135586363974241 -6.98849718482222e-05 0.000279703738189495 -0.000305667343642451 -0.000180002521945468
"231" -0.000374707854640289 -0.000105919018131887 -0.000386279792556848 -9.84816551329464e-05 -0.000155383953841533 -0.000134687248483557 -0.00020027781769011 -9.17910698555654e-05 0.000952177918993728 0.000412676606338603 8.48321525495419e-05 -0.000124260506578306 -4.61769391928762e-05 0.000286738401332655 -0.000289704151697432 -0.000160443788710995
"232" -0.000356031520800254 -9.85206082399531e-05 -0.000373242860202898 -9.69738810033106e-05 -0.000137994398899727 -0.00013051640964948 -0.000182299945988095 -8.32365539986602e-05 0.000974687888436972 0.000435139630153641 0.000102691079425254 -0.00011214049229268 -2.22733752199133e-05 0.000292754979758576 -0.000273625151551135 -0.000140473224249377
"233" -0.000336172486778564 -9.06772609997257e-05 -0.000359091207356305 -9.55800889542385e-05 -0.000120003108160376 -0.000126386962919771 -0.000164232705284547 -7.44139081092635e-05 0.000992262096339868 0.000455798997964069 0.000120647954236943 -9.93036302303651e-05 1.70020361206163e-06 0.00029769261844935 -0.000257516665611128 -0.000120187279714121
"234" -0.000315217122031749 -8.24841618672416e-05 -0.000343874062918413 -9.43465230650294e-05 -0.000101506772155786 -0.000122300947172467 -0.000146162399054012 -6.53648635359998e-05 0.00100481807595499 0.000474669077825336 0.000138631006902397 -8.58407578609764e-05 2.56177697035989e-05 0.000301497717452707 -0.000241457579824184 -9.96814126470793e-05
"235" -0.000293251281479577 -7.40429244692938e-05 -0.000327632691503333 -9.33193056760267e-05 -8.25970695495007e-05 -0.000118262770895955 -0.000128169915479755 -5.61385991141162e-05 0.00101232821488157 0.000491774515099788 0.000156568407251059 -7.18365681642736e-05 4.93613117937154e-05 0.000304125947754805 -0.000225535055171249 -7.90532384950084e-05
"236" -0.000270367237316373 -6.54487050420768e-05 -0.000310422319872168 -9.25396957972969e-05 -6.33668497011814e-05 -0.000114272384980432 -0.000110337293595841 -4.67767221319208e-05 0.00101479773161526 0.000507154152175997 0.000174385903529422 -5.73767309043389e-05 7.28074781278371e-05 0.000305543801055835 -0.000209825928922087 -5.83973508812614e-05
"237" -0.000246662933333742 -5.67971828767425e-05 -0.000292296333562832 -9.20460553885751e-05 -4.39119660627233e-05 -0.000110324809865707 -9.2737763784099e-05 -3.73227934600907e-05 0.00101227577887436 0.000520849389194605 0.000192015253263158 -4.25521983351481e-05 9.58324121923867e-05 0.000305723848837769 -0.0001944048717887 -3.78128050441564e-05
"238" -0.000222233134567349 -4.81717355513332e-05 -0.000273315758901821 -9.18747188749842e-05 -2.43180819713324e-05 -0.000106416540430752 -7.54374183491817e-05 -2.781806708292e-05 0.00100485256547538 0.000532916838849385 0.000209395553401759 -2.7447617742975e-05 0.000118327310424717 0.000304652450066784 -0.000179349721610333 -1.73908809487364e-05
"239" -0.000197179136805448 -3.96575378357401e-05 -0.000253535399544203 -9.20582685209652e-05 -4.6721805428747e-06 -0.000102539340921607 -5.85110508013265e-05 -1.83050826463939e-05 0.000992654848500471 0.000543417718599954 0.000226458378002142 -1.21493001535932e-05 0.00014018062129172 0.000302329339890694 -0.000164729798959432 2.77406562190954e-06
"240" -0.000171602367811127 -3.13337624905457e-05 -0.00023302533263687 -9.26274561141951e-05 1.49385965872845e-05 -9.86797883146996e-05 -4.20077251784873e-05 -8.82182199262983e-06 0.00097583478451458 0.00055242405069828 0.000243153585823844 3.25584110449202e-06 0.000161284700372155 0.000298752340000598 -0.000150607004115691 2.25954330938469e-05
"241" -0.000145606631153104 -2.32737106710322e-05 -0.000211844689136638 -9.36077349351931e-05 3.44364685497514e-05 -9.48263287158159e-05 -2.59887114580518e-05 5.97301752741352e-07 0.00095458270613642 0.000560007193718916 0.000259418582092317 1.86857054986005e-05 0.000181543873133427 0.000293945905141081 -0.0001370490094701 4.19848926900522e-05
"242" -0.000119289961493958 -1.55434933825845e-05 -0.000190065674576383 -9.50232451953433e-05 5.37417933980828e-05 -9.09623032406711e-05 -1.04979981620429e-05 9.91774295908831e-06 0.000929105489430834 0.000566246205648298 0.000275208455316025 3.40591467806919e-05 0.000200866108906812 0.000287923744683417 -0.000124107118533454 6.0863771533723e-05
"243" -9.27616314825486e-05 -8.20323323354548e-06 -0.000167757935125585 -9.68940512412126e-05 7.27797339006222e-05 -8.70717444861145e-05 4.41959243507905e-06 1.91052289538096e-05 0.00089964732015604 0.000571224663005254 0.000290475348315592 4.92932002172694e-05 0.000219160968606218 0.000280725500749969 -0.000111834647405831 7.91504183635604e-05
"244" -6.61057958656062e-05 -1.30907251449787e-06 -0.000144988719393493 -9.92406924906832e-05 9.14859741459547e-05 -8.31368222195636e-05 1.87253514414609e-05 2.81358074786708e-05 0.000866471573895876 0.0005750306345594 0.000305173662277512 6.43183943243862e-05 0.000236358464233223 0.000272388774987922 -0.00010027769136349 9.67781881817893e-05
"245" -3.94348024472191e-05 5.09429290518537e-06 -0.000121832241163657 -0.000102073700988675 0.000109796487877699 -7.91370174263029e-05 3.23873832471349e-05 3.69807868652072e-05 0.000829859988391626 0.000577745349022783 0.000319270542790028 7.90553426258531e-05 0.00025238925825037 0.00026296232743855 -8.94750662479726e-05 0.000113674230243768
"246" -1.28428950460724e-05 1.09677222184993e-05 -9.83651744429851e-05 -0.000105408272241446 0.000127646699025338 -7.5051660909262e-05 4.53783943233518e-05 4.56153740796828e-05 0.000790109685201601 0.000579461275669413 0.000332728404087297 9.34417543655728e-05 0.000267187770058644 0.000252502918451103 -7.94647855133142e-05 0.000129779938699949
"247" 1.3583399224205e-05 1.62766349437462e-05 -7.46544832300754e-05 -0.000109250275780393 0.00014498528679963 -7.08627537628318e-05 5.76817124618234e-05 5.40161142016911e-05 0.000747547460161492 0.000580262787368358 0.000345520578565283 0.000107407955273527 0.000280704588184359 0.000241074456196695 -7.02721611089882e-05 0.000145039829653381
"248" 3.9757429832782e-05 2.09980362449326e-05 -5.07780839336901e-05 -0.000113607344107855 0.000161763723689856 -6.65502491041926e-05 6.92771685748404e-05 6.21692535784966e-05 0.000702505573799896 0.000580242527585448 0.000357623038870831 0.000120895344706137 0.000292900821034406 0.00022874371548414 -6.19217539854537e-05 0.000159404548134314
"249" 6.5593771610653e-05 2.51149729828278e-05 -2.68073017762078e-05 -0.000118481387274383 0.000177936435237468 -6.20964561554706e-05 8.01559063950145e-05 7.00528636349567e-05 0.000655333670342219 0.000579484736157338 0.000369015301300621 0.000133844899235533 0.000303743284522563 0.000215592251773833 -5.44304625382669e-05 0.000172829642667309
"250" 9.10073928153726e-05 2.86161198884483e-05 -2.81618941831746e-06 -0.000123870512756743 0.000193466221877814 -5.74842838156575e-05 9.03112299511427e-05 7.76536221013414e-05 0.000606394965136041 0.000578074517572173 0.000379679148790663 0.000146209017977092 0.000313207085793648 0.000201697977520056 -4.78077242320819e-05 0.000185281063896332
"251" 0.000115927303310234 3.14958589708703e-05 2.11234179791884e-05 -0.000129771442896269 0.000208313997554469 -5.27015072109488e-05 9.97402102741929e-05 8.49603763624172e-05 0.000556052187101573 0.000576094377215571 0.000389603686003564 0.000157936563781305 0.00032127648438609 0.000187149911713208 -4.2060390456771e-05 0.000196728734220013
"252" 0.000140284000963712 3.37593306551988e-05 4.4942432167804e-05 -0.000136179452057032 0.000222455449538148 -4.77333750873674e-05 0.000108445556247061 9.19593059739961e-05 0.000504700603741376 0.000573627661923909 0.000398778120783696 0.00016898616114532 0.000327951200716072 0.00017203930773369 -3.71838974326655e-05 0.000207149558459664
"253" 0.000164012527818825 3.54188532234559e-05 6.85651723947926e-05 -0.000143081063140721 0.000235865441523441 -4.25731795430654e-05 0.000116430550315634 9.86413021040269e-05 0.000452715188381931 0.000570747705312031 0.000407193946878836 0.00017931879998672 0.000333231666179868 0.00015646941147597 -3.31736450851786e-05 0.000216523361068748
"254" 0.000187052640487705 3.64868780874628e-05 9.19312362439719e-05 -0.000150465317862591 0.000248524353340731 -3.72168501920064e-05 0.000123709668621405 0.000104998723998811 0.000400480653392326 0.000567535790785392 0.000414856113564128 0.000188905201887102 0.000337131980394518 0.000140526645358862 -3.00172615537816e-05 0.000224846112377433
"255" 0.000209358297720849 3.69902380342665e-05 0.000114973846773552 -0.00015831294127605 0.000260419486256095 -3.16611871912418e-05 0.000130290087478786 0.000111021180849657 0.000348390052169905 0.000564057195262996 0.000421758736776279 0.000197715796474532 0.000339674407617054 0.000124324255152216 -2.76927727412822e-05 0.000232109246543322
"256" 0.000230874628864529 3.69547659315802e-05 0.000137629234427226 -0.000166605375378562 0.000271539646662686 -2.59130381168216e-05 0.000136188025383835 0.000116701773040958 0.000296832372832955 0.000560383012833841 0.000427910256302109 0.000205729793386815 0.000340889085726251 0.000107967776772209 -2.61829036385942e-05 0.000238319894799208
"257" 0.000251554990973712 3.64148506781874e-05 0.000159831203813985 -0.000175317363966291 0.000281877950071639 -1.9980796914497e-05 0.000141418259162264 0.000122034845662118 0.000246178649908965 0.000556573499118239 0.000433311499319014 0.000212927789296584 0.000340809911056455 9.15588985413993e-05 -2.54574677480429e-05 0.000243478940063854
"258" 0.000271368968833075 3.54077318326363e-05 0.000181529862761355 -0.000184423745563573 0.00029143360216792 -1.3877436065061e-05 0.000146000242409931 0.000127012812827855 0.000196800559678057 0.000552688243571882 0.000437973922594773 0.000219296425883898 0.000339482765017768 7.52051457755175e-05 -2.5482072797805e-05 0.000247606147140558
"259" 0.000290286536976188 3.39779610649659e-05 0.00020267095237107 -0.000193895806455846 0.000300213248293078 -7.62169548100343e-06 0.000149956438085374 0.000131631937397857 0.000149050567269609 0.000548782736736725 0.00044190544882704 0.000224835080967637 0.000336959379206682 5.90155256511274e-05 -2.6221559696483e-05 0.000250718690075603
"260" 0.000308276239705469 3.21690263091432e-05 0.000223198931832693 -0.00020369740206402 0.00030821913763918 -1.24138319056939e-06 0.000153306024150551 0.000135882576732272 0.000103263355654828 0.000544904204639995 0.000445120835666597 0.000229534120097465 0.000333293585160509 4.30896984449633e-05 -2.76352533567462e-05 0.000252841773308953
"261" 0.000325319968870306 3.00330958122991e-05 0.000243069770772173 -0.00021379669592308 0.000315463336178131 5.23568800507757e-06 0.000156071642416305 0.000139761699539018 5.97466904336944e-05 0.000541092490313375 0.000447632986729901 0.000233402469420002 0.000328552072226922 2.75301502566797e-05 -2.96774682879058e-05 0.000253999942297687
"262" 0.000341397761916876 2.76226299061938e-05 0.000262238683119811 -0.000224153109692766 0.000321960986509133 1.17713866644625e-05 0.000158274147474211 0.000143257753340034 1.87888824831992e-05 0.000537387304844791 0.000449456066773626 0.000236445051931621 0.000322795477600678 1.24352092980472e-05 -3.23049506708051e-05 0.000254227262772847
"263" 0.000356489764572228 2.4988606124902e-05 0.000280658501016575 -0.00023472476629561 0.000327724900830095 1.83238827771782e-05 0.000159936986248356 0.000146369008358829 -1.93620168237006e-05 0.000533821236813748 0.000450612454312413 0.000238677810241382 0.000316098629274822 -2.10698436719281e-06 -3.54649110530358e-05 0.000253558385898296
"264" 0.000370589623857305 2.21862037312951e-05 0.000298303121766233 -0.000245470593279763 0.000332773068427047 2.4848899908681e-05 0.000161080443374511 0.000149083607637895 -5.44880167856839e-05 0.000530415554312308 0.000451116482545981 0.000240115370598917 0.000308532962803166 -1.60137501479764e-05 -3.91085908052379e-05 0.000252032317072249
"265" 0.000383697011569375 1.92721798818373e-05 0.000315131057042824 -0.000256343947277683 0.000337131347688445 3.12938161707337e-05 0.000161730982539279 0.000151398489127745 -8.64148922321829e-05 0.000527185433684708 0.000450992224740229 0.000240784060152237 0.000300174599150993 -2.92066895099829e-05 -4.31803918567558e-05 0.000249687348283826
"266" 0.000395794147592497 1.63006307093137e-05 0.000331117781928822 -0.000267298914328826 0.000340823860962417 3.76012608693914e-05 0.000161910053520149 0.000153302502889143 -0.000115002136724878 0.000524146039133745 0.000450260085829912 0.000240709311549819 0.00029110196717982 -4.16191568935351e-05 -4.76278468595492e-05 0.000246571377236032
"267" 0.000406884489026995 1.33243339724986e-05 0.000346235907693714 -0.000278285296532077 0.000343868740532475 4.37146024185993e-05 0.000161634077923662 0.000154792614550546 -0.000140161936905473 0.000521300209372437 0.000448943360200807 0.000239921874397068 0.000281398256880446 -5.31959452279955e-05 -5.23971107197609e-05 0.000242727214526368
"268" 0.000416967545386341 1.03994815292654e-05 0.000360461143873073 -0.000289253582406025 0.000346300935041208 4.95663054089339e-05 0.000160926006563816 0.000155857509100809 -0.000161846043806943 0.000518641820890618 0.000447067799886348 0.000238459607839746 0.000271137805010616 -6.38865357131228e-05 -5.74310655894241e-05 0.000238202237002641
"269" 0.00042603682946976 7.57340618775129e-06 0.000373773706494144 -0.000300153570508871 0.000348142749692384 5.50895272865428e-05 0.000159802086397143 0.000156491551332319 -0.000180064531526075 0.000516163506907679 0.000444660164121571 0.000236361191015813 0.000260399250662434 -7.36665569855953e-05 -6.26801278684404e-05 0.000233039614412419
"270" 0.000434093051551834 4.89477325805495e-06 0.000386162157549947 -0.000310930723384108 0.000349425194196061 6.02202971634715e-05 0.000158283062633622 0.000156683598070405 -0.000194853208716592 0.000513845041119844 0.000441745618573996 0.000233669643743502 0.000249268326719754 -8.25061804202565e-05 -6.80878123856778e-05 0.000227289887649586
"271" 0.000441137603980317 2.40584018010859e-06 0.000397612603357436 -0.000321537035003858 0.000350179151294708 6.4884560762948e-05 0.000156381791810041 0.000156434306280497 -0.000206306069898921 0.000511667477524686 0.000438357524478398 0.000230435915449122 0.000237817891729635 -9.03975742024409e-05 -7.36064985159773e-05 0.000221000550037891
"272" 0.000447174029345041 1.46890176437988e-07 0.000408115559367496 -0.000331918508577296 0.000350435522763589 6.90105091474443e-05 0.000154117701051729 0.000155730547687514 -0.000214561626864305 0.00050960189064326 0.000434521312375998 0.000226705780493742 0.000226127785717342 -9.73477400196537e-05 -7.91832041016155e-05 0.000214216168023018
"273" 0.000452199104604799 -1.84447993724118e-06 0.000417665803478424 -0.000342022974243615 0.000350221933708242 7.25307528415189e-05 0.000151504200106806 0.000154570165597056 -0.000219792341084228 0.000507614526775462 0.000430274974364125 0.000222534813549948 0.000214268987992795 -0.000103375122240161 -8.47726002123408e-05 0.000206986766634302
"274" 0.000456222350046283 -3.53750373822159e-06 0.000426260952853525 -0.000351801970413007 0.000349573959206092 7.53749386928649e-05 0.000148552802460809 0.000152951341957098 -0.000222199592715263 0.000505667412042541 0.000425647032147257 0.000217977782169393 0.000202315843139531 -0.000108498421031319 -9.03269988479819e-05 0.000199359896966949
"275" 0.000459229433939303 -4.9094181572894e-06 0.000433901118141986 -0.000361203310998495 0.000348517691711305 7.74745983941352e-05 0.000145274875113968 0.000150867074561082 -0.000222021181771336 0.000503723542794675 0.000420676169020742 0.000213092263486577 0.000190335643833898 -0.000112766134628746 -9.580938466989e-05 0.000191379648688421
"276" 0.000461230873869182 -5.93896693893616e-06 0.000440592725176332 -0.000370180074178575 0.000347085024394776 7.87667366061409e-05 0.000141685240734161 0.000148314879780501 -0.00021952268534409 0.000501740243283067 0.000415391483131129 0.000207942805628964 0.000178399158273958 -0.000116225530631888 -0.000101176854864004 0.000183091380710943
"277" 0.000462225817838268 -6.61009712811173e-06 0.000446338076004787 -0.000378683084675914 0.000345308705237546 7.91904197203072e-05 0.000137792423328524 0.000145294149008876 -0.000214969716759784 0.000499672815929154 0.000409831747774347 0.000202580637757403 0.000166565800099936 -0.000118930035724854 -0.000106395570997689 0.000174538765989317
"278" 0.000462212965624581 -6.91452339147066e-06 0.000451145613023266 -0.00038666723717221 0.000343212929713586 7.86891228104213e-05 0.000133605589987538 0.000141806929143306 -0.000208659987731567 0.000497479028536154 0.000404035676780077 0.000197076168740875 0.000154892434806728 -0.000120950880450079 -0.000111433639935715 0.000165764383417677
"279" 0.000461193333549223 -6.85120727372675e-06 0.00045503165388495 -0.000394090548396984 0.0003408324782948 7.72153377571419e-05 0.000129136709885956 0.000137854465594718 -0.000200879404988878 0.000495120744560515 0.000398040655770287 0.000191486913643095 0.000143444565276346 -0.000122359118655748 -0.0001162624767468 0.000156811822283593
"280" 0.000459169252213821 -6.41943709532266e-06 0.000458006297736082 -0.000400912657988015 0.000338189594753576 7.47229362604607e-05 0.00012439572985031 0.000133440049301542 -0.00019191818507679 0.000492555848765471 0.000391877603591613 0.000185876111930062 0.000132265620305328 -0.00012322920511683 -0.000120855045317828 0.000147722656188688
"281" 0.00045614260201728 -5.63057378109083e-06 0.0004600836534784 -0.000407092611227341 0.000335315020881843 7.11770612172871e-05 0.000119388061023814 0.000128569540669146 -0.000182058810100042 0.000489752734107514 0.000385592374389466 0.000180305623408662 0.000121409287079653 -0.000123644276880818 -0.00012519184704988 0.000138537401099887
"282" 0.000452116448200773 -4.49888036013919e-06 0.000461286962557993 -0.000412597933179446 0.000332231005599318 6.65517261877104e-05 0.000114128283044142 0.000123249526304223 -0.000171571370809377 0.000486678146680448 0.0003792190702036 0.000174832410525168 0.000110919762649055 -0.000123683974107739 -0.000129254620376549 0.000129292967613226
"283" 0.000447091468494581 -3.04471808401853e-06 0.000461634587311527 -0.000417393810812981 0.000328963272929636 6.08285762806933e-05 0.000108624086611284 0.000117492399936013 -0.000160699803518885 0.000483305842094849 0.000372793191829099 0.000169517073638397 0.000100838184740919 -0.000123423953512184 -0.000133026962006718 0.000120030392353651
"284" 0.000441083096285334 -1.2925273356971e-06 0.000461147819957963 -0.000421454641881322 0.000325536927487262 5.39981138305669e-05 0.000102885826737621 0.000111307659741788 -0.000149676252084777 0.00047962231787788 0.000366355035416692 0.000164415702778807 9.12023489304577e-05 -0.000122946135343229 -0.000136497615964932 0.000110785881904993
"285" 0.000434089705818708 7.28658497287095e-07 0.000459851665475157 -0.00042475436457924 0.000321972110474085 4.60630739764578e-05 9.69269542467331e-05 0.000104709184480535 -0.000138697144968679 0.000475612210228509 0.000359933606897872 0.00015958570649026 8.20466135038857e-05 -0.000122319917775435 -0.00013966311204359 0.000101595564936177
"286" 0.000426126862282414 2.98157688893351e-06 0.000457768861460085 -0.000427273432117271 0.000318289465240402 3.70392698803279e-05 9.07582310752389e-05 9.77151893660786e-05 -0.000127938700127126 0.000471273014444275 0.000353567676056089 0.000155071483172937 7.34049168489262e-05 -0.00012161063676838 -0.000142514803282879 9.24961994268486e-05
"287" 0.000417202347757796 5.43282930785982e-06 0.000454927548006373 -0.000428992224527419 0.000314511550009941 2.69445769742212e-05 8.43942993677032e-05 9.03411669117082e-05 -0.00011754500253126 0.000466603038303248 0.00034728584985232 0.000150926316724079 6.52972964710877e-05 -0.000120882175363909 -0.000145054625950076 8.35209763968234e-05
"288" 0.000407343425746004 8.03385861744596e-06 0.000451360053846149 -0.000429901287285372 0.000310655578315143 1.58228764177128e-05 7.78498589907955e-05 8.26152363240036e-05 -0.000107629193422042 0.000461618988941189 0.000341123112427654 0.000147194575804733 5.77477141055992e-05 -0.00012018435586385 -0.0001472778729408 7.47037047729088e-05
"289" 0.000396551945157362 1.0739966320509e-05 0.000447088441632271 -0.000429992969181483 0.000306736177246515 3.71752456618855e-06 7.11372776394953e-05 7.45583181865395e-05 -9.82745089459582e-05 0.00045633143768321 0.000335102694699938 0.000143913276388619 5.0779815833129e-05 -0.000119559892049895 -0.000149194836898862 6.6079007779836e-05
"290" 0.000384858677470053 1.35019764858884e-05 0.000442142722914122 -0.000429264081287752 0.000302770741729362 -9.3081608609534e-06 6.42730905547511e-05 6.61978589779543e-05 -8.95431250763974e-05 0.000450769466878895 0.00032925117385821 0.000141121679855054 4.44044851629219e-05 -0.000119045614242584 -0.000150807352336665 5.76754678665414e-05
"291" 0.000372282354205502 1.62674640140803e-05 0.000436558263806206 -0.000427718450714368 0.00029877201782093 -2.31806540474959e-05 5.72802816767859e-05 5.75675275609086e-05 -8.14714689014552e-05 0.00044496723651792 0.000323597503756091 0.000138847873354536 3.86370899472961e-05 -0.000118669782166926 -0.000152127266347638 4.95271135993615e-05
"292" 0.000358858215814131 1.89838827301059e-05 0.000430362952365929 -0.000425364138195468 0.000294754136581125 -3.78187653687726e-05 5.01692101135482e-05 4.86984645351658e-05 -7.40675195619603e-05 0.000438958256661541 0.000318156740931989 0.000137124491605703 3.34794784175189e-05 -0.000118440606293882 -0.00015316272868675 4.1661386053691e-05
"293" 0.00034460250019239 2.15933913502541e-05 0.000423587115479082 -0.00042221505343326 0.000290728547995594 -5.31213278743086e-05 4.29658843302931e-05 3.96309103001041e-05 -6.73113114612299e-05 0.000432790313474003 0.000312945845460715 0.000135965680450486 2.89440491747555e-05 -0.000118364664542782 -0.000153926838432401 3.41073919630595e-05
"294" 0.000329560688907681 2.40395131072902e-05 0.000416266809032508 -0.000418290949825731 0.000286704900600731 -6.8979632051118e-05 3.56862145359084e-05 3.04015389856484e-05 -6.11806646240755e-05 0.00042651179107398 0.000307984096262812 0.000135391382840906 2.50252459174851e-05 -0.000118439279355996 -0.000154431826296495 2.68913840527295e-05
"295" 0.000313760866039059 2.6264315261803e-05 0.000408427641320853 -0.000413617921000423 0.000282688986028302 -8.52774331337029e-05 2.83585578946336e-05 2.10567264320849e-05 -5.56295790615739e-05 0.000420179988131092 0.00030328103582339 0.000135414213395459 2.17263124755669e-05 -0.000118651547504704 -0.000154693624091515 2.00395972580523e-05
"296" 0.000297244384542065 2.82078174672998e-05 0.000400105500730732 -0.000408226246558047 0.000278695815465976 -0.000101880194711311 2.09973603333129e-05 1.16436023580333e-05 -5.06066522838485e-05 0.000413850401154272 0.000298845609023922 0.000136037568374896 1.90372108377628e-05 -0.000118982768132055 -0.000154727406016314 1.35748711405723e-05
"297" 0.000280050068999695 2.9813046510037e-05 0.000391333704836365 -0.000402154362728617 0.00027472380481604 -0.000118649394705767 1.36303659957789e-05 2.21089054984126e-06 -4.60402627273404e-05 0.000407586036461796 0.000294684786874106 0.000137260459501051 1.69502323496059e-05 -0.000119403635329011 -0.000154551084592354 7.52434715296518e-06
"298" 0.000262223243150505 3.10220815186837e-05 0.000382144794725572 -0.000395443095184165 0.000270783944092934 -0.000135436550463001 6.27790596798355e-06 -7.18949417543529e-06 -4.1862563797078e-05 0.00040144848606407 0.000290801545585425 0.000139078730651287 1.54527222810963e-05 -0.000119881678710428 -0.000154181584223505 1.90294158045374e-06
"299" 0.000243811307313676 3.17791566366123e-05 0.000372568570926634 -0.000388141711674212 0.000266874268490474 -0.000152082566301415 -1.03210777477119e-06 -1.64986375254594e-05 -3.79960216463926e-05 0.000395506534237997 0.000287194392786141 0.000141478591181739 1.45336498224934e-05 -0.000120373433240007 -0.000153637500358532 -3.26634195989435e-06
"300" 0.000224859869694784 3.2028684175007e-05 0.000362638362223602 -0.000380305577149248 0.000263000564883709 -0.0001684256897871 -8.27970440403311e-06 -2.56629905704303e-05 -3.43645740674928e-05 0.000389825525728301 0.000283861660113342 0.000144447740552912 1.41681043232466e-05 -0.00012083672430577 -0.000152934295625635 -7.96716335605886e-06
"301" 0.000205417581268715 3.17176793953346e-05 0.000352390817532937 -0.000371991726933404 0.000259166208351176 -0.000184292891918564 -1.54376347207301e-05 -3.46227282457363e-05 -3.08901895168286e-05 0.00038447043853726 0.000280798413211793 0.000147957782311479 1.43395381739632e-05 -0.000121220551265583 -0.000152094264721797 -1.21848124252463e-05
"302" 0.000185541368407125 3.07966499121732e-05 0.000341856140989417 -0.000363263691176892 0.000255364372776325 -0.000199515412032388 -2.24861512508375e-05 -4.33127735347063e-05 -2.74900841567814e-05 0.000379510653023514 0.000277994405612291 0.000151984806123583 1.50226756081684e-05 -0.000121473604465094 -0.000151128843318182 -1.59053505514314e-05
"303" 0.000165290805117676 2.92185520031911e-05 0.000331073943765588 -0.000354191080808415 0.000251603738068219 -0.000213913143311604 -2.9399447809555e-05 -5.16731389120978e-05 -2.40918497800931e-05 0.000375009014483692 0.000275442923490876 0.000156495301997807 1.61947634904511e-05 -0.000121544484837931 -0.000150058421925771 -1.91174418030942e-05
"304" 0.000144718464762909 2.69415931667621e-05 0.000320074988888217 -0.0003448433413932 0.000247876846653976 -0.00022730874926474 -3.61485139879279e-05 -5.96373811313667e-05 -2.06197177714438e-05 0.000371032009377795 0.000273132260310879 0.000161451502116267 1.78231937759644e-05 -0.000121374641783613 -0.000148898216416504 -2.18154757939179e-05
"305" 0.000123877057838156 2.39227040987458e-05 0.000308893427046884 -0.000335293414937646 0.000244183089442162 -0.000239524942714497 -4.27207937703313e-05 -6.71451028723945e-05 -1.69957792429698e-05 0.000367636282962091 0.000271046903759775 0.000166810146147677 1.98838894816757e-05 -0.000120906543499102 -0.000147664666647531 -2.39897956279656e-05
"306" 0.000102836532655844 2.01341977183134e-05 0.000297569449669029 -0.000325620114633972 0.000240522658798147 -0.000250389152872968 -4.90896567521801e-05 -7.41326160315745e-05 -1.31574920690861e-05 0.000364888911808892 0.000269173916659966 0.000172527148476074 2.23417675115459e-05 -0.000120092675989987 -0.000146369111499951 -2.56348264684425e-05
"307" 8.16510572734456e-05 1.55445920587157e-05 0.000286140914188713 -0.000315900040289 0.0002368885081035 -0.000259726406020767 -5.52305432356853e-05 -8.05341463786807e-05 -9.02877896797693e-06 0.000362837695203114 0.000267497144726277 0.000178549957700179 2.51668493907527e-05 -0.000118868743128415 -0.000145022409737703 -2.6749429511257e-05
"308" 6.03931996077566e-05 1.01314724297312e-05 0.000274643206387448 -0.00030621161848252 0.000233283134082285 -0.000267370240869737 -6.11252114922128e-05 -8.62922849845391e-05 -4.54325204518741e-06 0.000361540065051401 0.000266001669388628 0.00018482420526661 2.83236284151566e-05 -0.000117181571381695 -0.00014363868901029 -2.7336553774109e-05
"309" 3.91180391260711e-05 3.88053065623543e-06 0.000263116161335192 -0.000296630140486756 0.000229697467103841 -0.00027316548905933 -6.67565269517062e-05 -9.13485592884794e-05 3.66001152714772e-07 0.000361042795448615 0.000264672029436313 0.000191294072329503 3.17721773683297e-05 -0.00011498061909119 -0.00014222563671261 -2.73964175090091e-05
"310" 1.78970990482641e-05 -3.2175683496187e-06 0.000251599142953585 -0.000287233477941806 0.000226132901829945 -0.000276958055014718 -7.21014162634931e-05 -9.5643748133035e-05 5.76429397662232e-06 0.00036139224996975 0.000263490302832607 0.000197901653245578 3.54889241923264e-05 -0.000112213837744611 -0.000140789998076882 -2.69359999513363e-05
"311" -3.20002015045567e-06 -1.11618419173395e-05 0.000240139590941162 -0.000278095734650775 0.000222588267339245 -0.000278612027446551 -7.71463969243375e-05 -9.91287928798297e-05 1.17215622307541e-05 0.000362629372519893 0.000262444381483797 0.000204586724209299 3.94260144958623e-05 -0.000108826754963835 -0.000139335197733013 -2.59630179712786e-05
"312" -2.41102099916637e-05 -1.99439120260073e-05 0.000228771292993034 -0.000269283387287558 0.000219058823775312 -0.000278001952215802 -8.18717224070795e-05 -0.000101756896771433 1.8302936695017e-05 0.000364787080364976 0.00026151883383959 0.000211284032749904 4.35534383006506e-05 -0.000104777394017255 -0.00013786514374845 -2.44872309779169e-05
"313" -4.47613674854763e-05 -2.9551241378247e-05 0.000217547006658662 -0.000260867558684791 0.000215543274090814 -0.000275012334155428 -8.62662275635965e-05 -0.000103485949472942 2.55769851351595e-05 0.00036789596718796 0.000260701383027285 0.000217935066704152 4.78330314797381e-05 -0.000100017816030226 -0.000136379480312298 -2.25188605961729e-05
"314" -6.50875264913448e-05 -3.995751119021e-05 0.000206504132335684 -0.000252903551358514 0.000212043086284162 -0.000269547305732982 -9.03129897243556e-05 -0.00010427485845259 3.36120651479056e-05 0.000371985404764867 0.00025998150426818 0.00022447515393301 5.22303502645598e-05 -9.45096942663251e-05 -0.000134872350981678 -2.00749391789519e-05
"315" -8.50121684171229e-05 -5.11271664334379e-05 0.000195693757052008 -0.000245447908761757 0.000208557663214298 -0.000261529074923374 -9.40006351315895e-05 -0.000104095909026662 4.24707985824528e-05 0.000377072443523798 0.000259351603496662 0.000230843233164097 5.67120452479824e-05 -8.82165599713229e-05 -0.000133340143512411 -1.71712050125299e-05
"316" -0.000104464390532753 -6.30179514542614e-05 0.000185160387351277 -0.00023854633274658 0.000205090977040461 -0.000250893078128414 -9.73186595743093e-05 -0.000102922481441487 5.22240560450325e-05 0.000383167416095146 0.000258805102203284 0.000236979424868019 6.12442808919909e-05 -8.11025050708653e-05 -0.000131775287779114 -1.38291961582746e-05
"317" -0.000123378199658177 -7.55793438258506e-05 0.000174952330140499 -0.000232236726007967 0.000201645184385333 -0.000237601371653421 -0.000100253340795657 -0.00010074282734005 6.29293836019357e-05 0.000390286638876085 0.000258342273339087 0.000242824931008197 6.57936767233113e-05 -7.314483464325e-05 -0.000130164245490239 -1.00681092358778e-05
"318" -0.000141677735855277 -8.87446063335859e-05 0.000165117318289738 -0.00022654933251317 0.000198223968868017 -0.000221628735698081 -0.000102798928291313 -9.75395494829894e-05 7.46605183644857e-05 0.000398427181799778 0.000257957497937384 0.000248322941728449 7.03282367212943e-05 -6.43120951868749e-05 -0.00012849609010505 -5.90973156951583e-06
"319" -0.000159290789198294 -0.0001024468304122 0.000155700916067493 -0.000221505045200944 0.000194836113710954 -0.000202976132141173 -0.000104948501782732 -9.33173752292596e-05 8.74664859925589e-05 0.000407584801508015 0.000257657919624225 0.000253421160683181 7.48188842104337e-05 -5.459584202134e-05 -0.000126750611947268 -1.3807112383348e-06
"320" -0.000176152244994559 -0.000116606352949875 0.000146753168832817 -0.000217112852120986 0.00019148337667173 -0.000181664147115308 -0.00010669415724374 -8.80802875435506e-05 0.000101392081301155 0.000417748631533628 0.000257448541835446 0.000258076469960369 7.92416124851682e-05 -4.39807157486269e-05 -0.00012491092233233 3.49260305934933e-06
"321" -0.000192192363254292 -0.000131133430451063 0.00013831956173065 -0.000213375115623537 0.000188178797074333 -0.000157738013829513 -0.000108031198969238 -8.18442116948942e-05 0.000116495616789433 0.000428905322398662 0.000257338155987476 0.000262237456155123 8.3569466979261e-05 -3.24621947460003e-05 -0.000122952530068422 8.68426014983971e-06
"322" -0.000207341030008441 -0.000145934936040337 0.000130449913043053 -0.000210281966724623 0.000184931083575186 -0.000131259811051963 -0.000108954104798857 -7.46293742392213e-05 0.000132795570023201 0.000441026116114837 0.00025734328510561 0.000265870669880521 8.77769659050148e-05 -2.00489352639089e-05 -0.000120854263368841 1.4162838419618e-05
"323" -0.000221537871928795 -0.000160910906639698 0.000123183882076418 -0.000207813524126974 0.000181747842956299 -0.000102316671874402 -0.000109465028386279 -6.64703288527747e-05 0.000150326539571316 0.000454084785481191 0.000257474846788117 0.000268938347714126 9.18498926624453e-05 -6.74869363099457e-06 -0.000118586403221478 1.98993966871616e-05
"324" -0.000234708654766915 -0.000175949333848046 0.000116573810234026 -0.000205942129414759 0.000178643987058073 -7.1019005396294e-05 -0.000109561043430431 -5.74075839493537e-05 0.000169089070255908 0.000468043091400292 0.000257754583782103 0.000271414503042091 9.57669602777918e-05 7.41594850727714e-06 -0.000116118090452758 2.58651783001546e-05
"325" -0.000246809189672231 -0.000190943154727963 0.000110650188280292 -0.000204626082650121 0.000175631611390274 -3.74957442214087e-05 -0.000109238058185869 -4.74840323341964e-05 0.000189080700607274 0.000482855659964977 0.000258206008991473 0.000273276309810434 9.9514109554859e-05 2.24103031319025e-05 -0.000113423094390854 3.20289383895621e-05
"326" -0.000257768363156439 -0.000205771646003024 0.000105458607207231 -0.000203817045626423 0.000172722421244356 -1.89375548311066e-06 -0.00010850396773981 -3.67584344031401e-05 0.000210280347156912 0.000498475545804223 0.000258853168532402 0.000274509451363541 0.000103081526201497 3.81970375283503e-05 -0.000110467845915908 3.83578034069821e-05
"327" -0.000267549174281956 -0.000220318674865474 0.000101033576258077 -0.000203460696781124 0.000169929454726975 3.56149199400455e-05 -0.000107360762320935 -2.52928209028464e-05 0.000232650323086157 0.000514843624009114 0.000259721797609973 0.000275104243076579 0.000106459839770934 5.47283035070159e-05 -0.000107215143692294 4.48207513520242e-05
"328" -0.000276087423105847 -0.000234465932028225 9.74133160201244e-05 -0.000203490364031045 0.000167267216883675 7.48465051603215e-05 -0.000105803705202298 -1.31536778171589e-05 0.000256130150316595 0.000531903197699532 0.000260841085016593 0.00027505513740116 0.000109644647195534 7.1943284110478e-05 -0.000103630813559985 5.13898829625082e-05
"329" -0.000283349304722993 -0.00024809052098524 9.46168050841705e-05 -0.00020383578195907 0.000164746514880019 0.00011559666203535 -0.000103848452356929 -4.20383804324911e-07 0.000280649577385099 0.000549584167769454 0.00026223935704234 0.000274366092725362 0.00011263029576006 8.97730013204279e-05 -9.96822256977958e-05 5.80334393169419e-05
"330" -0.000289296317265487 -0.000261081455731039 9.26717968055313e-05 -0.000204420830343089 0.000162379529427587 0.000157651497911365 -0.000101495504834106 1.28309397418531e-05 0.000306107100779378 0.000567815626642367 0.000263952716343129 0.000273046752356968 0.000115425262109034 0.000108135218494394 -9.53305529594664e-05 6.47229845510375e-05
"331" -0.000293890880599659 -0.000273317177362761 9.1603643104596e-05 -0.000205161229460165 0.000160180266232409 0.000200775564230386 -9.87522264402851e-05 2.65112587149234e-05 0.000332391667508031 0.000586524781610037 0.000266005909668586 0.000271113135480314 0.000118028359628528 0.000126940381734262 -9.05390839645628e-05 7.1433951845669e-05
"332" -0.000297110337164613 -0.000284691667985917 9.14197161809404e-05 -0.000205972538292377 0.000158160376725621 0.000244729706839586 -9.562504124539e-05 4.05312463852158e-05 0.000359380328254104 0.000605629369369953 0.000268437167814312 0.000268584557707181 0.000120447845966166 0.00014609639455984 -8.52759921261521e-05 7.81378166365242e-05
"333" -0.000298933171362381 -0.000295099652350515 9.2132478159633e-05 -0.000206767623913508 0.00015632815377913 0.000289261914798633 -9.21221179495853e-05 5.47983038496697e-05 0.000386919432275771 0.000625047276769476 0.000271270233647814 0.00026548854914551 0.000122699056814794 0.000165493159338104 -7.95010608551243e-05 8.48139319759184e-05
"334" -0.000299346828971486 -0.000304443568225577 9.37460280410134e-05 -0.000207456743213192 0.000154689521353758 0.000334115480728031 -8.82556204219231e-05 6.92143170662547e-05 0.000414844027169489 0.000644691974306471 0.000274537611782227 0.000261858113342535 0.000124796717580307 0.000185019540229863 -7.31888301670669e-05 9.14401342280803e-05
"335" -0.000298343610659315 -0.000312634123039478 9.62592089505511e-05 -0.000207950888576311 0.000153256958842978 0.000379026819071626 -8.40309781739093e-05 8.36849824159082e-05 0.000442982560505265 0.00066448215028172 0.000278265197516882 0.000257727078105874 0.000126753305305407 0.000204555091995694 -6.63006577494983e-05 9.79991136957992e-05
"336" -0.000295921342895451 -0.000319592629172768 9.96590217360181e-05 -0.000208163008757755 0.000152030470682806 0.000423729921741532 -7.94569008254922e-05 9.8107475412595e-05 0.000471153536122579 0.000684322939964768 0.000282480517380921 0.000253138193615867 0.000128596758861474 0.000223979332069081 -5.88094535519464e-05 0.000104475743682519
"337" -0.00029208895174557 -0.000325245359104753 0.000103937317463754 -0.000208005966322431 0.000151021131771686 0.000467957711190926 -7.45440995724412e-05 0.000112382334984712 0.000499161256747785 0.000704133806906955 0.000287205607393471 0.000248133339774636 0.000130343838024764 0.000243165143777225 -5.06893649443092e-05 0.000110857293539928
"338" -0.00028685789745338 -0.000329538597814218 0.000109065442108545 -0.000207401623964205 0.000150224107573665 0.000511447027128807 -6.9303383645409e-05 0.00012641558801571 0.000526806179560799 0.000723819946191367 0.000292454144232308 0.000242761031140765 0.000132025076629034 0.000261977536463358 -4.19146158644514e-05 0.00011713688850331
"339" -0.000280249486408048 -0.000332423723409529 0.000115016059463357 -0.000206269697008121 0.000149644733947089 0.000553932973927191 -6.3744640281519e-05 0.00014010675824835 0.000553891288540537 0.000743297039533823 0.000298244168375534 0.000237071191753667 0.000133668307941365 0.000280289511562332 -3.24674609612073e-05 0.000123304122060607
"340" -0.000272284982471459 -0.000333866169050219 0.000121760144409532 -0.000204542822425066 0.000149279363697953 0.000595163970394116 -5.78714733491005e-05 0.000153362046802373 0.000580211378926928 0.00076247791670883 0.000304587854425969 0.000231115813827763 0.000135301243142383 0.000297968038914649 -2.23308363563638e-05 0.00012936034460736
"341" -0.000263001353898135 -0.000333843614355771 0.000129253222467413 -0.000202154402076363 0.000149130201419768 0.000634891121093776 -5.16944828485899e-05 0.000166087393011036 0.000605583340825812 0.000781283330430195 0.000311488071099669 0.000224946571913306 0.000136963352571067 0.000314893945364174 -1.14879280790691e-05 0.000135305114519399
"342" -0.000252432008754418 -0.000332346651524424 0.000137450195697162 -0.000199050595773719 0.000149190414444056 0.000672877224583343 -4.52215882785345e-05 0.000178199286866261 0.000629815052416215 0.000799628016944193 0.000318945407284464 0.000218620195303317 0.000138684664281143 0.000330934952190363 6.30928328520311e-08 0.000141145534189348
