"V1" "V2" "V4" "V5" "V7" "V8" "V10" "V11" "V13" "V14" "V15" "V17" "V18" "V20" "V21" "V23"
"1" 2.69267156433879e-05 -2.34761261913336e-06 4.84778237557873e-06 3.35634703388247e-06 4.72511959128682e-06 5.13380734135258e-06 4.27667062509555e-06 2.08335067234107e-06 -5.81187511323511e-05 -4.12185864838852e-05 -3.72731733772102e-05 -1.39203179285122e-05 -1.10143129508071e-05 -4.29130728906034e-05 -2.46223032081636e-05 -7.31263005292662e-06
"2" 1.37093830841276e-05 -1.5882670346399e-05 1.7980549846579e-06 -5.34246191128833e-06 1.19573280938981e-05 2.62222803728858e-07 -3.72492640372778e-06 -6.23688262893892e-06 -7.19158895747657e-05 -5.20148019046157e-05 -4.75470041289201e-05 -1.65491571946112e-05 -9.88432811326379e-06 -4.46429126254065e-05 -2.57052140020568e-05 8.72319029738258e-06
"3" 5.28854857722656e-07 -2.92922239738793e-05 -1.30781697449246e-06 -1.40174061665147e-05 1.90249317267974e-05 -4.64011967902447e-06 -1.17329225664491e-05 -1.45456126851871e-05 -8.56645677113699e-05 -6.27540430820884e-05 -5.77807725826315e-05 -1.92799099123515e-05 -8.95684338491763e-06 -4.6454144855782e-05 -2.69386664473076e-05 2.43336030914377e-05
"4" -1.25696533905276e-05 -4.24812840238973e-05 -4.4556671775263e-06 -2.26384150439953e-05 2.58929534272116e-05 -9.55339283237541e-06 -1.97134770512781e-05 -2.28027875347424e-05 -9.93341554527278e-05 -7.33774014587894e-05 -6.79426701248552e-05 -2.21040437189318e-05 -8.26684942719776e-06 -4.83223138885531e-05 -2.83175688225397e-05 3.94340841126774e-05
"5" -2.55380762793745e-05 -5.53579108112149e-05 -7.62315604773916e-06 -3.11767458294908e-05 3.25398765365851e-05 -1.44554715220374e-05 -2.76272325489379e-05 -3.09727188247453e-05 -0.00011289050758775 -8.3834376317691e-05 -7.79987352847927e-05 -2.50106496008169e-05 -7.84104340271296e-06 -5.02214522540058e-05 -2.98248265716792e-05 5.39468840514307e-05
"6" -3.83273678463505e-05 -6.7827554002259e-05 -1.07927799251299e-05 -3.96065832966425e-05 3.89356114498878e-05 -1.93272765324013e-05 -3.54412288834007e-05 -3.90099067978515e-05 -0.000126298795731207 -9.40672635019304e-05 -8.79166057010653e-05 -2.79899153085204e-05 -7.70612815795167e-06 -5.212221585588e-05 -3.14388506264042e-05 6.78011916047618e-05
"7" -5.08944660682067e-05 -7.98105419940967e-05 -1.39470756565378e-05 -4.7901584464423e-05 4.5056870161577e-05 -2.41475036183158e-05 -4.3123028597892e-05 -4.68881923299013e-05 -0.000139522982681783 -0.000104024807767637 -9.76623841638622e-05 -3.10274175215669e-05 -7.88083784291225e-06 -5.39928822366766e-05 -3.31417532335866e-05 8.09352990733385e-05
"8" -6.31895111866763e-05 -9.12212684101527e-05 -1.70642539072416e-05 -5.60339658327677e-05 5.08840464382056e-05 -2.88960308675314e-05 -5.06351590045757e-05 -5.45648985412241e-05 -0.000152528098381963 -0.000113656876164394 -0.000107202499897806 -3.41090265283216e-05 -8.38253811632087e-06 -5.58060636079015e-05 -3.49095377237797e-05 9.3295759145978e-05
"9" -7.51781535550776e-05 -0.000101991558160828 -2.01266488988181e-05 -6.39809278381866e-05 5.63961189184541e-05 -3.35535010689804e-05 -5.7947777632476e-05 -6.20068868074515e-05 -0.000165278179035944 -0.000122915982924952 -0.000116507389620607 -3.72196290901611e-05 -9.226183614997e-06 -5.75261449119902e-05 -3.67199613774472e-05 0.000104836429310511
"10" -8.68131041504149e-05 -0.000112047681911048 -2.31145848158062e-05 -7.17196751870004e-05 6.15826315639003e-05 -3.81027210700657e-05 -6.5025687656651e-05 -6.91863271321626e-05 -0.000177733446615183 -0.000131755760381035 -0.000125547336688848 -4.03433634593319e-05 -1.04175842840887e-05 -5.91214177288214e-05 -3.85505504619026e-05 0.000115522920393397
"11" -9.8060183184116e-05 -0.000121331197770702 -2.60175247797332e-05 -7.92317725494021e-05 6.64219578083684e-05 -4.25261517429118e-05 -7.18431100502674e-05 -7.60764593076616e-05 -0.000189856539768024 -0.000140136992906871 -0.000134288754447091 -4.34660516308231e-05 -1.19599697715571e-05 -6.05579501309729e-05 -4.03709443775993e-05 0.000125326270160084
"12" -0.000108886452052118 -0.00012979002546456 -2.88164947256398e-05 -8.64953645258993e-05 7.09044967205306e-05 -4.68055069769997e-05 -7.83706286235478e-05 -8.26458602320661e-05 -0.00020160760399003 -0.000148019441038685 -0.000142706610442848 -4.65679704203861e-05 -1.38560917817208e-05 -6.18019879480619e-05 -4.21554593005178e-05 0.00013422910362231
"13" -0.000119256590627781 -0.000137379442133318 -3.149783690422e-05 -9.34965684292576e-05 7.50190308865958e-05 -5.09304214932574e-05 -8.45808533511342e-05 -8.88788350758699e-05 -0.000212942224171749 -0.000155365950699676 -0.000150769417669147 -4.9635251724353e-05 -1.60975120595309e-05 -6.28174463097337e-05 -4.38773948372503e-05 0.000142222003793263
"14" -0.000129142779469657 -0.000144061593462655 -3.40517355297346e-05 -0.000100220563871059 7.87567699088235e-05 -5.48863951970597e-05 -9.04501063073205e-05 -9.47525501780125e-05 -0.000223821484632327 -0.00016214641885923 -0.000158452484072844 -5.26491654738312e-05 -1.86798063755345e-05 -6.35731335177696e-05 -4.55134099825128e-05 0.000149300839615091
"15" -0.000138522041085551 -0.000149808976210976 -3.64699812490502e-05 -0.000106656870938819 8.21063158344037e-05 -5.86640009106287e-05 -9.59604041231242e-05 -0.000100252029474232 -0.0002342017379989 -0.000168335555837222 -0.000165730542904587 -5.55950402276143e-05 -2.15887575851921e-05 -6.40307512323237e-05 -4.70295368541655e-05 0.000155474134903096
"16" -0.000147374075441088 -0.000154606246404563 -3.87420278717833e-05 -0.000112794034498829 8.5062108927334e-05 -6.22533238818072e-05 -0.00010109073585382 -0.000105370647916855 -0.000244037575856518 -0.000173905723870536 -0.00017258057068482 -5.84571918093438e-05 -2.48074572174225e-05 -6.41601355616406e-05 -4.84078680511687e-05 0.00016075406423582
"17" -0.000155679145525695 -0.000158441250127188 -4.08683665594879e-05 -0.000118626368564962 8.76178289128094e-05 -6.56500234273455e-05 -0.000105827321670587 -0.000110094288917081 -0.000253283431074018 -0.000178836962142856 -0.000178976385932658 -6.12184579593019e-05 -2.83197847593954e-05 -6.39262696036478e-05 -4.96163076423022e-05 0.000165161908910936
"18" -0.000163428099130861 -0.000161316703393557 -4.28431334315567e-05 -0.000124149531068787 8.97703003541725e-05 -6.88517117724014e-05 -0.000110158541864749 -0.000114420559433887 -0.00026189893580322 -0.000183119153863411 -0.000184899687395794 -6.38682445915195e-05 -3.21010313448845e-05 -6.33027080555766e-05 -5.06340327774647e-05 0.00016872557409051
"19" -0.000170608607103766 -0.000163236520704867 -4.46731258425543e-05 -0.000129363448372645 9.15100953406807e-05 -7.18540932306333e-05 -0.000114076107854491 -0.000118352487177983 -0.000269833288971805 -0.000186736110920709 -0.000190329653494489 -6.63933770784977e-05 -3.61279753442642e-05 -6.22539614747304e-05 -5.1438560969313e-05 0.000171480382173509
"20" -0.000177216832470693 -0.000164223494452762 -4.63544218967686e-05 -0.000134266323123755 9.28391882723727e-05 -7.46605064593931e-05 -0.000117571916300059 -0.000121890738705326 -0.000277046347992648 -0.000189681933827375 -0.000195248903648819 -6.87822871779077e-05 -4.03699064944807e-05 -6.07555880286608e-05 -5.20066446054217e-05 0.000173465660203953
"21" -0.000183251366377232 -0.000164303922583937 -4.78992930558548e-05 -0.000138863017939184 9.37536756031698e-05 -7.72746266391185e-05 -0.000120641516227678 -0.000125046485150643 -0.000283488711904917 -0.000191953784333398 -0.000199639982687228 -7.10205098344875e-05 -4.47965999198289e-05 -5.87790147479393e-05 -5.23228191572545e-05 0.000174729386891497
"22" -0.000188715645424842 -0.000163511836874996 -4.93120221690998e-05 -0.000143159290030784 9.42483438544313e-05 -7.9701253804036e-05 -0.000123294770968429 -0.000127827530259968 -0.000289117699651127 -0.000193556943868442 -0.000203492008255549 -7.31044522340521e-05 -4.93780331568951e-05 -5.63032507595603e-05 -5.23678436717472e-05 0.000175319458568421
"23" -0.000193618102324605 -0.000161889734718993 -5.06085897786142e-05 -0.000147160394875198 9.43258508297444e-05 -8.19488364516156e-05 -0.000125528334687534 -0.000130249564909892 -0.00029389082162421 -0.000194489802617358 -0.000206788302683902 -7.50218019906663e-05 -5.40731766203742e-05 -5.33045601309297e-05 -5.21266131945071e-05 0.000175295747598582
"24" -0.000197971126404703 -0.000159490678395626 -5.17954617481392e-05 -0.00015087809407727 9.39811959393287e-05 -8.40257865049625e-05 -0.000127353269498821 -0.000132332733289641 -0.000297766299290341 -0.000194763955708821 -0.000209522929876177 -7.67677993974142e-05 -5.88496553460877e-05 -4.9765072520801e-05 -5.158258000867e-05 0.000174712468429719
"25" -0.00020178557848315 -0.000156369576670199 -5.28928323732643e-05 -0.000154324132665244 9.32211995129415e-05 -8.59465677354927e-05 -0.000128780314789621 -0.000134093779281645 -0.000300700931427496 -0.000194392242000549 -0.000211685398655578 -7.83382913511042e-05 -6.36668030249606e-05 -4.56688154380615e-05 -5.07316194757988e-05 0.000173634975739721
"26" -0.000205084857333566 -0.000152591448078247 -5.39172639391267e-05 -0.000157510409189854 9.20403552609693e-05 -8.77239084816747e-05 -0.000129822033502869 -0.000135562249507698 -0.000302661732143435 -0.000193392937026983 -0.000213271460836557 -7.97300073553931e-05 -6.8486588489174e-05 -4.10054825159082e-05 -4.95595276779536e-05 0.000172127570230344
"27" -0.000207887980630865 -0.000148226393746401 -5.48893515557882e-05 -0.000160451901092725 9.04430473648309e-05 -8.93744145820483e-05 -0.000130499920513185 -0.00013675841203064 -0.000303609199565741 -0.000191781959524305 -0.000214273726728825 -8.09364528422722e-05 -7.32674934374669e-05 -3.5761865178342e-05 -4.80610547550919e-05 0.000170257039565278
"28" -0.000210220424461322 -0.000143351536252259 -5.58226253022721e-05 -0.000163165846106761 8.84300751240507e-05 -9.09128757820749e-05 -0.000130828916441907 -0.000137713758997673 -0.000303513626995741 -0.0001895782739454 -0.000214693292282397 -8.19608105533438e-05 -7.79712853438789e-05 -2.9933324121582e-05 -4.62336591364351e-05 0.000168091102491282
"29" -0.000212114716609174 -0.000138041839480474 -5.67485750457787e-05 -0.000165666344279293 8.60075440801308e-05 -9.23603170546931e-05 -0.000130837056043752 -0.000138460856002202 -0.000302345371791248 -0.000186814240181792 -0.000214529298622073 -8.2801923413547e-05 -8.25537327862309e-05 -2.35202101067766e-05 -4.40748164960014e-05 0.000165697647391095
"30" -0.000213596101018591 -0.000132381456361867 -5.76815349175314e-05 -0.000167975694501141 8.31776178050699e-05 -9.37327977709972e-05 -0.000130547693716952 -0.000139026293771986 -0.000300079787366685 -0.000183510200209133 -0.000213784834421897 -8.34622632230021e-05 -8.69755553379857e-05 -1.6520212463134e-05 -4.1587727376203e-05 0.000163146775323193
"31" -0.00021470291993981 -0.000126458799617129 -5.86496443335666e-05 -0.000170105698469862 7.99438047478201e-05 -9.50534463782357e-05 -0.000129986121450895 -0.000139446308983148 -0.000296694283592522 -0.000179699101582238 -0.00021246389909299 -8.39421942441754e-05 -9.11963656697015e-05 -8.94179617360463e-06 -3.87709983295171e-05 0.000160506316467828
"32" -0.000215471986593031 -0.000120353427336031 -5.96706406082943e-05 -0.00017208266862361 7.63151312282284e-05 -9.63409242551262e-05 -0.000129188330358708 -0.000139752054278675 -0.000292174961862946 -0.000175408156072784 -0.000210574085751471 -8.42490280427299e-05 -9.51772301791144e-05 -7.93059536114236e-07 -3.56345623874393e-05 0.000157838789367667
"33" -0.000215936498988634 -0.000114157311331205 -6.0775559697714e-05 -0.000173917988040287 7.22956036658306e-05 -9.76177098658694e-05 -0.000128182574318941 -0.000139978016202726 -0.000286510330759 -0.000170672078697949 -0.000208124076491259 -8.43871539418752e-05 -9.88788782122067e-05 7.9120718722213e-06 -3.21834989118807e-05 0.000155211769924497
"34" -0.000216137122767085 -0.000107959521233814 -6.19773378034163e-05 -0.000175634003675082 6.7896178400538e-05 -9.89031221771672e-05 -0.000127002632489578 -0.000140160385760518 -0.000279691635620331 -0.00016552525912638 -0.000205126927392714 -8.43614739326417e-05 -0.000102267150700051 1.71551995208044e-05 -2.84340241204129e-05 0.000152684858365385
"35" -0.000216118362905048 -0.000101840639756154 -6.33075323532757e-05 -0.000177249423666655 6.31218363495455e-05 -0.00010021825847114 -0.000125684888645214 -0.000140327503544533 -0.000271723832880193 -0.000159998764198424 -0.000201595940698365 -8.41809359579315e-05 -0.000105306697235094 2.69146756747992e-05 -2.43934914046604e-05 0.00015031368453737
"36" -0.000215918118419685 -9.58883346172605e-05 -6.47804051478037e-05 -0.000178779032443891 5.79834987860123e-05 -0.000101582625786597 -0.000124264736883076 -0.000140518273154204 -0.000262607394392398 -0.000154130701379145 -0.000197544435685403 -8.38531247032581e-05 -0.000107965299180953 3.71632819930881e-05 -2.00776705910405e-05 0.000148150417807823
"37" -0.000215579797515239 -9.01829001782298e-05 -6.64217322691369e-05 -0.000180242279282918 5.24967471661416e-05 -0.000103018195324876 -0.000122778637342723 -0.000140757205287684 -0.000252355762912998 -0.000147954578424911 -0.000192995995426596 -8.33904908270813e-05 -0.000110215731743542 4.78711208067015e-05 -1.55061890700883e-05 0.000146242934656367
"38" -0.000215142836189799 -8.4801945940214e-05 -6.82467227556695e-05 -0.000181652147808524 4.66650694390668e-05 -0.000104542057405775 -0.000121260737112468 -0.000141075665982108 -0.000240986521029372 -0.000141502508441836 -0.000187964191804792 -8.28003999401407e-05 -0.000112031057257155 5.90040956293293e-05 -1.0699443324147e-05 0.000144634205817159
"39" -0.00021465243564787 -7.98165280681738e-05 -7.02711669644963e-05 -0.00018302327037298 4.05067469807221e-05 -0.000106170798469924 -0.00011975318803843 -0.00014150521665956 -0.000228526112919204 -0.00013481462138339 -0.000182475613480684 -8.20939799458897e-05 -0.00011339065881671 7.05201633778571e-05 -5.67924729984713e-06 0.000143357396038186
"40" -0.00021414959433718 -7.52962227215573e-05 -7.25097096482916e-05 -0.000184370804049107 3.40370073762831e-05 -0.000107922845723034 -0.000118291568360015 -0.000142066083869754 -0.000215002368908369 -0.000127921815058617 -0.000176550910685127 -8.1286719149831e-05 -0.000114274106445514 8.23801517535001e-05 -4.68242377166264e-07 0.000142441785139473
"41" -0.000213670939297758 -7.13021362529477e-05 -7.49761649491751e-05 -0.000185700854133807 2.72676769100029e-05 -0.000109809967973447 -0.000116911791118955 -0.000142783455920612 -0.000200454126650331 -0.000120854597531043 -0.00017021627262762 -8.03896292024633e-05 -0.000114669719319267 9.45338782759274e-05 4.90286464916275e-06 0.000141909198490075
"42" -0.000213256366018884 -6.78873221732568e-05 -7.76825786469595e-05 -0.000187028504396261 2.02154163004268e-05 -0.000111847177206225 -0.000115647256899274 -0.000143677593250037 -0.000184924692748987 -0.000113649589092319 -0.000163503071317417 -7.94147440579747e-05 -0.000114564045548899 0.00010693268057011 1.04082363802113e-05 0.000141774204051896
"43" -0.000212946447790481 -6.51009243268253e-05 -8.06350596455149e-05 -0.000188359179479584 1.28958700724757e-05 -0.000114044720229369 -0.000114535224702793 -0.000144767971496486 -0.000168465831159911 -0.000106336626718766 -0.000156435181635172 -7.83787478485272e-05 -0.000113954535956115 0.000119521432701507 1.60159996267715e-05 0.000142041116557162
"44" -0.000212771623538629 -6.29817931661223e-05 -8.38353110058704e-05 -0.000189696843039559 5.32975376533425e-06 -0.000116410752521518 -0.000113607762511407 -0.000146064896131012 -0.000151130950045038 -9.89410801443793e-05 -0.000149046841909035 -7.72957025644105e-05 -0.000112838379859458 0.000132242973945556 2.16968459408094e-05 0.000142711510623001
"45" -0.000212763970807008 -6.15611014115925e-05 -8.72897247500226e-05 -0.000191045164597773 -2.46666509920731e-06 -0.000118952599626759 -0.000112892609737066 -0.000147582592253801 -0.000132985017785148 -9.14948556523406e-05 -0.000141366071764135 -7.61816101990962e-05 -0.000111220895751198 0.000145040374622232 2.74110711564356e-05 0.000143773258955455
"46" -0.000212959333360459 -6.0865862715293e-05 -9.0995973535742e-05 -0.000192409493607624 -1.04734783421831e-05 -0.000121673006767324 -0.000112425165123649 -0.000149327180829049 -0.000114096165680135 -8.40192048690835e-05 -0.000133426175521602 -7.50506349325065e-05 -0.000109108711038246 0.000157849507618036 3.31304596716165e-05 0.000145214469967601
"47" -0.000213377658433317 -6.09061240796366e-05 -9.49490647333238e-05 -0.000193785341729203 -1.86698713293876e-05 -0.000124575923039623 -0.000112224051440101 -0.0001513022436061 -9.4535410154767e-05 -7.6543908720384e-05 -0.000125265610229088 -7.39202866439071e-05 -0.000106513789485272 0.000170606072680276 3.88161681808022e-05 0.000147006413800906
"48" -0.000214044165018915 -6.16873069196284e-05 -9.91423421409516e-05 -0.000195172712771898 -2.70322528880641e-05 -0.000127661387894243 -0.00011231872471295 -0.00015350974376377 -7.43863541643347e-05 -6.90851600537784e-05 -0.000116911901793908 -7.28071892165713e-05 -0.00010345682353906 0.000183245282576604 4.4428431739024e-05 0.000149118811617713
"49" -0.000214981582026811 -6.32120862914054e-05 -0.000103566355357694 -0.000196567106618554 -3.55436708141661e-05 -0.000130924420309563 -0.00011272470378236 -0.000155946502059378 -5.37290542459276e-05 -6.16645440159253e-05 -0.000108405407557265 -7.17267675036425e-05 -9.99572848924829e-05 0.00019570053647252 4.99320965439649e-05 0.000151512096997586
"50" -0.000216203989803526 -6.5466852717357e-05 -0.000108208985648362 -0.000197961390181247 -4.41777522884906e-05 -0.000134358569113 -0.000113463443748493 -0.000158604342015043 -3.2652131309206e-05 -5.43020499341867e-05 -9.9779410444163e-05 -7.06938692395826e-05 -9.60421830652962e-05 0.00020790705092816 5.52878618062833e-05 0.000154147335111624
"51" -0.00021772284030473 -6.84307187596121e-05 -0.000113053515088849 -0.000199347030171114 -5.29118651886768e-05 -0.000137959060278248 -0.000114545077378494 -0.00016147712032485 -1.12471297426679e-05 -4.70123344638035e-05 -9.10712214896916e-05 -6.97248238536052e-05 -9.17405333200876e-05 0.000219792191395931 6.04581948475662e-05 0.00015696596899628
"52" -0.000219549274735106 -7.20775963310323e-05 -0.000118084307873285 -0.000200715265171761 -6.17202865959942e-05 -0.000141712891122079 -0.000115983108952015 -0.000164549392982581 1.03911843631434e-05 -3.98053073838513e-05 -8.23162900535819e-05 -6.88378626733518e-05 -8.7086813212264e-05 0.000231295878558488 6.54026982752149e-05 0.00015991887587671
"53" -0.000221687559476545 -7.63722867472476e-05 -0.000123277840729825 -0.000202053893425867 -7.05833007139362e-05 -0.000145607641406354 -0.000117782574807836 -0.000167806860516068 3.21699112247785e-05 -3.26969841225908e-05 -7.35475818920183e-05 -6.80468418068513e-05 -8.21188386540632e-05 0.000242350117504708 7.00860531236655e-05 0.000162942715667553
"54" -0.000224138735889446 -8.1273076827228e-05 -0.000128612069832291 -0.00020335058119021 -7.94698422693781e-05 -0.000149627943257386 -0.000119946226839917 -0.000171229617688385 5.39862775820978e-05 -2.56953996154181e-05 -6.48024639506495e-05 -6.73654594073119e-05 -7.68758142749742e-05 0.000252891053414757 7.44725604906877e-05 0.000165976738376035
"55" -0.000226895176332949 -8.67289392677352e-05 -0.000134058358189667 -0.000204591764649129 -8.83591258660201e-05 -0.000153758076759917 -0.000122473013840353 -0.000174796878733585 7.57422176011601e-05 -1.88106002068049e-05 -5.61178006984324e-05 -6.68076666264313e-05 -7.14007136331667e-05 0.000262858685747489 7.85245842229527e-05 0.000168952540559692
"56" -0.00022995303734754 -9.26892383981209e-05 -0.000139593323994424 -0.000205761674319064 -9.72215771871156e-05 -0.0001579773978653 -0.000125359356611211 -0.00017848414846306 9.733947840156e-05 -1.20480047782063e-05 -4.75245241564598e-05 -6.6388863137023e-05 -6.5739148988322e-05 0.000272193008545412 8.22051595598572e-05 0.000171805003044472
"57" -0.000233300970651773 -9.90898420341814e-05 -0.000145185471157289 -0.000206846321808567 -0.00010602830387111 -0.000162265269995011 -0.000128594815257969 -0.000182262172387797 0.000118678404948145 -5.41184885353208e-06 -3.90562101871124e-05 -6.61209308851136e-05 -5.99350287691962e-05 0.000280841383606112 8.54856965897974e-05 0.00017446278722293
"58" -0.000236922358305559 -0.000105866495342762 -0.000150804701837336 -0.000207827412639238 -0.000114760360801733 -0.000166596266738656 -0.000132165591149873 -0.000186107371803446 0.000139660525726031 1.09367791869385e-06 -3.07473717057677e-05 -6.60146266879691e-05 -5.4040028624452e-05 0.000288750898228573 8.83317042839332e-05 0.000176859669777494
"59" -0.000240797704827627 -0.000112953605901628 -0.000156418651963642 -0.000208689799386287 -0.000123383269677581 -0.000170945979397602 -0.00013605864074725 -0.00018998909680925 0.000160189584392755 7.46450379037797e-06 -2.26292322669787e-05 -6.60792793032296e-05 -4.80980001846217e-05 0.000295874081582477 9.07184272937652e-05 0.000178925920109658
"60" -0.000244903769543961 -0.000120277215776934 -0.000161994250028491 -0.000209416940209139 -0.000131872339451981 -0.000175292087256437 -0.00014025196539168 -0.000193875207725154 0.000180172082647215 1.3702241614377e-05 -1.47254612932181e-05 -6.63257378226535e-05 -4.21611570578108e-05 0.000302168093682689 9.2618371853622e-05 0.000180599000690214
"61" -0.000249217107307139 -0.000127764033410688 -0.000167495935762953 -0.000209992705186113 -0.000140197673192868 -0.000179603430768585 -0.000144721472329654 -0.000197731972692241 0.000199517835198533 1.98006241383944e-05 -7.07069561500744e-06 -6.67628084697264e-05 -3.62757914342222e-05 0.00030759862146971 9.40090797716389e-05 0.00018181456543128
"62" -0.000253707253961047 -0.000135340735081187 -0.000172889959779173 -0.000210399619765487 -0.000148336547791008 -0.000183855094440179 -0.000149439818236243 -0.000201533606727082 0.000218140950440436 2.57622309591051e-05 3.12130390303279e-07 -6.73946909360937e-05 -3.04897772587458e-05 0.000312132520623733 9.48685863542916e-05 0.00018251537295469
"63" -0.00025834338052932 -0.000142929146126205 -0.000178142515718931 -0.000210623407663012 -0.000156254511798803 -0.00018801609519616 -0.000154377649032849 -0.000205240614613732 0.000235962183491212 3.15860272308755e-05 7.39871300727586e-06 -6.82267518036743e-05 -2.48490843677255e-05 0.000315742459575766 9.51821553351368e-05 0.000182647375367081
"64" -0.000263087900143556 -0.000150452975468139 -0.000183221274251212 -0.000210651747904045 -0.000163931729913178 -0.0001920581665768 -0.000159502998692379 -0.000208821740342462 0.000252902132547864 3.72706576686446e-05 1.41645210934778e-05 -6.92647505307239e-05 -1.93977019990705e-05 0.000318411411645979 9.49340997181227e-05 0.000182161502476569
"65" -0.000267910382725482 -0.00015784297864168 -0.000188089056197502 -0.00021046735512414 -0.000171336037047054 -0.000195951134748479 -0.000164779906530084 -0.000212248481378769 0.000268892763629488 4.28209514213018e-05 2.05896577879395e-05 -7.0510330233696e-05 -1.41762162783722e-05 0.000320123632785319 9.41159897140562e-05 0.000181017691675203
"66" -0.000272767656947586 -0.000165021223709641 -0.000192717475999644 -0.000210061352735688 -0.000178443123245969 -0.000199668987102547 -0.000170171524380427 -0.00021548468883463 0.000283866181964753 4.82289928042602e-05 2.66547487006992e-05 -7.19621313254888e-05 -9.2253213795541e-06 0.000320871156782648 9.2721995748409e-05 0.000179178147881639
"67" -0.000277623770623018 -0.000171920599306607 -0.000197070663814309 -0.000209423609971614 -0.000185226327003751 -0.000203180884430578 -0.000175638701059274 -0.000218505133669976 0.000297768155791033 5.34963228093662e-05 3.23459493655341e-05 -7.3623021863757e-05 -4.58070269570592e-06 0.000320654822316548 9.07506335829758e-05 0.000176614289378003
"68" -0.000282438158770496 -0.00017847570639653 -0.000201125072923136 -0.000208545445613849 -0.000191659553395621 -0.000206460070262026 -0.000181142814615595 -0.000221277381606961 0.000310548243068952 5.8621574616787e-05 3.76451507889609e-05 -7.54885642367419e-05 -2.74447224574072e-07 0.000319480471616163 8.82022280947377e-05 0.000173309626582428
"69" -0.000287170976513654 -0.000184619564207705 -0.000204847276462934 -0.000207419524264361 -0.000197722278302032 -0.000209478511699807 -0.000186637637317293 -0.000223777933200395 0.000322160622512784 6.36008170590178e-05 4.25415486903166e-05 -7.75548655015657e-05 3.66353387890428e-06 0.000317359163408615 8.50822492324242e-05 0.000169249852316547
"70" -0.000291781436953282 -0.00019029746407918 -0.000208212712379943 -0.000206043264034832 -0.000203384155210659 -0.000212210885442515 -0.00019208565893607 -0.000225978472647257 0.000332572281522151 6.84306437370463e-05 4.70280857908193e-05 -7.9818432230976e-05 7.21013769979875e-06 0.00031430874157021 8.13992280735056e-05 0.000164433168271451
"71" -0.000296228610339713 -0.000195455906441279 -0.000211201722022456 -0.000204415323204352 -0.000208629196700899 -0.000214633259620064 -0.000197441180915372 -0.000227860334072323 0.000341755694121799 7.31070958477526e-05 5.1090506468357e-05 -8.22708834060494e-05 1.03434742602715e-05 0.000310353288845072 7.716922040605e-05 0.000158865307851395
"72" -0.000300472619828347 -0.00020004640642418 -0.000213787261783082 -0.000202533076484231 -0.000213433091141604 -0.000216722759396689 -0.000202664139243211 -0.000229398214515421 0.000349691456475953 7.76234747921071e-05 5.47291457112143e-05 -8.49067739103819e-05 1.30483087907247e-05 0.00030552549918226 7.24104560329014e-05 0.000152558766120319
"73" -0.00030447372069503 -0.000204025384039999 -0.000215955257605702 -0.000200402550788762 -0.000217774069649198 -0.00021845819416749 -0.000207710663904386 -0.000230579696505431 0.000356364192895106 8.19713124410689e-05 5.79345758771043e-05 -8.7715323890896e-05 1.53139112186187e-05 0.000299858046937619 6.71393974258311e-05 0.000145540336759015
"74" -0.00030819820763673 -0.000207361028693577 -0.00021769182731567 -0.000198028258971745 -0.000221637991359108 -0.000219825381395817 -0.000212540917426491 -0.000231387798585442 0.000361774179933392 8.614035778185e-05 6.07102852005105e-05 -9.06853163535202e-05 1.71339429430133e-05 0.000293395221699405 6.13859153311183e-05 0.000137842250144133
"75" -0.00031161266913514 -0.000210024560894685 -0.000218980404803622 -0.000195415787585092 -0.00022500887744914 -0.00022080047313336 -0.000217116479091742 -0.00023181504308937 0.000365921379979301 9.01264666538763e-05 6.30510180926714e-05 -9.38062656250707e-05 1.85072421474101e-05 0.000286182192561367 5.51755127548719e-05 0.000129503570505492
"76" -0.000314680708269923 -0.000211988918676505 -0.000219816973322377 -0.000192579059887846 -0.000227866995858695 -0.000221376159891598 -0.000221398687402464 -0.000231846921319397 0.000368816448128924 9.39116385960177e-05 6.49633596383265e-05 -9.70668634788986e-05 1.94343558651151e-05 0.000278268061318364 4.85399967433547e-05 0.000120571177590789
"77" -0.000317376752567561 -0.0002132441948065 -0.000220193490562566 -0.000189528898872584 -0.000230205404299199 -0.000221538006956574 -0.000225351850147392 -0.000231485741547627 0.00037047962029211 9.7489170317814e-05 6.64483280933081e-05 -0.000100451744480967 1.99255743829328e-05 0.000269711479131773 4.15153934039042e-05 0.000111104208990444
"78" -0.000319668271583578 -0.000213778191574242 -0.000220109533219671 -0.000186279145549118 -0.00023200891129586 -0.000221278123782643 -0.000228943305613671 -0.000230723177920999 0.000370932919169956 0.000100840932833678 6.7511197727223e-05 -0.000103949289085332 1.99936163361407e-05 0.000260567124242782 3.41423198082011e-05 0.00010116587314342
"79" -0.000321536720147408 -0.000213590494154873 -0.000219565472823223 -0.00018284942748566 -0.000233272976328931 -0.000220591051924175 -0.000232143634663097 -0.000229566081035247 0.000370206218918292 0.000103957040094567 6.81591193012064e-05 -0.000107543402323852 1.96515416965929e-05 0.000250897745505895 2.64561349628332e-05 9.08254638766944e-05
"80" -0.000322960352128895 -0.000212687285875854 -0.000218564518140311 -0.000179256969893645 -0.000233987187440823 -0.000219475237583754 -0.000234925071473593 -0.000228015136466337 0.000368339825205701 0.000106818014039673 6.84032904324404e-05 -0.000111215838041072 1.89211200425849e-05 0.0002407677963915 1.85026728105991e-05 8.01573388861021e-05
"81" -0.000323925329273403 -0.000211076601776139 -0.00021712091674715 -0.000175525361443899 -0.000234156978513247 -0.000217930648422465 -0.000237263161347914 -0.000226082410379428 0.000365374727455625 0.000109410243202923 6.82483727769631e-05 -0.000114957969535597 1.78282027704778e-05 0.000230242491128871 1.03248182059851e-05 6.92404321820115e-05
"82" -0.000324413565001196 -0.000208784558652019 -0.000215242799049366 -0.000171673350897038 -0.000233772061221604 -0.000215957034321742 -0.000239137965507749 -0.000223775416973223 0.000361354980615004 0.000111717023547499 6.77091596330092e-05 -0.00011874492650081 1.63992548518661e-05 0.000219390160377839 1.96855423577012e-06 5.81636248683595e-05
"83" -0.00032442319785564 -0.000205826461835726 -0.000212946109249332 -0.000167730517558124 -0.000232838169033633 -0.000213564711669097 -0.000240534981960686 -0.000221111391498363 0.00035633505412435 0.000113717048156305 6.67950412093334e-05 -0.000122570150047894 1.46648400565267e-05 0.000208276970371104 -6.51522982522462e-06 4.70079190754704e-05
"84" -0.000323946090967805 -0.000202237471728693 -0.000210250938661903 -0.000163720759664093 -0.000231361818803315 -0.000210763161203196 -0.000241441141896792 -0.000218105107618304 0.000350366222715764 0.00011539630005936 6.55214736783713e-05 -0.000126411127899032 1.26575292649373e-05 0.000196973880164114 -1.50839007329592e-05 3.58638554347973e-05
"85" -0.000322986888791299 -0.000198053694550383 -0.000207178517805605 -0.000159669448261733 -0.000229348659156263 -0.000207559437910265 -0.000241848178316891 -0.000214780528572491 0.000343511168450123 0.00011673929661649 6.38985818932287e-05 -0.000130256605828025 1.04139782603144e-05 0.000185546067160021 -2.36835879202162e-05 2.48228259386501e-05
"86" -0.000321546583653069 -0.000193313323205846 -0.000203749722606047 -0.000155605883932897 -0.000226810101364657 -0.00020397417102361 -0.00024175015707783 -0.000211156467422373 0.000335825037342689 0.000117722901408798 6.1943892002897e-05 -0.000134090846432823 7.97383123920447e-06 0.000174061526266993 -3.22692966136868e-05 1.39728639443165e-05
"87" -0.000319636679035066 -0.00018806313619313 -0.00019999752933906 -0.000151555964240316 -0.000223758558760658 -0.000200021009130132 -0.000241152843969421 -0.000207256580879031 0.000327373749423353 0.000118338093129111 5.96688874991229e-05 -0.000137896975881354 5.37042523523953e-06 0.000162585158847773 -4.07904678804053e-05 3.40450096557472e-06
"88" -0.000317268949422098 -0.000182352939024696 -0.000195946300187662 -0.000147551110477864 -0.000220208149803683 -0.000195722471690676 -0.000240055534396577 -0.000203108111138252 0.000318217702998859 0.000118562991593174 5.70931606868707e-05 -0.000141664012505182 2.64699551487386e-06 0.000151178963589352 -4.92018672638336e-05 -6.80096641434772e-06
"89" -0.000314463967607619 -0.00017623169717831 -0.000191631274299494 -0.000143616236968116 -0.000216182121237796 -0.000191099193701752 -0.000238468542370939 -0.000198741505000664 0.000308424353787011 0.00011838529277332 5.42286354657497e-05 -0.000145379301850486 -1.5863469697243e-07 0.000139904747698307 -5.74553592377872e-05 -1.65552738996398e-05
"90" -0.000311242738104842 -0.000169757521260555 -0.000187084754548122 -0.00013978114200267 -0.000211699040295482 -0.00018617918234205 -0.000236407291730993 -0.000194184761436613 0.000298057819944852 0.000117791277662063 5.10923662103568e-05 -0.00014902954200343 -3.00595558828111e-06 0.000128819717955413 -6.55121405723363e-05 -2.57852288616551e-05
"91" -0.00030762984711649 -0.000162987676985796 -0.000182345189385334 -0.000136073340819634 -0.000206781702163874 -0.000180984945553136 -0.0002338880318548 -0.000189469741133012 0.000287179975486618 0.000116768444343597 4.7697516754466e-05 -0.000152604518404656 -5.85628962884947e-06 0.000117978107413491 -7.33200713608804e-05 -3.44119399615461e-05
"92" -0.000303653361336014 -0.00015598076441674 -0.000177441929361294 -0.000132517032974964 -0.000201458876482114 -0.00017554748619524 -0.000230929414920135 -0.000184627420740793 0.000275856089386716 0.000115308208299146 4.40643123021617e-05 -0.000156096062036572 -8.67362492010852e-06 0.000107430059384003 -8.08463659459969e-05 -4.23712089976438e-05
"93" -0.00029935144421846 -0.000148798110354241 -0.0001724172143349 -0.000129137818680455 -0.000195757825377236 -0.000169899654340117 -0.00022756011201019 -0.000179687999542862 0.000264148669940848 0.00011339725857009 4.02057381496086e-05 -0.00015949420835418 -1.1418685634773e-05 9.72219052359846e-05 -8.80520044874136e-05 -4.96019101196346e-05
"94" -0.000294757303827053 -0.000141500747786732 -0.000167306749487165 -0.000125960461784793 -0.000189709292903675 -0.000164067431819812 -0.000223801440201631 -0.000174686141460106 0.000252116284557004 0.000111034992414403 3.61382077592012e-05 -0.000162792614239889 -1.40602881013352e-05 8.73934264195494e-05 -9.489851841405e-05 -5.60502108361725e-05
"95" -0.000289911729864835 -0.000134148725625579 -0.000162146979374327 -0.00012300459371099 -0.00018334774517633 -0.00015808757089447 -0.000219692333041323 -0.000169656717620027 0.000239817641558869 0.000108216922148808 3.1873417779847e-05 -0.000165987416332676 -1.65663296824611e-05 7.79848897737364e-05 -0.000101357898675339 -6.16703819923245e-05
"96" -0.000284856820574073 -0.000126799225169859 -0.000156980244829075 -0.000120291495203039 -0.000176702044624512 -0.00015199051898871 -0.000215261583992534 -0.000164623733331518 0.000227307634818528 0.000104935767994678 2.74300671779341e-05 -0.000169073656653579 -1.89064684460476e-05 6.90253113126145e-05 -0.000107400547939452 -6.64256382823362e-05
"97" -0.000279633368875631 -0.000119512391467284 -0.000151839926903749 -0.000117836628756993 -0.000169810771239379 -0.000145811495261789 -0.000210549735240711 -0.000159628006337729 0.000214640261572469 0.0001011978522532 2.28201064165638e-05 -0.000172046437881716 -2.10566723393668e-05 6.05441950512565e-05 -0.00011300510200062 -7.02880512706043e-05
"98" -0.000274290881952048 -0.000112347167378223 -0.000146762078992159 -0.000115655803695699 -0.000162711374536465 -0.000139585292099268 -0.000205589278443915 -0.000154692567066745 0.000201865054294985 9.70068586579564e-05 1.80573488295769e-05 -0.000174906196608928 -2.29911476833513e-05 5.25611377338442e-05 -0.000118144412199808 -7.32366915613143e-05
"99" -0.000268876137022634 -0.000105351479376346 -0.000141780041639778 -0.000113762710992003 -0.000155435156067722 -0.000133343087600382 -0.000200424998907418 -0.000149847130216213 0.000189031553830253 9.23690279385914e-05 1.31572397302062e-05 -0.000177652226712907 -2.46928467604446e-05 4.50959496964779e-05 -0.000122802432909167 -7.52619480234966e-05
"100" -0.000263435883747525 -9.85815633484185e-05 -0.000136927265495087 -0.0001121649169814 -0.000148025620384304 -0.000127117547587162 -0.0001950970609336 -0.000145118184483276 0.000176177935855398 8.72946254049702e-05 8.13081901399431e-06 -0.000180284194172818 -2.61445930001692e-05 3.81585104261165e-05 -0.00012696796608385 -7.63619359798108e-05
"101" -0.000258021688867338 -9.20803011007857e-05 -0.000132234982866804 -0.000110870588379148 -0.000140512762711267 -0.000120944289964672 -0.000189650596168213 -0.000140532900007506 0.000163347679582134 8.17914355888749e-05 2.9887407326017e-06 -0.000182806848434185 -2.73345903690565e-05 3.17589587009798e-05 -0.000130626838052881 -7.65448655292307e-05
"102" -0.000252679530156381 -8.58986368668362e-05 -0.000127730649545614 -0.000109881135429929 -0.000132940980955452 -0.000114851056683338 -0.000184124228078041 -0.000136115194070274 0.000150575123707838 7.58824205173336e-05 -2.25500579625029e-06 -0.000185219865476595 -2.82548363125478e-05 2.58949331150206e-05 -0.000133775893974061 -7.58274838690542e-05
"103" -0.000247459637792315 -8.00667147406672e-05 -0.000123438880334723 -0.000109202462829529 -0.000125339890902687 -0.000108870718367462 -0.000178562881441544 -0.000131882803009795 0.000137895627763716 6.9583208252564e-05 -7.5918496041087e-06 -0.000187531989276265 -2.8901278025349e-05 2.05702752567609e-05 -0.00013641365656401 -7.42339804607293e-05
"104" -0.000242409283176876 -7.46252295815651e-05 -0.0001193855071865 -0.000108829618944877 -0.000117744858858875 -0.000103029848623488 -0.000173009322356975 -0.000127853902894954 0.000125335799866287 6.29128548172563e-05 -1.30099165972077e-05 -0.000189744625535401 -2.92727461621692e-05 1.57738150351763e-05 -0.000138537713157187 -7.17985248572525e-05
"105" -0.000237573926991303 -6.9601283268952e-05 -0.000115583672506128 -0.000108757850422149 -0.000110194520198915 -9.73538972161953e-05 -0.000167503308493739 -0.000124041740240588 0.00011292245728291 5.58983239494191e-05 -1.84972160937792e-05 -0.000191863529427657 -2.93723667928818e-05 1.14982771436773e-05 -0.00014015339302697 -6.85617630204966e-05
"106" -0.000232997955349487 -6.50220684166019e-05 -0.000112058921019115 -0.000108981371664622 -0.00010271548834061 -9.18683192324636e-05 -0.000162087927306603 -0.000120465322249104 0.000100677439433161 4.85659150025243e-05 -2.40502459219048e-05 -0.000193898858630622 -2.92063499149971e-05 7.72729988554457e-06 -0.000141271648571533 -6.45712407787458e-05
"107" -0.000228722786739909 -6.0906654999866e-05 -0.00010881591359659 -0.000109488404714208 -9.53401914226695e-05 -8.65936587474887e-05 -0.000156800467126243 -0.000117127671446461 8.86169805474673e-05 4.09449890813658e-05 -2.96557894163308e-05 -0.000195855408796544 -2.87890347781467e-05 4.44266720394617e-06 -0.00014190134609463 -5.98815250517275e-05
"108" -0.0002247923258653 -5.72700936974682e-05 -0.00010586865665091 -0.000110266877094995 -8.80975224042593e-05 -8.15515444721939e-05 -0.000151678731224018 -0.000114039675056745 7.67591718320142e-05 3.30650125083868e-05 -3.53064848743337e-05 -0.000197740776066259 -2.81293806329021e-05 1.6240055064163e-06 -0.000142059455756916 -5.45542556967146e-05
"109" -0.000221238540249382 -5.41221745854628e-05 -0.000103220957516396 -0.000111302270256043 -8.10132947254591e-05 -7.67591074919656e-05 -0.000146756204298534 -0.000111204978282828 6.51160673337908e-05 2.49614411548076e-05 -4.09979436151598e-05 -0.000199563630562672 -2.72479585276352e-05 -7.54186058932117e-07 -0.000141762337900537 -4.86520041249974e-05
"110" -0.000218099597352511 -5.14672684181596e-05 -0.000100879801658359 -0.000112576312352524 -7.4112110536994e-05 -7.22274256488651e-05 -0.000142067226122759 -0.000108625243817591 5.36949540936428e-05 1.66699799148633e-05 -4.67192560319543e-05 -0.00020133222854728 -2.61647313557585e-05 -2.71690288447878e-06 -0.000141030556095304 -4.22483285333432e-05
"111" -0.000215399985897314 -4.93042656493754e-05 -9.88402580266293e-05 -0.000114069098011959 -6.74136695452044e-05 -6.79723962404562e-05 -0.000137639973801792 -0.000106295274189038 4.25040951516888e-05 8.22314075410821e-06 -5.24676569520538e-05 -0.000203055718231395 -2.49025475776019e-05 -4.29640511733741e-06 -0.000139886220227 -3.54151616163329e-05
"112" -0.000213172366413714 -4.76281356371526e-05 -9.71007867058359e-05 -0.000115762288573483 -6.09404074776473e-05 -6.39987748767493e-05 -0.000133499387339337 -0.000104211533321234 3.15460026180947e-05 -3.3472764286115e-07 -5.82342563630823e-05 -0.000204744925471437 -2.34892372571947e-05 -5.51996811473187e-06 -0.000138357036181784 -2.82310171794985e-05
"113" -0.000211431573452939 -4.64305856762244e-05 -9.56514047579374e-05 -0.000117629412583933 -5.47048643005369e-05 -6.03151446238607e-05 -0.000129668579545532 -0.000102370056742094 2.08217444251708e-05 -8.97209851911132e-06 -6.4014547369738e-05 -0.000206404485078641 -2.1951850485413e-05 -6.42084978109362e-06 -0.000136470537891123 -2.07726355087604e-05
"114" -0.000210201979565032 -4.56962260547291e-05 -9.44839147946372e-05 -0.00011965020874308 -4.87206007554873e-05 -5.69234486712218e-05 -0.000126168193927114 -0.000100758337531086 1.0332175614968e-05 -1.76421619164543e-05 -6.98030316454526e-05 -0.000208047387206561 -2.03214171824659e-05 -7.03413507839819e-06 -0.000134253801441875 -1.31206480767854e-05
"115" -0.000209492844988767 -4.54032058529855e-05 -9.35903425741036e-05 -0.0001217974450924 -4.29997497968717e-05 -5.38252577817405e-05 -0.000123015233494749 -9.93676419396338e-05 7.49861156593909e-08 -2.63121278385063e-05 -7.55949160126523e-05 -0.000209680461596429 -1.86322666831924e-05 -7.39538083794872e-06 -0.000131737742221693 -5.3561001145215e-06
"116" -0.000209315707318838 -4.5532089776447e-05 -9.29479705953839e-05 -0.000124047435873896 -3.75490497549288e-05 -5.10177007695764e-05 -0.000120220661436301 -9.81811777093574e-05 -9.95723547916345e-06 -3.49387047546981e-05 -8.13859323214735e-05 -0.000211313866091604 -1.69161277795793e-05 -7.53523903609105e-06 -0.00012895837363699 2.43938054114385e-06
"117" -0.000209671697179373 -4.60559675313439e-05 -9.25433116338956e-05 -0.000126373661877088 -3.23766765131014e-05 -4.84938558276114e-05 -0.000117791674333933 -9.7181888526675e-05 -1.97683571663488e-05 -4.34854924283704e-05 -8.7169235796792e-05 -0.00021295610330639 -1.52111070677769e-05 -7.49362200556617e-06 -0.000125946984314721 1.01887445109324e-05
"118" -0.000210562675122698 -4.69445198309535e-05 -9.2358797561801e-05 -0.000128750242531872 -2.74857768019406e-05 -4.62512215591898e-05 -0.000115734185148601 -9.63553900342292e-05 -2.93664950444453e-05 -5.19096115990598e-05 -9.29447380271257e-05 -0.0002146151078801 -1.35517401717978e-05 -7.3046792789214e-06 -0.000122739062383619 1.78122638057384e-05
"119" -0.00021198391893206 -4.81686892875154e-05 -9.23700908750684e-05 -0.000131151550037517 -2.28744340821646e-05 -4.42763204521494e-05 -0.000114049886309942 -9.56832218730164e-05 -3.87566371462288e-05 -6.01791752808549e-05 -9.87042802077583e-05 -0.000216298273954373 -1.19755132428416e-05 -6.99979665252604e-06 -0.000119370505381971 2.52370578569674e-05
"120" -0.000213926930166606 -4.96915112922618e-05 -9.25586283302824e-05 -0.000133552575942761 -1.85442593257913e-05 -4.25605927609018e-05 -0.000112735440857353 -9.51443598354074e-05 -4.79527349153342e-05 -6.82567814713611e-05 -0.000104448070475495 -0.000218015037945712 -1.05183817900239e-05 -6.61660854655774e-06 -0.000115875252957385 3.23910628249098e-05
"121" -0.000216374685407353 -5.14789144533612e-05 -9.28966223545334e-05 -0.00013592950799534 -1.44930480218958e-05 -4.10884508077989e-05 -0.000111788816743206 -9.47166395477357e-05 -5.69599753641409e-05 -7.61078708736874e-05 -0.000110167209431446 -0.000219772565595581 -9.21907561640777e-06 -6.18591454723513e-06 -0.000112288968400412 3.92058829570427e-05
"122" -0.00021931075078055 -5.34921285118633e-05 -9.33642205395663e-05 -0.000138259710795859 -1.07093501704582e-05 -3.98441473923061e-05 -0.000111198242806525 -9.43802533793782e-05 -6.57893430253287e-05 -8.36967420892963e-05 -0.000115863741759255 -0.000221576241218302 -8.11302615812249e-06 -5.73757035848664e-06 -0.000108646295736396 4.56188365280242e-05
"123" -0.000222714476653926 -5.5692695964709e-05 -9.39374046912811e-05 -0.000140522618311984 -7.19505869110795e-06 -3.88135781899466e-05 -0.00011095033286536 -9.41143873339439e-05 -7.44533277562654e-05 -9.10025232892503e-05 -0.000121529653522741 -0.000223435163003921 -7.23405839802466e-06 -5.30459577286246e-06 -0.000104981626814205 5.15702543243853e-05
"124" -0.000226559044277107 -5.8042273700097e-05 -9.45932264357405e-05 -0.000142693958564985 -3.93445953391637e-06 -3.79750708496812e-05 -0.000111031931760804 -9.3895228339977e-05 -8.2959040500432e-05 -9.79903088902788e-05 -0.000127159365811776 -0.000225350906240639 -6.61857559298802e-06 -4.91313651039179e-06 -0.000101331736632697 5.70112703426387e-05
"125" -0.000230815094363569 -6.05033224757666e-05 -9.53027989765481e-05 -0.000144760651667272 -9.23520880846823e-07 -3.73145831235846e-05 -0.000111425022213469 -9.37024546650272e-05 -9.13188264358067e-05 -0.000104636745686288 -0.000132754183208376 -0.000227332206159686 -6.29692605744216e-06 -4.58771750077527e-06 -9.77243204356103e-05 6.18934967295064e-05
"126" -0.000235451164093283 -6.30355611441224e-05 -9.60485042586441e-05 -0.000146702812255247 1.85518283215515e-06 -3.68061940219967e-05 -0.000112110034738814 -9.35146772830739e-05 -9.95406689168692e-05 -0.000110923867682214 -0.000138306230574523 -0.000229381958608725 -6.30026361284089e-06 -4.35686706784462e-06 -9.41885209305486e-05 6.61769206072512e-05
"127" -0.000240428810261304 -6.56028793705419e-05 -9.68028955043072e-05 -0.000148509298453005 4.4089785669903e-06 -3.6434672006871e-05 -0.000113066091618361 -9.33140555553709e-05 -0.000107634117312435 -0.000116827526550511 -0.000143812638480074 -0.000231502609468654 -6.65862001464795e-06 -4.23802523724222e-06 -9.07602989053738e-05 6.9830220799465e-05
"128" -0.0002457097181204 -6.81659961679909e-05 -9.75508105540441e-05 -0.000150167347077248 6.74784303902023e-06 -3.61751871193145e-05 -0.000114265794104038 -9.3075265608333e-05 -0.000115611685677106 -0.000122335673962898 -0.000149269786246192 -0.000233699250952412 -7.39438337887564e-06 -4.25118033069386e-06 -8.74564733483952e-05 7.28285521439661e-05
"129" -0.00025125806888758 -7.06935813843191e-05 -9.82688052543182e-05 -0.000151667345390993 8.89278729772444e-06 -3.60076042807335e-05 -0.000115686005591741 -9.27846116908994e-05 -0.000123475664629209 -0.000127433921099134 -0.000154671265416031 -0.000235971304510824 -8.53269223762594e-06 -4.41155476615748e-06 -8.43092423092086e-05 7.51531856767674e-05
"130" -0.000257028338693349 -7.31503569167586e-05 -9.89392560167955e-05 -0.000153003421284902 1.08524355436067e-05 -3.59135932089809e-05 -0.000117298412691874 -9.24241798227143e-05 -0.000131239530056225 -0.000132117295241151 -0.000160012628174051 -0.000238321338783605 -1.00906461650705e-05 -4.73576730838057e-06 -8.13375913450502e-05 7.67928248943289e-05
"131" -0.0002629734502467 -7.55029283451661e-05 -9.95477252817183e-05 -0.00015417091731814 1.26429976602209e-05 -3.58688453856136e-05 -0.000119077277041996 -9.1978573539141e-05 -0.000138909987109004 -0.000136376501563529 -0.000165291941113468 -0.000240747666332106 -1.20863058270796e-05 -5.23409242575408e-06 -7.85599148287315e-05 7.77457779649041e-05
"132" -0.000269052637666527 -7.77274404938035e-05 -0.000100075253284169 -0.000155166879295393 1.42761317015433e-05 -3.58552085090949e-05 -0.000120991206206202 -9.14332192735821e-05 -0.000146487848768984 -0.000140205161907046 -0.000170500285121248 -0.00024324902641398 -1.45300293884493e-05 -5.91274453639436e-06 -7.59910973284723e-05 7.80181927725945e-05
"133" -0.000275219849877116 -7.97950044672093e-05 -0.000100512519574878 -0.000155995071520544 1.57653831946239e-05 -3.58508496265102e-05 -0.000123014784796938 -9.07782457007955e-05 -0.000153982982118925 -0.000143612330901621 -0.000175633680820224 -0.000245824679398996 -1.74316851465238e-05 -6.77867295472497e-06 -7.36470128654879e-05 7.76194542230605e-05
"134" -0.000281427364941588 -8.16826910533139e-05 -0.000100850175789474 -0.000156657271540864 1.71310100922639e-05 -3.58379906572252e-05 -0.000125112754961451 -9.00008557171922e-05 -0.000161399886527924 -0.000146594222775254 -0.000180686923571157 -0.000248471030200976 -2.07974458615257e-05 -7.83593445797219e-06 -7.15296449684743e-05 7.65704687861911e-05
"135" -0.000287625422098825 -8.33691788000452e-05 -0.000101076760463057 -0.000157158870860095 1.83764367612035e-05 -3.57991518492224e-05 -0.000127264621509151 -8.90908409571226e-05 -0.000168740734459937 -0.000149164798357335 -0.000185654503879557 -0.000251181196032137 -2.46251586846506e-05 -9.08235343410986e-06 -6.96519862685219e-05 7.48983447931223e-05
"136" -0.000293771861224627 -8.48395025545888e-05 -0.000101187943225072 -0.000157510078248477 1.95225340224999e-05 -3.57167475082967e-05 -0.00012943428267102 -8.80500406948894e-05 -0.000176008601179177 -0.000151328336957681 -0.000190530345592222 -0.000253952224281597 -2.89111492379353e-05 -1.05149703074724e-05 -6.8011777351716e-05 7.26344217279716e-05
"137" -0.000299823103651068 -8.60785456782838e-05 -0.000101178455261654 -0.000157718477371118 2.05775991983537e-05 -3.5575203885212e-05 -0.000131599524344354 -8.6868399269229e-05 -0.000183206222136576 -0.000153099000657833 -0.000195309651782598 -0.000256777473100113 -3.36515479782613e-05 -1.21311258646765e-05 -6.66109448143615e-05 6.98191973212875e-05
"138" -0.000305729242270501 -8.70725292298028e-05 -0.000101048772080365 -0.000157798092431702 2.15550072058773e-05 -3.53599911391167e-05 -0.000133731305602738 -8.55434855595825e-05 -0.00019033251420715 -0.000154493835062555 -0.000199984012199408 -0.000259647541202096 -3.88335644713581e-05 -1.39241783582902e-05 -6.54447237973351e-05 6.64964485425233e-05
"139" -0.000311448788710662 -8.78155432265443e-05 -0.00010079945109653 -0.000157763090278969 2.24612568090763e-05 -3.50604661592654e-05 -0.000135805083564652 -8.40775858994013e-05 -0.000197392019982195 -0.000155528195051199 -0.000204545660906975 -0.000262557413805701 -4.44436396855623e-05 -1.58809597093479e-05 -6.45037317703598e-05 6.27147155360401e-05
"140" -0.000316942599190933 -8.83046403900448e-05 -0.000100429930406993 -0.000157625936217661 2.33099823981096e-05 -3.46620103944208e-05 -0.00013779729142493 -8.24721251446353e-05 -0.000204380024747498 -0.000156221650539424 -0.000208993281461904 -0.000265495848582428 -5.0459989181414e-05 -1.7993571945734e-05 -6.37745954524753e-05 5.85298108290512e-05
"141" -0.000322169783763121 -8.85363398257658e-05 -9.9947812078937e-05 -0.000157406859212208 2.41078337409808e-05 -3.41590769395248e-05 -0.000139686433384388 -8.07340377634321e-05 -0.000211295826508913 -0.000156597161142732 -0.000213315628473831 -0.000268450749524562 -5.68655684044167e-05 -2.02469694153305e-05 -6.32486941842878e-05 5.39985047905294e-05
"142" -0.000327092563391928 -8.8507526776091e-05 -9.93571971764624e-05 -0.000157122073032853 2.48645044820329e-05 -3.35425038961572e-05 -0.000141450626796034 -7.88636945988781e-05 -0.000218138419135701 -0.000156675940387219 -0.000217507523740907 -0.000271417582655414 -6.36307806148566e-05 -2.26255395130257e-05 -6.29086312553617e-05 4.91791886276022e-05
"143" -0.000331675117606105 -8.82297667685777e-05 -9.86677089393507e-05 -0.000156790057256136 2.55806089867213e-05 -3.28068194010019e-05 -0.000143071848540283 -7.6876644434627e-05 -0.000224904063447326 -0.000156484269587735 -0.000221563238204115 -0.0002743768313333 -7.0729405390469e-05 -2.51168097872896e-05 -6.27330026540905e-05 4.41348116907253e-05
"144" -0.000335890229744157 -8.77058726282193e-05 -9.78880725525126e-05 -0.000156428740655956 2.62638959863537e-05 -3.19450368887635e-05 -0.00014453486052614 -7.47751924121135e-05 -0.000231590549223532 -0.000156046089178891 -0.000225475065341773 -0.00027732291029646 -7.81332437703951e-05 -2.76989598975595e-05 -6.27010810094373e-05 3.8930670506482e-05
"145" -0.000339703121350337 -8.69430184076713e-05 -9.70309921047462e-05 -0.000156059338480733 2.69191537760404e-05 -3.09577924700872e-05 -0.000145826428519548 -7.25734190873902e-05 -0.000238191354184538 -0.00015538816512444 -0.000229237351056976 -0.000280242024956794 -8.58053316838013e-05 -3.03584095010976e-05 -6.27896986456971e-05 3.36270265127874e-05
"146" -0.000343092107883334 -8.59576986620993e-05 -9.61054520231591e-05 -0.000155698081848166 2.75474603116996e-05 -2.98424761967975e-05 -0.000146931272868973 -7.02842867689329e-05 -0.000244702786308682 -0.000154537385709069 -0.000232842771080506 -0.000283119128732096 -9.37140100680092e-05 -3.30719067986415e-05 -6.29745415959314e-05 2.82905516970937e-05
"147" -0.000346030064062085 -8.47581422474141e-05 -9.51262582825076e-05 -0.000155366938730989 2.81509422254032e-05 -2.86023498133332e-05 -0.000147842047697739 -6.79194426658851e-05 -0.000251123069153198 -0.000153520939133452 -0.000236285674839226 -0.000285943634623066 -0.000101820196828054 -3.58237596537888e-05 -6.3227486081941e-05 2.29801085264425e-05
"148" -0.000348498653680281 -8.33628404584218e-05 -9.41069300270579e-05 -0.000155080585625974 2.87274984279624e-05 -2.72357666648859e-05 -0.000148553611937021 -6.54985090613239e-05 -0.000257440334922932 -0.000152364862057758 -0.000239561252070915 -0.000288702951920709 -0.000110087669421826 -3.85929820250683e-05 -6.35251162017985e-05 1.7758086779704e-05
"149" -0.000350483268237081 -8.1789699249667e-05 -9.30648057842016e-05 -0.000154858645291554 2.92767980199366e-05 -2.57515799610605e-05 -0.000149056945610769 -6.30300658084092e-05 -0.000263654250679422 -0.000151095861552026 -0.000242663359992081 -0.000291382701996265 -0.000118478790653925 -4.13616921153093e-05 -6.38331927202141e-05 1.26818655388413e-05
"150" -0.000351970992017525 -8.00542874514284e-05 -9.20076315602565e-05 -0.000154715856540507 2.9797487319082e-05 -2.41523217101464e-05 -0.000149353862714473 -6.05350063021895e-05 -0.000269754858577686 -0.000149741997499191 -0.000245586835354295 -0.000293970728126133 -0.00012695192473346 -4.41110037304608e-05 -6.41257121909334e-05 7.80451062522875e-06
"151" -0.000352950013564128 -7.81784759382844e-05 -9.09529514898446e-05 -0.000154663998527237 3.02875018254063e-05 -2.24436388344855e-05 -0.000149439999763654 -5.80316675667666e-05 -0.000275737360845438 -0.000148320696986536 -0.000248325021943083 -0.000296453932308412 -0.000135467363718212 -4.682074554715e-05 -6.43768002061654e-05 3.17984592783287e-06
"152" -0.000353415390992542 -7.61838799912204e-05 -8.99149976178451e-05 -0.000154719685834261 3.0745847858075e-05 -2.0633668015105e-05 -0.000149319366547053 -5.55327299016826e-05 -0.000281594826525408 -0.000146864268342791 -0.000250880042721475 -0.000298819342396611 -0.000143987590779921 -4.947641122842e-05 -6.45553257734562e-05 -1.14887674734489e-06
"153" -0.000353364175991205 -7.40880878391837e-05 -8.89053044977249e-05 -0.000154890623519306 3.11617135466814e-05 -1.87339615875046e-05 -0.000148992935728047 -5.30549157436791e-05 -0.000287321291764922 -0.000145391923752799 -0.000253241502663268 -0.000301055335624221 -0.000152474018527283 -5.20595137145079e-05 -6.46353366275994e-05 -5.13706151409353e-06
"154" -0.000352797637747205 -7.19178533041609e-05 -8.79371721590639e-05 -0.000155184688417079 3.15379845583001e-05 -1.6751602174554e-05 -0.000148467316831371 -5.06196986059882e-05 -0.000292906161906098 -0.000143919975749741 -0.000255408980846969 -0.000303146721614423 -0.000160883589279484 -5.45518612371029e-05 -6.45879815361841e-05 -8.7487326665763e-06
"155" -0.00035171730599688 -6.96913706248331e-05 -8.70221945312593e-05 -0.000155610257935028 3.18681341234956e-05 -1.46956644703026e-05 -0.000147749147733527 -4.82373259200073e-05 -0.000298346985842204 -0.00014247073081172 -0.00025738216802323 -0.000305085160119713 -0.000169183821133992 -5.69435039472895e-05 -6.43912724066735e-05 -1.19524736643234e-05
"156" -0.000350131581821682 -6.74311995237654e-05 -8.61701999495238e-05 -0.000156170865472897 3.21473750270542e-05 -1.25801563086926e-05 -0.000146849030819761 -4.59236475922386e-05 -0.000303637407690848 -0.000141064062219432 -0.00025915789077444 -0.000306858847158181 -0.00017733743817333 -5.92188790739589e-05 -6.40182929959403e-05 -1.47211730615586e-05
"157" -0.000348048424234372 -6.51587909244621e-05 -8.53892176542328e-05 -0.000156867387077595 3.23714818532754e-05 -1.04135733131788e-05 -0.000145771365287071 -4.36962316966466e-05 -0.000308766493071533 -0.000139710357059401 -0.000260735955183812 -0.000308453902286387 -0.000185307101460219 -6.13634818226814e-05 -6.34461632513574e-05 -1.70341133148391e-05
"158" -0.000345477892623952 -6.28985977273632e-05 -8.46853849795427e-05 -0.000157696868634583 3.25396546383362e-05 -8.20762559927694e-06 -0.00014453024079378 -4.15666869228807e-05 -0.000313730569698425 -0.000138420866477348 -0.000262116579437838 -0.000309861651628313 -0.000193061248471895 -6.33706368605572e-05 -6.26544452997539e-05 -1.88770275902677e-05
"159" -0.000342436514689146 -6.06685645115958e-05 -8.4065398525463e-05 -0.00015865506194326 3.26493339428375e-05 -5.97128728684586e-06 -0.000143136777865436 -3.95444364473178e-05 -0.000318523198176121 -0.000137210471098949 -0.000263300016729075 -0.000311072495909426 -0.000200569576245832 -6.52300020857316e-05 -6.162925077565e-05 -2.02387461414629e-05
"160" -0.000338940062003958 -5.84876303977033e-05 -8.35296715747524e-05 -0.000159738646101201 3.26966795945939e-05 -3.72008461918363e-06 -0.000141605001454409 -3.7643419573193e-05 -0.000323137747649749 -0.00013608331283139 -0.000264292687325943 -0.000312074746147795 -0.000207801906465698 -6.69336613393078e-05 -6.03513552880844e-05 -2.11178539851221e-05
"161" -0.000335006304691843 -5.63781265607858e-05 -8.30770011231848e-05 -0.000160935922505827 3.26811248963953e-05 -1.45778961594304e-06 -0.000139942247318112 -3.58715623116962e-05 -0.000327568937001005 -0.000135046134018756 -0.000265092137285659 -0.000312858349709323 -0.00021473256294818 -6.84746148039858e-05 -5.8804578583012e-05 -2.15113767336169e-05
"162" -0.000330652348463018 -5.43552612010585e-05 -8.27071980188978e-05 -0.000162236195795079 3.26075417537891e-05 8.00609537596367e-07 -0.000138165822868576 -3.42326460413913e-05 -0.000331814221185072 -0.000134101602751707 -0.000265704555271886 -0.000313415637101093 -0.000221331723719214 -6.98484495103867e-05 -5.69784670471076e-05 -2.14281902660532e-05
"163" -0.000325904282237189 -5.24376938312591e-05 -8.24194484299413e-05 -0.000163623736529791 3.24755679275992e-05 3.04905146715251e-06 -0.000136285301404185 -3.27321852213597e-05 -0.000335865948706563 -0.000133250699190313 -0.000266136391969864 -0.000313739633363438 -0.000227583710445835 -7.10539470240628e-05 -5.48698146786191e-05 -2.08783106876469e-05
"164" -0.000320781760131877 -5.06381233605578e-05 -8.22051347568913e-05 -0.000165083376024588 3.22865576744819e-05 5.27726424594589e-06 -0.000134316759554097 -3.13782863988368e-05 -0.000339720182030733 -0.000132490194348828 -0.000266392749968952 -0.00031381907439137 -0.000233465474435993 -7.20889976739292e-05 -5.24668294668627e-05 -1.98780567272191e-05
"165" -0.00031530536413379 -4.89718822617736e-05 -8.20525977574744e-05 -0.000166596104998442 3.20479535529474e-05 7.48109728357172e-06 -0.000132270586209521 -3.01651533659583e-05 -0.000343376461051197 -0.000131817174215874 -0.000266478530007692 -0.000313647882453162 -0.000238958667032155 -7.29529093011203e-05 -4.97679785227935e-05 -1.84449140884944e-05
"166" -0.000309504212655871 -4.74485923241015e-05 -8.19540114724512e-05 -0.000168141173175245 3.17650335081818e-05 9.65343770555498e-06 -0.000130160149671569 -2.90920046813373e-05 -0.000346831312335276 -0.000131224503452 -0.000266404485848123 -0.000313220706389381 -0.000244047748397042 -7.36470918168066e-05 -4.67776147649151e-05 -1.66027817403594e-05
"167" -0.000303396773027459 -4.60808854480513e-05 -8.18961065794996e-05 -0.000169697292494404 3.1448263860071e-05 1.17884144123244e-05 -0.000127994558133351 -2.81587247587578e-05 -0.000350080445176945 -0.000130705351024926 -0.000266177982994883 -0.000312528357476996 -0.000248723826469687 -7.4176070851225e-05 -4.34913782481502e-05 -1.43784689213983e-05
"168" -0.000297012169868431 -4.48760986445884e-05 -8.18656040608875e-05 -0.000171238982904413 3.11087814017784e-05 1.38841761970566e-05 -0.000125787147142652 -2.73578171943394e-05 -0.000353125620729003 -0.000130246773191706 -0.000265810576812243 -0.000311565262183091 -0.000252973202032577 -7.45446816306477e-05 -3.9920018603285e-05 -1.18023551892107e-05
"169" -0.000290370750773187 -4.38450606268538e-05 -8.18417497856246e-05 -0.000172741202129437 3.07542979466865e-05 1.59383739166905e-05 -0.000123545707139916 -2.66795936388694e-05 -0.000355968517295085 -0.000129842615448472 -0.000265311852371972 -0.000310329173510357 -0.000256792735435892 -7.47580582129961e-05 -3.60693760869224e-05 -8.9052985967897e-06
"170" -0.000283495493848485 -4.29870683183793e-05 -8.18091819394936e-05 -0.000174179229201854 3.04010864334211e-05 1.79505179785489e-05 -0.000121279129457993 -2.61185149076176e-05 -0.000358605543297184 -0.000129478128969089 -0.000264692556813776 -0.000308811604957701 -0.00026017429941329 -7.48230700504103e-05 -3.19520106465861e-05 -5.72161263507481e-06
"171" -0.000276410350358292 -4.23094664805771e-05 -8.17461943242876e-05 -0.000175525817679047 3.00650814067418e-05 1.99188407207697e-05 -0.000118995182958841 -2.56579157868295e-05 -0.000361042078762725 -0.000129133728972338 -0.000263966906513451 -0.000307011282877884 -0.000263117356793557 -7.47507698249422e-05 -2.75815317770553e-05 -2.28627683077662e-06
"172" -0.000269139857721025 -4.18134594044978e-05 -8.16362236822352e-05 -0.000176753967268287 2.97590670568614e-05 2.18496203520413e-05 -0.000116699843116273 -2.52881118384024e-05 -0.000363278405081199 -0.000128799443690126 -0.000263147749611052 -0.000304923620682304 -0.000265624907932227 -7.45493390595662e-05 -2.29744400498326e-05 1.35999320373811e-06
"173" -0.000261698344682548 -4.14961859055106e-05 -8.14537668827594e-05 -0.00017783680304816 2.95016047857533e-05 2.37425142289866e-05 -0.000114399916601876 -2.49885470416218e-05 -0.000365322063021709 -0.000128458108604106 -0.000262245712861316 -0.000302549271485456 -0.000267695935145904 -7.42330719721284e-05 -1.81513462782932e-05 5.18205248097949e-06
"174" -0.000254113947951335 -4.13584401475354e-05 -8.11784197075536e-05 -0.000178745617001559 2.93142624999515e-05 2.560194833002e-05 -0.00011209934070913 -2.47448939708692e-05 -0.000367174403549107 -0.000128092403149385 -0.000261280565439428 -0.000299885231791273 -0.000269338679445266 -7.38110020128038e-05 -1.31330155887365e-05 9.13861124311205e-06
"175" -0.000246397861775613 -4.13951050262918e-05 -8.07856331222138e-05 -0.000179455522180947 2.92105473845604e-05 2.74375670749635e-05 -0.000109800271814959 -2.45399750406949e-05 -0.000368844171588977 -0.000127687919719625 -0.000260261268106713 -0.000296930940241722 -0.000270561357385516 -7.33000270647122e-05 -7.94379248461985e-06 1.31887942961861e-05
"176" -0.000238570885250392 -4.16031541711313e-05 -8.02562493006636e-05 -0.000179940407834517 2.92114590610515e-05 2.92500199736279e-05 -0.000107508062302871 -2.43511332285355e-05 -0.000370337748443587 -0.000127225127111721 -0.000259207518388885 -0.000293689851248238 -0.000271377370310015 -7.27134482822314e-05 -2.61390235152678e-06 1.72939780468161e-05
"177" -0.000230646716561435 -4.19706731381717e-05 -7.95679251697249e-05 -0.000180176593680956 2.93384724315965e-05 3.1052277339515e-05 -0.00010522095967055 -2.4157469049095e-05 -0.000371663495164156 -0.000126690584910381 -0.000258133615608341 -0.000290164016744374 -0.00027179563809818 -7.20694091460869e-05 2.83297604438989e-06 2.14120197494976e-05
"178" -0.000222644188677584 -4.24958857620596e-05 -7.86969003519202e-05 -0.000180139602871616 2.96112778790067e-05 3.2849226841103e-05 -0.000102937174226754 -2.39420513997204e-05 -0.000372831004668049 -0.000126065994418403 -0.00025705393273218 -0.000286354918324824 -0.000271831521194364 -7.13842175619295e-05 8.36376406724057e-06 2.55057214167679e-05
"179" -0.000214570379055781 -4.31689392462678e-05 -7.76251706207775e-05 -0.000179808843542131 3.00477853075946e-05 3.46517901591627e-05 -0.000100659828568015 -2.36785856636652e-05 -0.000373848401687952 -0.000125337204707687 -0.000255983460691373 -0.000282268117498666 -0.000271507031663804 -7.0672785955042e-05 1.39422567679598e-05 2.95338282632484e-05
"180" -0.000206437792842426 -4.3974854445531e-05 -7.63349675250015e-05 -0.000179165542876404 3.06672940937619e-05 3.64703742865051e-05 -9.83860779722654e-05 -2.33450869699003e-05 -0.000374729168305142 -0.000124487410328737 -0.000254941267789421 -0.000277910052720675 -0.000270836908749505 -6.99568644159926e-05 1.95396221172873e-05 3.34588397422736e-05
"181" -0.000198257700045627 -4.49032251774147e-05 -7.48083854357501e-05 -0.000178192298998766 3.14884983637612e-05 3.83109323378768e-05 -9.61132781180348e-05 -2.2920092338163e-05 -0.000375486278086752 -0.000123509520269749 -0.000253937674836518 -0.000273290144459978 -0.000269842511131563 -6.92537541813973e-05 2.51189388937181e-05 3.72428085519353e-05
"182" -0.000190037035371841 -4.59429432558776e-05 -7.30314915063694e-05 -0.000176874282342942 3.25291745993186e-05 4.01887048156453e-05 -9.38394658488135e-05 -2.23831802324507e-05 -0.000376127988201425 -0.000122385821615626 -0.000252991388442974 -0.000268414686159155 -0.000268550881714914 -6.8584980902293e-05 3.06413313005296e-05 4.08514815267309e-05
"183" -0.000181784101464216 -4.70796267797441e-05 -7.09902515254631e-05 -0.000175200170613694 3.38022675745449e-05 4.21115409590429e-05 -9.1559823568846e-05 -2.17093211541339e-05 -0.000376673273837133 -0.000121113121833923 -0.000252117483472745 -0.000263296634374949 -0.000266982278724011 -6.79675432549769e-05 3.60738504273546e-05 4.42496032547355e-05
"184" -0.000173503660487092 -4.8296966093731e-05 -6.86720449788192e-05 -0.0001731588204445 3.53241798888235e-05 4.40898365050126e-05 -8.92731978691611e-05 -2.08759972076634e-05 -0.00037713329100131 -0.00011967996587189 -0.000251327349881397 -0.000257945523188765 -0.000265165080857615 -6.74226544217308e-05 4.1376676680873e-05 4.74041921475185e-05
"185" -0.000165197586897217 -4.95838876354123e-05 -6.60734914437096e-05 -0.000170747404315422 3.7104442048109e-05 4.61323290988781e-05 -8.69720805772215e-05 -1.98713447347481e-05 -0.000377523515976619 -0.000118077330506706 -0.000250635417540589 -0.000252375103407103 -0.000263124903628619 -6.69708844458624e-05 4.65090843129746e-05 5.02825520363049e-05
"186" -0.000156876022310602 -5.09231514595151e-05 -6.3187349797693e-05 -0.000167959364517206 3.91579972157148e-05 4.8250328017614e-05 -8.46561245801762e-05 -1.86673545240513e-05 -0.000377859204309964 -0.000116305061253081 -0.000250054045248497 -0.000246602182212268 -0.000260888964925551 -6.66308114905595e-05 5.14390556497515e-05 5.28573900457295e-05
"187" -0.000148535401195456 -5.22983275283027e-05 -6.00139633274242e-05 -0.000164798083024185 4.14870293453236e-05 5.04527156042735e-05 -8.2318518382469e-05 -1.72521440661562e-05 -0.000378156270524248 -0.000114362855349403 -0.000249595156868825 -0.000240640008866896 -0.000258490047241114 -6.64247480410401e-05 5.61240489739763e-05 5.51014272184777e-05
"188" -0.000140179729211761 -5.36952214411702e-05 -5.65500390389472e-05 -0.000161264663494778 4.40990366353242e-05 5.27450698997843e-05 -7.99579446699333e-05 -1.56081797753329e-05 -0.000378428072618952 -0.000112248630750378 -0.000249270279041043 -0.000234508626671858 -0.000255952988575471 -6.63680451425046e-05 6.05308081334947e-05 5.69889386246735e-05
"189" -0.000131810604788476 -5.50956329845612e-05 -5.28039844928779e-05 -0.000157367240745359 4.69989327535441e-05 5.51354004414765e-05 -7.75728193923121e-05 -1.37221090814669e-05 -0.000378693176243795 -0.000109966083517547 -0.00024908763540645 -0.000228225899778199 -0.000253309558506581 -6.64809428824738e-05 6.46230887872509e-05 5.84966292716256e-05
"190" -0.000123430542969593 -5.64860307966135e-05 -4.87794076097798e-05 -0.000153114793262779 5.01837205155913e-05 5.76311462727757e-05 -7.51544769144402e-05 -1.15790580647549e-05 -0.000378964587414029 -0.000107518631327731 -0.000249054987225639 -0.000221812075032415 -0.000250589437583666 -6.6781427354856e-05 6.83649676441751e-05 5.96042677342882e-05
"191" -0.000115038023560192 -5.78525114549662e-05 -4.44919001016659e-05 -0.000148521508735015 5.36529486388801e-05 6.02369009588716e-05 -7.27045382084601e-05 -9.17572134945499e-06 -0.000379258273517401 -0.000104919683610386 -0.000249180746354679 -0.000215286526105318 -0.000247822104286429 -6.72844624111871e-05 7.17266855213974e-05 6.02946576177817e-05
"192" -0.000106639411899533 -5.91755794797487e-05 -3.99526133614252e-05 -0.000143602658757923 5.7397523961979e-05 6.29544823890214e-05 -7.02200238040734e-05 -6.50055647688881e-06 -0.00037958862885794 -0.000102172922331455 -0.000249471253792472 -0.000208674523849736 -0.000245038639638301 -6.80090281306497e-05 7.46741792667385e-05 6.05482207531118e-05
"193" -9.82303144780722e-05 -6.04442755922468e-05 -3.51801003486027e-05 -0.000138378310883654 6.14117504352457e-05 6.5787641089841e-05 -6.77014443146912e-05 -3.54848442001393e-06 -0.000379972386442157 -9.92950627434462e-05 -0.000249930808698507 -0.000201997722480291 -0.000242267531773314 -6.89662053336495e-05 7.71816237595665e-05 6.03556866042796e-05
"194" -8.9816828725561e-05 -6.16416191797721e-05 -3.01930406661262e-05 -0.000132873209901187 6.56810577626345e-05 6.87359261426938e-05 -6.51491779359608e-05 -3.19239592948706e-07 -0.000380420280840709 -9.62998578119644e-05 -0.000250562840973628 -0.000195281110905384 -0.000239538617752308 -7.01709128822186e-05 7.92197348062053e-05 5.97006393468149e-05
"195" -8.14018763226644e-05 -6.27563405633189e-05 -2.50143298674082e-05 -0.000127109594112619 7.01900350067437e-05 7.17966295193384e-05 -6.25602121513289e-05 3.18606948141475e-06 -0.00038094825580844 -9.32092058385307e-05 -0.000251368445575973 -0.000188547738892237 -0.000236879289094209 -7.16341120224994e-05 8.07692014431063e-05 5.85789538626705e-05
"196" -7.2986818987476e-05 -6.37792654093186e-05 -1.96711638679445e-05 -0.000121115454014843 7.49235366262831e-05 7.49700570077414e-05 -5.99386785132614e-05 6.96764039372248e-06 -0.000381567794841008 -9.00334132702703e-05 -0.000252347897178636 -0.000181824106209338 -0.000234315164416014 -7.33643216025508e-05 8.18024206254741e-05 5.69817082123875e-05
"197" -6.45759178906961e-05 -6.46910314636297e-05 -1.41910674666559e-05 -0.000114923708175347 7.98584805285357e-05 7.82489047752214e-05 -5.72906371792062e-05 1.10162898676813e-05 -0.000382287337160064 -8.68009527531348e-05 -0.000253501272139289 -0.000175137276659425 -0.000231874760697297 -7.53712748668412e-05 8.23080967308412e-05 5.49061569904084e-05
"198" -5.61762524903583e-05 -6.54889567378575e-05 -8.60396773544682e-06 -0.000108564099859463 8.49689018271297e-05 8.16288807544134e-05 -5.46149490110647e-05 1.53209626722457e-05 -0.000383122136931768 -8.35314482002593e-05 -0.000254826512844303 -0.000168510004217877 -0.00022957994510514 -7.76601995374797e-05 8.2267455577138e-05 5.23509288794677e-05
"199" -4.77950319326517e-05 -6.61601979449821e-05 -2.94231202425108e-06 -0.000102072850834605 9.02353394274332e-05 8.51011021196972e-05 -5.19185196540227e-05 1.9874813549499e-05 -0.000384076188265512 -8.02528869764788e-05 -0.00025631881321329 -0.00016197105107616 -0.000227456493041615 -8.0235058074502e-05 8.16706469319275e-05 4.93130121592213e-05
"200" -3.94401114462284e-05 -6.66952063781198e-05 2.75687232343522e-06 -9.54864842992307e-05 9.56204177289541e-05 8.86556904312746e-05 -4.92084374864201e-05 2.46645990976207e-05 -0.000385160444785534 -7.69888838329413e-05 -0.000257974918648323 -0.000155546981363795 -0.000225525185685529 -8.31004237487751e-05 8.05086340807699e-05 4.57988573623871e-05
"201" -3.11222277773389e-05 -6.70906476168693e-05 8.46030124829521e-06 -8.88389785364445e-05 0.000101098700306746 9.22834049933481e-05 -4.64910284694102e-05 2.96650457191259e-05 -0.000386382628522749 -7.37719499266256e-05 -0.000259787282930478 -0.000149262768378312 -0.000223803107285427 -8.6254753996195e-05 7.87741619716783e-05 4.1814058840032e-05
"202" -2.28492526507434e-05 -6.73380807282864e-05 1.41300969751606e-05 -8.21727253745349e-05 0.000106638213224176 9.59682610006239e-05 -4.37729008494624e-05 3.48661490849497e-05 -0.000387746613270333 -7.06238549314644e-05 -0.000261753307729948 -0.000143145432419309 -0.000222315360686031 -8.969605178147e-05 7.64669340489388e-05 3.73623737672109e-05
"203" -1.46341874047721e-05 -6.74364391612755e-05 1.9728300741524e-05 -7.55233858542581e-05 0.000112198108714994 9.96975220859303e-05 -4.10661133979685e-05 4.0238065425849e-05 -0.000389257725953819 -6.75829529183811e-05 -0.000263861284932015 -0.000137218694598916 -0.000221073432495362 -9.34226729534677e-05 7.35874288497392e-05 3.24554884693114e-05
"204" -6.49449762343709e-06 -6.73766818047577e-05 2.52176091397203e-05 -6.89330665925729e-05 0.000117746581249089 0.000103454919517728 -3.83785977932799e-05 4.57642150725426e-05 -0.000390920881520682 -6.46718124522615e-05 -0.000266102803824747 -0.000131506654177805 -0.000220092574343526 -9.7427707134949e-05 7.01444083125884e-05 2.71063836948515e-05
"205" 1.55967932884679e-06 -6.71618550788728e-05 3.05603639323826e-05 -6.24386333466351e-05 0.000123245575009012 0.000107225120219086 -3.57191402253318e-05 5.14146658852861e-05 -0.000392735841707279 -6.19288979637818e-05 -0.000268471637949417 -0.000126035904375591 -0.000219389023281326 -0.000101705591781551 6.61387245247018e-05 2.13256705123691e-05
"206" 9.50609385755511e-06 -6.67898660130433e-05 3.57182435023727e-05 -5.60791838591972e-05 0.000128657459036437 0.000110988279664022 -3.31042381510768e-05 5.71609319462347e-05 -0.00039470583542418 -5.93798029400608e-05 -0.00027095438508446 -0.000120825175824407 -0.000218968872283172 -0.000106245467605183 6.15889173641196e-05 1.51292732813203e-05
"207" 1.73316191989465e-05 -6.62619032366537e-05 4.06544771630813e-05 -4.989568507166e-05 0.000133942919509344 0.000114725426465471 -3.05424027657611e-05 6.29780948078487e-05 -0.00039683245655517 -5.70579350806353e-05 -0.000273541876706678 -0.000115899037308623 -0.000218842784725912 -0.000111038375016866 5.65057041994259e-05 8.53459380279431e-06
"208" 2.50128221386573e-05 -6.5576476700117e-05 4.53316611359922e-05 -4.39219943233783e-05 0.000139061427620618 0.000118416030828257 -2.80451630478196e-05 6.88289024369368e-05 -0.000399113798245005 -5.49925161952499e-05 -0.000276225215173751 -0.000111275899941947 -0.00021901990389995 -0.000116072337952442 5.09072205380582e-05 1.56139529137897e-06
"209" 3.25329173819435e-05 -6.47410888248379e-05 4.97178247782892e-05 -3.81944615976114e-05 0.000143978462840279 0.000122041297601128 -2.56299068681926e-05 7.46872021627375e-05 -0.000401549276761126 -5.32181478104497e-05 -0.000278992626508445 -0.000106974049505689 -0.000219501881484739 -0.000121331850310838 4.48109981147297e-05 -5.76976265692402e-06
"210" 3.98671241039566e-05 -6.37558296838795e-05 5.37811012654029e-05 -3.27481711183889e-05 0.000148652897325719 0.000125578868118131 -2.33054298946205e-05 8.05214446272697e-05 -0.000404138705610133 -5.17605175415915e-05 -0.000281834176602963 -0.000103012478650535 -0.000220292776495372 -0.000126802105641859 3.82427008714636e-05 -1.3436582107481e-05
"211" 4.69993251739169e-05 -6.26307128168051e-05 5.74851120184518e-05 -2.7614219232084e-05 0.00015304928435531 0.000129009000581295 -2.10850939831436e-05 8.62943153918419e-05 -0.00040687815044238 -5.06463842977878e-05 -0.000284735735435161 -9.94031211819011e-05 -0.000221395082865787 -0.000132470269972892 3.12272598506218e-05 -2.14141689928165e-05
"212" 5.39039272978497e-05 -6.13650211413231e-05 6.0811857761778e-05 -2.28211396023528e-05 0.000157136547955595 0.000132309801140448 -1.89860133088386e-05 9.19754737668828e-05 -0.000409767092522176 -4.99056451608141e-05 -0.000287693587573263 -9.61591643019024e-05 -0.000222804580099554 -0.00013831296299502 2.37930933937404e-05 -2.96758192525414e-05
"213" 6.0559226142921e-05 -5.99694745754957e-05 6.37287132790912e-05 -1.83982235830837e-05 0.000160881750679844 0.000135461802466546 -1.70179870508642e-05 9.75336532275066e-05 -0.000412804364448641 -4.95616162115437e-05 -0.000290690552766618 -9.32938159682873e-05 -0.000224519537178621 -0.00014431877817123 1.59677719355522e-05 -3.8194589256203e-05
"214" 6.69457664887364e-05 -5.84508274423528e-05 6.62192666489686e-05 -1.43677227875772e-05 0.00016425137326335 0.000138441932931027 -1.51925538504396e-05 0.000102937688450091 -0.000415984837283371 -4.96403925571665e-05 -0.000293724100188133 -9.08111496342535e-05 -0.000226532907508517 -0.000150465365906897 7.78668097759872e-06 -4.69393688123795e-05
"215" 7.30389475696396e-05 -5.68149208322019e-05 6.82656521854502e-05 -1.07492308150651e-05 0.000167224150901582 0.000141237621047444 -1.35231422062473e-05 0.000108154230538171 -0.000419306759245467 -5.01590030323781e-05 -0.000296781526919195 -8.87204584491653e-05 -0.000228839696590499 -0.000156733551592369 -7.19829825119813e-07 -5.58801722050711e-05
"216" 7.88182158674176e-05 -5.50728101405875e-05 6.98491667706264e-05 -7.56227079390763e-06 0.000169770612327458 0.000143823500085872 -1.20208362266362e-05 0.000113153936787077 -0.000422769748795515 -5.11388421358693e-05 -0.000299857268341038 -8.70223746836984e-05 -0.000231431407510055 -0.000163103479081106 -9.51159729358136e-06 -6.49843531492643e-05
"217" 8.42654097970713e-05 -5.32318699865917e-05 7.09656973672431e-05 -4.82040433308535e-06 0.000171876856316204 0.000146188277665492 -1.06924851735345e-05 0.000117911436748047 -0.00042637412203651 -5.259605249155e-05 -0.000302943356094885 -8.57215705607434e-05 -0.000234296298723225 -0.000169559080466875 -1.85582724031036e-05 -7.42170732559704e-05
"218" 8.93633910076931e-05 -5.12968645211287e-05 7.1606503024332e-05 -2.53375119294749e-06 0.000173526445020687 0.000148314828216253 -9.55124937920485e-06 0.000122401654337883 -0.000430116583248474 -5.45475713134458e-05 -0.000306034330883429 -8.48110389339646e-05 -0.000237421792409924 -0.000176076275306285 -2.78169168099526e-05 -8.35422056964913e-05
"219" 9.40919928181465e-05 -4.92821338305281e-05 7.17690070260623e-05 -7.07970779471142e-07 0.000174704460196269 0.000150188461798371 -8.60008550022843e-06 0.000126597507911867 -0.000433998833671499 -5.69991213114174e-05 -0.000309125642744892 -8.42896520495857e-05 -0.000240794521436207 -0.000182637042547046 -3.72481928272663e-05 -9.29248052924076e-05
"220" 9.84395086516431e-05 -4.71912778395467e-05 7.14607866659054e-05 6.54829133987808e-07 0.000175407162674891 0.000151802006305107 -7.84886068581441e-06 0.000130478239004558 -0.000438022481340093 -5.99610668873345e-05 -0.000312213648429255 -8.41496109398951e-05 -0.00024439925670996 -0.000189225232485626 -4.68159071560687e-05 -0.000102324073867118
"221" 0.000102393372590381 -4.50348186475839e-05 7.06859318869458e-05 1.55474122022099e-06 0.000175633352545956 0.000153144363836941 -7.29970342815291e-06 0.000134028242254166 -0.000442189367796611 -6.3439266351703e-05 -0.000315294352701303 -8.43802235818292e-05 -0.000248217534153051 -0.000195816939424921 -5.64736841583374e-05 -0.000111701276539663
"222" 0.000105943255669886 -4.28181154325682e-05 6.94545685497695e-05 1.99676274783006e-06 0.000175385128767741 0.000154207941863494 -6.95753039446778e-06 0.000137233486280667 -0.000446500682614757 -6.74340665386239e-05 -0.000318367434435627 -8.49684610912972e-05 -0.000252232753196576 -0.000202398584409394 -6.61826161735419e-05 -0.000121016225712804
"223" 0.000109081521495902 -4.05494855100469e-05 6.77894598222912e-05 1.99031009462158e-06 0.000174671062005667 0.000154991627519325 -6.81777995305294e-06 0.000140077319070751 -0.000450964059174974 -7.19442378041571e-05 -0.000321432856723997 -8.5897963390098e-05 -0.000256422895777106 -0.000208951792804061 -7.59008690256825e-05 -0.000130224992478579
"224" 0.000111805628486875 -3.82349114176484e-05 6.57035345786734e-05 1.54780559097403e-06 0.000173506454391807 0.000155492058037531 -6.88576502440815e-06 0.000142556511620929 -0.000455579839563179 -7.69643134104007e-05 -0.000324489418792866 -8.71529164184522e-05 -0.000260770544322669 -0.000215458062806933 -8.5584745619206e-05 -0.000139287210728714
"225" 0.000114116200381618 -3.58759181377956e-05 6.32268359767497e-05 6.85737221491436e-07 0.000171910495723834 0.000155712217402317 -7.15348471412278e-06 0.000144664295375912 -0.000460359474402177 -8.24847347077483e-05 -0.000327539240459432 -8.87110635975386e-05 -0.000265249824769548 -0.000221904903412763 -9.51957966956943e-05 -0.000148158648627926
"226" 0.000116012925483153 -3.34802723611431e-05 6.03886969940765e-05 -5.76318987064385e-07 0.000169907679038307 0.000155655890511332 -7.62025768039617e-06 0.000146398111886684 -0.000465305832795274 -8.84953231788799e-05 -0.000330582012451782 -9.05488675352145e-05 -0.000269843395721925 -0.000228275600467305 -0.000104685116010124 -0.000156797127209543
"227" 0.00011750618991367 -3.10460257759303e-05 5.72185565960221e-05 -2.21363191762848e-06 0.00016752311797348 0.000155333464959309 -8.27320747337049e-06 0.000147766252021106 -0.00047042892314868 -9.49778601203634e-05 -0.000333626859673351 -9.26419603898701e-05 -0.000274521559839002 -0.000234559007133906 -0.000114016530861524 -0.000165158076397831
"228" 0.000118604948527519 -2.85768771563589e-05 5.37546551444862e-05 -4.20122466717301e-06 0.00016479808360169 0.000154751139617874 -9.10587353577291e-06 0.000148769333372528 -0.000475736883655285 -0.000101915504222057 -0.0003366692688484 -9.49650133063352e-05 -0.000279265420149984 -0.000240741531765434 -0.000123145908138869 -0.000173197449602274
"229" 0.000119327582764717 -2.60760799616031e-05 5.00364966828598e-05 -6.50772726601639e-06 0.000161768030355592 0.000153926087548667 -1.01095767545219e-05 0.000149418432421397 -0.000481236220630059 -0.000109282580552508 -0.000339719512576844 -9.74855358962267e-05 -0.000284048561375924 -0.000246811938380936 -0.00013203590911983 -0.000180875350062884
"230" 0.000119687300129971 -2.35354433216491e-05 4.6105450051754e-05 -9.10426328159724e-06 0.000158471679638375 0.000152874787765385 -1.12666336158795e-05 0.000149732292328163 -0.000486938450613196 -0.000117055324616589 -0.000342779570146243 -0.000100175435490967 -0.000288846766111873 -0.000252762906749415 -0.00014064031745761 -0.000188146519113781
"231" 0.000119711336435037 -2.09556706928743e-05 4.20103697913384e-05 -1.19531958334494e-05 0.000154966944726047 0.000151612904256861 -1.25622414589572e-05 0.00014972906225471 -0.000492852751945634 -0.000125200685782782 -0.000345850763783399 -0.000103001509218717 -0.000293634417624713 -0.000258583641920918 -0.000148924703626699 -0.000194971379975284
"232" 0.000119424306890913 -1.83329914706596e-05 3.77921200291458e-05 -1.50199921011044e-05 0.000151294987311846 0.000150165875354063 -1.39819593207389e-05 0.000149425502347916 -0.000498987337174501 -0.000133689185831059 -0.000348940569570139 -0.000105930616781599 -0.000298388169323547 -0.000264266850199394 -0.00015684705867803 -0.000201312674926132
"233" 0.000118856025996286 -1.56589762965889e-05 3.35002432589436e-05 -1.82650295476677e-05 0.000147512605890554 0.000148557244806835 -1.55017066227811e-05 0.000148850516702453 -0.000505350198477527 -0.00014248622337832 -0.000352050336394785 -0.000108927254751665 -0.000303081129081614 -0.000269804948008224 -0.000164373299293657 -0.000207128459367226
"234" 0.000118043774257984 -1.29284190470256e-05 2.91885268086653e-05 -2.16494836777582e-05 0.000143680145314673 0.000146812847204482 -1.71022464737384e-05 0.000148029218520808 -0.000511949133479896 -0.000151547784203329 -0.000355184385654946 -0.000111960086348277 -0.000307688158661933 -0.000275194872561877 -0.000171467206124498 -0.000212385694725293
"235" 0.000117021324465632 -1.01303228653384e-05 2.49045236798245e-05 -2.51329732614902e-05 0.000139848812181676 0.000144962650618406 -1.87647047365648e-05 0.00014699347797058 -0.000518789847375798 -0.000160838508268544 -0.000358343155742758 -0.000114991010267824 -0.000312188363629964 -0.000280429563904123 -0.000178089070126637 -0.000217049757684332
"236" 0.000115831079692178 -7.25642954492945e-06 2.06972327547668e-05 -2.86743600873178e-05 0.000136085147193925 0.000143037679604201 -2.04602776398826e-05 0.000145780670327368 -0.000525875885820793 -0.000170307353071829 -0.000361528383725935 -0.000117985124068275 -0.000316557002635509 -0.000285507016275637 -0.000184214807525548 -0.000221092793011577
"237" 0.000114517944318336 -4.29464877523057e-06 1.66196474515753e-05 -3.22312883199684e-05 0.000132450336859866 0.000141068108865997 -2.21692380807738e-05 0.000144420423547488 -0.000533211057798767 -0.000179911901452838 -0.000364741104444671 -0.000120909421422078 -0.000320770635342374 -0.000290421147635596 -0.000189803855567323 -0.000224483417020762
"238" 0.000113124079874659 -1.23518702839606e-06 1.27194950836334e-05 -3.5761879132162e-05 0.000128998800273387 0.000139089916298479 -2.38611117433241e-05 0.000142953234393081 -0.000540795874127107 -0.00018960384301525 -0.000367975508687911 -0.000123727235732608 -0.000324804682093861 -0.000295171542270723 -0.00019483061167213 -0.000227201274753012
"239" 0.000111705137776446 1.93771588339089e-06 9.04798715512545e-06 -3.92246968210077e-05 0.000125796759353067 0.000137135155674059 -2.55092361796818e-05 0.00014142184705279 -0.000548625897498089 -0.000199329309744713 -0.000371232653691768 -0.000126406215010467 -0.000328640723771881 -0.000299751839309197 -0.000199268779825712 -0.000229224568310766
"240" 0.000110303840323417 5.2365364018986e-06 5.64612590364598e-06 -4.25791523482044e-05 0.000122900023430561 0.000135240266763281 -2.70907707715688e-05 0.000139861003111473 -0.000556695192398676 -0.000209038534271299 -0.000374503874869253 -0.000128911791796507 -0.000332256516395318 -0.000304161147061729 -0.000203087139795288 -0.000230534435485831
"241" 0.000108973174345093 8.6726429564275e-06 2.56118919978767e-06 -4.57858237294349e-05 0.00012037020720955 0.000133437714391333 -2.85758585812294e-05 0.000138314614541616 -0.000564994012476208 -0.000218677381411275 -0.00037778373008848 -0.000131212756307726 -0.000335633680882921 -0.000308394509637048 -0.000206264491678568 -0.000231122231469126
"242" 0.000107770525307232 1.22630658442672e-05 -1.65462366531334e-07 -4.8808081711846e-05 0.000118259742771559 0.00013176372155778 -2.99400774551842e-05 0.000136821806863324 -0.00057351107094998 -0.000228191963177757 -0.000381061695687315 -0.000133280995040884 -0.000338751665914993 -0.000312452270963123 -0.000208778672572996 -0.000230980828957667
"243" 0.000106742734925122 1.60196639958656e-05 -2.49474348166284e-06 -5.16081332226736e-05 0.000116620503616461 0.00013025461009677 -3.11520092401604e-05 0.000135425898203949 -0.000582225547492859 -0.000237524360123217 -0.000384325294098378 -0.000135087371475265 -0.000341596045667691 -0.000316326606543821 -0.000210610917247201 -0.000230105668641341
"244" 0.000105943293942601 1.99562379261875e-05 -4.39420780111207e-06 -5.4153230523586e-05 0.000115498694379939 0.000128939439426789 -3.21885857724471e-05 0.000134161424242789 -0.000591117024148388 -0.000246619553709387 -0.000387558798817798 -0.000136605467275745 -0.000344149070513312 -0.000320015676367302 -0.000211745843644282 -0.000228497860756748
"245" 0.00010542556531422 2.40836345033042e-05 -5.83261152327647e-06 -5.64118099066529e-05 0.000114936840565553 0.000127851753851789 -3.30216192760787e-05 0.000133072969486315 -0.000600156799708454 -0.000255422971822919 -0.000390747589498305 -0.000137813910113732 -0.000346397213144792 -0.000323509285197904 -0.000212165063116657 -0.000226169518421046
"246" 0.000105240252910785 2.84146848693155e-05 -6.78624575378533e-06 -5.83529917330283e-05 0.000114974975463017 0.00012702261487753 -3.36313886449595e-05 0.000132194608726543 -0.000609313486202566 -0.000263880769706479 -0.000393872010384381 -0.00013868846967271 -0.000348327964743666 -0.000326808702093243 -0.000211859038493698 -0.000223131275122251
"247" 0.000105430537236367 3.2958288012365e-05 -7.22946152510787e-06 -5.9951603203852e-05 0.000115645528233028 0.000126477077855275 -3.39910137618344e-05 0.000131561461646249 -0.000618548850310952 -0.000271932260834564 -0.000396904864644167 -0.00013921265816493 -0.000349928129815209 -0.000329900437217791 -0.000210818328320603 -0.000219400317262535
"248" 0.00010604806024518 3.77257563595622e-05 -7.1498176914103e-06 -6.11855415121447e-05 0.000116972150689408 0.000126242492527281 -3.4082478654975e-05 0.000131205574882357 -0.000627821574711111 -0.000279524697213388 -0.000399827861167576 -0.000139370416436225 -0.000351188836865374 -0.00033277988263367 -0.000209039452532217 -0.000215001965775104
"249" 0.000107128887723366 4.27176801886131e-05 -6.53246957733101e-06 -6.20353938369629e-05 0.000118975649614333 0.000126339863804146 -3.38851324525412e-05 0.000131153046089735 -0.000637081709095292 -0.000286608216285945 -0.00040260951199753 -0.000139150314001361 -0.000352100830411764 -0.000335431568032063 -0.000206516810042737 -0.000209962694498201
"250" 0.000108718862969225 4.79434517699406e-05 -5.37333960041115e-06 -6.248413303138e-05 0.000121664797527278 0.000126789894613541 -3.33823142945191e-05 0.000131435887195337 -0.000646275364976683 -0.0002931280495974 -0.000405219840761486 -0.000138542080708289 -0.000352654776312229 -0.000337850098715342 -0.000203248480850765 -0.000204317423484681
"251" 0.000110847814423748 5.33998140717003e-05 -3.67157628391316e-06 -6.25194120174225e-05 0.000125048068093695 0.000127606916930861 -3.25604464946611e-05 0.000132071735293557 -0.000655342123537412 -0.000299039305654927 -0.000407625860063557 -0.000137537390833427 -0.000352847612402444 -0.000340016957500622 -0.000199242573090066 -0.000198106509248559
"252" 0.000113548094633573 5.9087704401527e-05 -1.43370063198147e-06 -6.21310785413329e-05 0.000129119372098117 0.000128802832429766 -3.14055743966797e-05 0.000133078149399804 -0.000664219982385921 -0.000304286172402943 -0.000409793503316231 -0.000136133799182792 -0.000352674329772731 -0.000341922417013354 -0.00019450237708339 -0.000191373763601496
"253" 0.000116843578763656 6.50010622809898e-05 1.33203335071039e-06 -6.13175300528844e-05 0.000133867372327592 0.000130384356399314 -2.99070416246372e-05 0.000134465408339082 -0.000672836125895193 -0.000308828809346433 -0.000411688515444095 -0.000134330316239229 -0.000352130643803892 -0.000343542948690003 -0.000189038660371664 -0.000184164823772702
"254" 0.000120754405057462 7.11335018242111e-05 4.60837093550929e-06 -6.00738765787326e-05 0.00013927315603461 0.000132358372052898 -2.80639109851007e-05 0.000136247143956756 -0.000681118516702694 -0.00031262659747035 -0.000413267940231097 -0.00013213262879926 -0.000351215930202255 -0.000344866636755501 -0.000182862844125319 -0.000176536720541086
"255" 0.000125294419595104 7.74722643820525e-05 8.37254124536786e-06 -5.84051147990601e-05 0.000145304698825022 0.000134721446647872 -2.58676725124005e-05 0.000138425902274452 -0.000688983760161624 -0.00031563421835352 -0.000414496677086964 -0.000129541935510076 -0.000349929413361797 -0.000345869452273179 -0.00017599630562438 -0.000168541610547957
"256" 0.000130474446346932 8.40020711519794e-05 1.25974050242409e-05 -5.63166579972806e-05 0.00015193197832089 0.000137470449125451 -2.3320077354802e-05 0.000140997694754247 -0.000696351178848515 -0.000317820996479902 -0.000415328449919063 -0.000126572561820563 -0.000348272558550784 -0.000346531985988612 -0.000168453795752571 -0.000160244216928089
"257" 0.000136291342116573 9.06996644872915e-05 1.72553311645072e-05 -5.38164674290562e-05 0.000159103350676119 0.000140593120020685 -2.04218412669245e-05 0.000143957193025062 -0.000703131875979798 -0.000319151858358967 -0.000415723137579414 -0.000123232004534558 -0.000346246167867707 -0.000346833705735764 -0.000160262261241055 -0.000151704727941641
"258" 0.000142742295679303 9.75479447868689e-05 2.2302910817797e-05 -5.09214656059073e-05 0.000166773813891506 0.000144079203265862 -1.718380892736e-05 0.000147288936157378 -0.000709235692933185 -0.000319597536904427 -0.000415638218446122 -0.000119538000238953 -0.000343855986130196 -0.000346743646095968 -0.0001514477689937 -0.000142992239327662
"259" 0.000149816069449626 0.000104515629704788 2.77005190955691e-05 -4.76447898745351e-05 0.000174874598190031 0.000147904257747414 -1.36109581510036e-05 0.000150981624045134 -0.000714568977574588 -0.000319136647696787 -0.000415031202312187 -0.00011550598168012 -0.0003411038890121 -0.000346245956400817 -0.000142039729506258 -0.000134172372037644
"260" 0.000157492161797768 0.000111574345602755 3.34062496745173e-05 -4.40081683997952e-05 0.000183343270304225 0.000152050624381913 -9.71678321097432e-06 0.000155008168075726 -0.000719036107130699 -0.000317745109451608 -0.00041385951346059 -0.000111156484362033 -0.000337997799647704 -0.000345306411806153 -0.000132074908795413 -0.000125317907059729
"261" 0.000165745479978277 0.000118684291837879 3.93653274044247e-05 -4.00355470893614e-05 0.000192104033258623 0.000156488042159533 -5.51758626647493e-06 0.000159339272756002 -0.000722540679707116 -0.00031540753203994 -0.000412079063876064 -0.000106511562152596 -0.000334541285163646 -0.000343902007658029 -0.000121588656990762 -0.000116499524822603
"262" 0.000174544449872496 0.000125808970126801 4.55253691485892e-05 -3.57507169465295e-05 0.000201075120504124 0.00016118375364316 -1.03235834620947e-06 0.000163946915662945 -0.000724982539276342 -0.000312115261695856 -0.000409649305785567 -0.000101594751809952 -0.000330743646579034 -0.00034199940016326 -0.000110619940614328 -0.00010778553812017
"263" 0.000183849359982814 0.000132906262808489 5.18303589862966e-05 -3.11823040567612e-05 0.000210170765292173 0.000166104573550937 3.71720789973924e-06 0.000168786269885372 -0.000726265783838314 -0.000307857497464563 -0.000406530400075175 -9.64315905662078e-05 -0.000326615690898377 -0.000339580009366324 -9.92172529759434e-05 -9.92528759632656e-05
"264" 0.000193616115599405 0.000139928911888023 5.82243775924302e-05 -2.63620210669236e-05 0.000219296748155535 0.00017120763418431 8.70557749545873e-06 0.000173820837389998 -0.000726294369494778 -0.000302632263463727 -0.000402688050867105 -9.10536651723209e-05 -0.000322162917205216 -0.000336610997016142 -8.7422541009035e-05 -9.09690721101191e-05
"265" 0.000203792490852854 0.000146828311899364 6.4641239247676e-05 -2.13206419027965e-05 0.000228355747738116 0.000176451343752634 1.39053520417808e-05 0.000179003710889778 -0.000724973018911107 -0.000296443759666856 -0.000398084315014249 -8.54872092898859e-05 -0.000317395776748968 -0.000333064388733876 -7.52900838511664e-05 -8.30059936787733e-05
"266" 0.000214322051669422 0.000153550002735342 7.10220508129197e-05 -1.60906229615376e-05 0.000237249754258271 0.000181791000524425 1.92915147352297e-05 0.000184282526394632 -0.000722212006590381 -0.000289301183961901 -0.000392686967841123 -7.97618678378183e-05 -0.000312328099006975 -0.000328915250621119 -6.28681721242447e-05 -7.54280647393047e-05
"267" 0.000225144657433405 0.000160043976660836 7.73064983161096e-05 -1.07104562008997e-05 0.000245875035311716 0.000187173441148694 2.48267115746189e-05 0.000189600383367736 -0.000717919466263559 -0.000281214866247084 -0.000386467935759178 -7.39101927161137e-05 -0.000306968679577455 -0.000324139050954981 -5.02143975560455e-05 -6.83020710947267e-05
"268" 0.000236190653964331 0.00016624891345667 8.34243934069674e-05 -5.21129899880612e-06 0.000254127039676193 0.000192550865031113 3.04804572629637e-05 0.000194906902654378 -0.000712014085127578 -0.000272201842905223 -0.000379401463511125 -6.79654655960936e-05 -0.000301329391768606 -0.000318711089437588 -3.7389127574212e-05 -6.16911365654323e-05
"269" 0.000247386770062612 0.000172107383993547 8.93170516523759e-05 3.66823495986183e-07 0.000261896802158785 0.000197868496082522 3.62150068751177e-05 0.000200137737523069 -0.000704415953725094 -0.000262286143009046 -0.00037146577376933 -6.19593076736888e-05 -0.000295424988109785 -0.000312608317424789 -2.44478791194962e-05 -5.56520835858122e-05
"270" 0.000258665436448375 0.000177561772712852 9.4921838328438e-05 5.9906563325444e-06 0.000269081895880299 0.000203073044254212 4.19917393030771e-05 0.000205232701490387 -0.000695058076469302 -0.000251496878696097 -0.000362648810870127 -5.59243315796056e-05 -0.000289270406701985 -0.000305815245549104 -1.14566058370145e-05 -5.02400181295077e-05
"271" 0.000269944461836864 0.000182554754326694 0.000100180394531016 1.16220867761919e-05 0.000275577225890055 0.000208106522809187 4.77778199788867e-05 0.000210131020002977 -0.000683870282033698 -0.00023986560413017 -0.000352936855244049 -4.9893273177221e-05 -0.000282874355127478 -0.000298307952102901 1.52694603617262e-06 -4.55030417992496e-05
"272" 0.000281142714600199 0.000187021671013184 0.000105033306835474 1.72270287860396e-05 0.000281277329871195 0.000212914581666298 5.35305800040763e-05 0.000214767082292215 -0.0006707971645563 -0.000227425819011335 -0.000342320324155725 -4.38977045183072e-05 -0.000276256646412626 -0.000290076485971385 1.44334831260122e-05 -4.14853709665498e-05
"273" 0.000292185056016792 0.000190907299396597 0.000109424558390766 2.2770181327876e-05 0.000286083056979132 0.000217440544452706 5.92105555048125e-05 0.000219074690347439 -0.000655793951775182 -0.000214223905159865 -0.000330807270457137 -3.79687296745758e-05 -0.00026943050863627 -0.000281111437194642 2.71988554893421e-05 -3.82242033094003e-05
"274" 0.000302981025887466 0.000194151966314396 0.00011330087764222 2.82188245815953e-05 0.0002899030588508 0.000221628395150724 6.47788635506066e-05 0.000222996164318086 -0.000638823654960637 -0.000200304698973602 -0.000318399314247337 -3.21387959240938e-05 -0.000262411619788578 -0.000271402870975614 3.97562932502648e-05 -3.57543569640583e-05
"275" 0.000313458254802399 0.000196706524727884 0.000116614437170539 3.35412532347694e-05 0.000292645110033839 0.000225425644832571 7.01949054730714e-05 0.000226466544487311 -0.000619856980730534 -0.000185719555127341 -0.000305108298928617 -2.64374647104549e-05 -0.000255220548017667 -0.000260952272005029 5.20377095914942e-05 -3.41015455893782e-05
"276" 0.000323529229594363 0.000198510486619434 0.000119323548076249 3.87120818385376e-05 0.000294224894095337 0.000228779964361067 7.54211148695791e-05 0.000229427598378231 -0.000598877687100845 -0.000170523301903501 -0.000290953934047041 -2.08907582926055e-05 -0.00024786722231622 -0.00024975646074805 6.39793668953302e-05 -3.32810233322491e-05
"277" 0.000333118804796347 0.000199520941576673 0.000121383479730015 4.36985888744056e-05 0.000294565076050838 0.000231640255807289 8.04199088772303e-05 0.000231816994494588 -0.000575883634150793 -0.000154773296556199 -0.000275961070125349 -1.55290592006776e-05 -0.000240376850705751 -0.000237825300949558 7.55110777689463e-05 -3.33099445508101e-05
"278" 0.000342147482381304 0.000199690110325764 0.000122767186160466 4.84789156100333e-05 0.000293597126986555 0.000233960924537179 8.51502161052216e-05 0.000233582825542103 -0.00055088520255764 -0.000138531446791829 -0.000260163748478665 -1.03747899196661e-05 -0.000232763572892375 -0.000225170187457689 8.65725926940819e-05 -3.4193816841171e-05
"279" 0.000350547137276661 0.000198977178625433 0.000123439907781752 5.30322178063072e-05 0.000291262765846674 0.000235697757134449 8.9582044992754e-05 0.000234677276382802 -0.000523899926168213 -0.000121861080816288 -0.000243597694090572 -5.4534101977559e-06 -0.000225046693940953 -0.000211805220446055 9.70982630305354e-05 -3.59275636066705e-05
"280" 0.000358246771488277 0.000197347789577439 0.00012338078631356 5.73367658610557e-05 0.000287512706056024 0.000236811014904539 9.36776182662919e-05 0.00023504633888368 -0.000494966528822447 -0.000104835486737854 -0.000226313238837329 -7.87867644363965e-07 -0.000217248172722063 -0.000197755587796713 0.000107024634923186 -3.8507797448007e-05
"281" 0.000365182236406988 0.000194771145205934 0.00012256942329674 6.13795150648034e-05 0.000282303009835651 0.000237264544684402 9.74043634716708e-05 0.000234653989726866 -0.000464128240528983 -8.75212185265086e-05 -0.000208354415428896 3.60431047245199e-06 -0.000209388240068644 -0.000183046485486312 0.000116293135561679 -4.19181735115973e-05
"282" 0.000371295878203196 0.000191225773685281 0.000120998043222793 6.51448579647076e-05 0.000275605864775838 0.000237027662025322 0.000100736127321753 0.000233458445696794 -0.00043145172248257 -6.99932181026246e-05 -0.000189782883466592 7.70418691491007e-06 -0.00020149001114631 -0.000167710977303411 0.000124844148117216 -4.61375622607466e-05
"283" 0.000376535443430003 0.000186693538244171 0.000118662170557509 6.86267485242805e-05 0.000267406513799996 0.000236072503832326 0.000103643497928984 0.000231429425708566 -0.000397007474438196 -5.23220716345522e-05 -0.000170663237536332 1.14972594614945e-05 -0.000193573217126066 -0.000151788941906473 0.000132625902085923 -5.11423794387975e-05
"284" 0.000380857574781769 0.000181165074730376 0.000115557618269811 7.18159843337528e-05 0.000257691331604485 0.000234381636706188 0.000106103042846127 0.000228545461294896 -0.00036088828679954 -3.4585166819206e-05 -0.000151062310370341 1.49677001748659e-05 -0.000185659254872411 -0.000135324168373384 0.000139589428868115 -5.68960296519696e-05
"285" 0.000384222430057307 0.000174635667351236 0.000111693512294398 7.4711688658709e-05 0.00024646964240081 0.000231938004186826 0.000108092520790227 0.000224786176508869 -0.000323192738209508 -1.68577828918574e-05 -0.000131056835718604 1.81064570727182e-05 -0.000177776903628516 -0.000118364056744888 0.000145679701259962 -6.33600012252689e-05
"286" 0.000386601440998125 0.000167112456863177 0.000107087196302906 7.73143639389415e-05 0.000233755562482404 0.000228731512085946 0.00010959320434188 0.000220137275542244 -0.000284037065969368 7.8428213824293e-07 -0.00011072638088619 2.0905762577563e-05 -0.000169947539424553 -0.000100965546555463 0.00015086090315643 -7.04938617516178e-05
"287" 0.000387970785189777 0.000158606203305556 0.00010175250182565 7.96262920278196e-05 0.000219579529755963 0.000224758947853016 0.000110590151232264 0.000214595740785598 -0.00024354538787754 1.82656861642262e-05 -9.01517978170158e-05 2.33567872058473e-05 -0.00016219474937245 -8.31876992593963e-05 0.000155095054958959 -7.82478015069911e-05
"288" 0.000388315535030611 0.000149134712573928 9.57162679508958e-05 8.16567991098032e-05 0.000203975072229967 0.000220024050948346 0.000111072665101794 0.000208162011224034 -0.0002018604645769 3.55115516018441e-05 -6.94222963087934e-05 2.54588030188554e-05 -0.000154546469930371 -6.50928491279053e-05 0.000158343152061509 -8.65708465381952e-05
"289" 0.000387632424458301 0.000138727778590184 8.90046061534052e-05 8.34134628439651e-05 0.000186998614812595 0.000214534644657797 0.000111034720007368 0.000200847401352714 -0.000159128119376645 5.24514200901113e-05 -4.86251149360763e-05 2.72074098744567e-05 -0.000147026945863496 -4.67511472672349e-05 0.000160583171905679 -9.54071091092737e-05
"290" 0.000385922384434772 0.000127419944839753 8.16574750919794e-05 8.49104793555595e-05 0.000168708140574518 0.000208305520762299 0.000110465137913002 0.000192665681315705 -0.000115508258249602 6.90089215926434e-05 -2.78565724638069e-05 2.86048780776996e-05 -0.000139661880707767 -2.8234428916186e-05 0.000161791376328533 -0.000104698814915258
"291" 0.000383194679448676 0.000115252024116786 7.37109081995576e-05 8.61615122176138e-05 0.000149176522777441 0.000201355078319874 0.000109369748661452 0.000183641777611679 -7.11704692897213e-05 8.51222286922808e-05 -7.20432283913198e-06 2.96540450330567e-05 -0.000132477004347507 -9.61877714114153e-06 0.000161946401298225 -0.000114385346762518
"292" 0.00037947116388933 0.000102272518720887 6.52061867761045e-05 8.71858208156473e-05 0.000128482358727612 0.000193710144102436 0.000107743277362402 0.000173805905837303 -2.62913828787429e-05 0.000100719089063398 1.32325899467517e-05 3.03600716709658e-05 -0.000125498645436016 9.01708238767305e-06 0.00016104745477443 -0.000124405577630997
"293" 0.000374777635964319 8.85379388439399e-05 5.61960900207303e-05 8.80028793667189e-05 0.000106715427935838 0.000185405468876072 0.000105598067346756 0.000163190937856958 1.8947971839286e-05 0.000115744161434377 3.33635990391895e-05 3.07326719888949e-05 -0.000118752558112645 2.75948119557647e-05 0.000159080296479046 -0.000134696106050617
"294" 0.000369148789857993 7.41086908726168e-05 4.67281654950116e-05 8.8631788543212e-05 8.39750630031454e-05 0.000176472247100902 0.000102936308455228 0.000151846608876294 6.43574505926569e-05 0.000130134844295152 5.30934541297406e-05 3.07784852475288e-05 -0.000112262958206174 4.60285216793916e-05 0.000156054806733124 -0.000145193228989997
"295" 0.000362624353181918 5.90514437209507e-05 3.68528205247602e-05 8.90987282398874e-05 6.03628012673574e-05 0.000166955196264238 9.97763680393498e-05 0.000139813511133964 0.000109745620028935 0.000143840943283777 7.23313372929069e-05 3.05122480878379e-05 -0.000106052923219937 6.42368761831384e-05 0.000151977060598605 -0.00015583294911158
"296" 0.000355251844927394 4.34370272065522e-05 2.66282805862661e-05 8.942579484613e-05 3.5991222640766e-05 0.00015690055228788 9.61298418976281e-05 0.000127150776565772 0.000154916351443144 0.000156811830540746 9.09884548731498e-05 2.99466926472816e-05 -0.000100147501461996 8.21350141993358e-05 0.000146863912358394 -0.000166554099595861
"297" 0.000347089052711826 2.73431440099476e-05 1.61118900354248e-05 8.96397069853214e-05 1.09728582502645e-05 0.000146357505029592 9.20156311675601e-05 0.000113916858995008 0.00019967253500994 0.000169003256057524 0.000108981083181805 2.90991055401285e-05 -9.45687194374661e-05 9.9640184519228e-05 0.000140732228008505 -0.000177294639505617
"298" 0.000338194538490402 1.08508295816526e-05 5.35634231059588e-06 8.97639923827024e-05 -1.45656546756703e-05 0.000135380281593574 8.74508049595438e-05 0.000100178684172619 0.000243821799408292 0.000180381813543695 0.000126226961557048 2.79858770442387e-05 -8.93346035483418e-05 0.000116669619079582 0.000133617346584923 -0.000187994530112305
"299" 0.00032862862961068 -5.95839107130747e-06 -5.57598185429605e-06 8.98235863417872e-05 -4.05088568412294e-05 0.000124027511793298 8.24658753462726e-05 8.59981626570494e-05 0.000287170228069249 0.000190912807143683 0.000142650212956609 2.6626896294524e-05 -8.44650897415785e-05 0.000133142534500383 0.000125547455734401 -0.000198599384310235
"300" 0.000318467132657845 -2.30006023576115e-05 -1.6627048173078e-05 8.98469158457688e-05 -6.67289618013819e-05 0.000112354819720401 7.70794261018021e-05 7.14484140613368e-05 0.000329525824341743 0.00020056958629795 0.000158176797438519 2.50437864381944e-05 -7.99770216981208e-05 0.000148982810526443 0.000116562911774317 -0.000209054145352859
"301" 0.000307775737165581 -4.01881766063895e-05 -2.77419765482005e-05 8.98564009744542e-05 -9.31024291554642e-05 0.000100425661837625 7.13231909912583e-05 5.66024642507777e-05 0.000370705684024442 0.000209333228964728 0.000172746735326277 2.32587013294623e-05 -7.58858927162928e-05 0.000164113065752076 0.000106712261161416 -0.000219305870818369
"302" 0.000296636839847658 -5.74328396176455e-05 -3.88676074840897e-05 8.98757070973693e-05 -0.000119500624506669 8.83057216368109e-05 6.52235718045029e-05 4.15405294413848e-05 0.00041053274968153 0.000217191515617536 0.00018630042652386 2.12959710005682e-05 -7.22008772742572e-05 0.000178464134845263 9.60478306938274e-05 -0.000229309456986628
"303" 0.000285118664021004 -7.46474974770035e-05 -4.99451660800704e-05 8.99295666767071e-05 -0.000145804034622005 7.60556906502725e-05 5.8812623450282e-05 2.63335869126001e-05 0.000448837011433438 0.000224134119034613 0.000198786157844091 1.91799076013808e-05 -6.89308703054678e-05 0.000191968178211988 8.46203717172966e-05 -0.000239021810588974
"304" 0.000273305247664023 -9.17456514779361e-05 -6.0922516309334e-05 9.00356389141471e-05 -0.000171887759118 6.37422151633972e-05 5.2120925705023e-05 1.10621556503638e-05 0.000485458691618942 0.000230162252344787 0.000210159480981685 1.69366125619894e-05 -6.6085243591012e-05 0.000204565481953128 7.24969490058716e-05 -0.00024840166384957
"305" 0.000261272873129762 -0.000108642926719464 -7.17550941743696e-05 9.02149826921911e-05 -0.000197639414660784 5.14303339380845e-05 4.51832495979295e-05 -4.19655936844308e-06 0.00052025046283154 0.000235280713478233 0.000220387677061608 1.45934899330057e-05 -6.36649711623631e-05 0.000216200084611437 5.97356566090226e-05 -0.000257416785064346
"306" 0.000249097941837897 -0.000125257981276241 -8.23903940433677e-05 9.04846788226112e-05 -0.000222938859498731 3.9181467265335e-05 3.80305893323958e-05 -1.93660765603746e-05 0.000553074709507309 0.000239501713093254 0.000229444894231541 1.21776823464247e-05 -6.16711396676365e-05 0.000226823356841083 4.64118942211756e-05 -0.000266035960378867
"307" 0.000236859206297778 -0.000141506646384553 -9.27917280027301e-05 9.08578205152019e-05 -0.000247682969073441 2.70592533714216e-05 3.06962190891376e-05 -3.43699478956885e-05 0.000583809368418321 0.00024284270496012 0.000237306705051598 9.71517284626215e-06 -6.01011575421533e-05 0.000236389664323739 3.25938296340168e-05 -0.000274234766833236
"308" 0.000224631306087327 -0.000157314659548354 -0.000102917017162607 9.1346008215361e-05 -0.000271765558253104 1.512762015588e-05 2.32135277911606e-05 -4.91349623661185e-05 0.000612346607773864 0.000245326975364396 0.000243969659285352 7.23534168386506e-06 -5.89459602935325e-05 0.000244866209809033 1.83564772454917e-05 -0.00028199070234255
"309" 0.000212483669791285 -0.000172611978187922 -0.000112728682587796 9.19624260220881e-05 -0.000295092369348594 3.43964032092806e-06 1.56148256522244e-05 -6.35924240951494e-05 0.000638592988810232 0.000246980560370759 0.000249429684603361 4.76872766586222e-06 -5.81989746640022e-05 0.000252220047095815 3.77335709617993e-06 -0.000289290234043349
"310" 0.000200487596019264 -0.000187326962885172 -0.000122199940320768 9.27085363652663e-05 -0.000317578624928955 -7.94381909712274e-06 7.93479971315517e-06 -7.76703361689725e-05 0.000662467427485975 0.000247840352741291 0.000253689683873082 2.34169564588815e-06 -5.78426308536735e-05 0.00025843363502847 -1.10737610695468e-05 -0.000296120308693517
"311" 0.000188708289637897 -0.000201401505092605 -0.000131300552127336 9.35894432490899e-05 -0.000339137756251581 -1.89720337232828e-05 2.03621956686439e-07 -9.13074945001632e-05 0.000683911685060887 0.000247942584377637 0.000256770065988182 -1.88051789535126e-08 -5.78638475036404e-05 0.000263490150522352 -2.61142848430514e-05 -0.000302477321840897
"312" 0.000177206504853258 -0.000214774350083678 -0.000140007340831222 9.46044687104643e-05 -0.000359702218161333 -2.95960308155432e-05 -7.54958434716282e-06 -0.000104440059061714 0.000702879958931629 0.000247329569068605 0.000258690033456747 -2.28481731541929e-06 -5.82417330131632e-05 0.000267384468188993 -4.12636469999565e-05 -0.0003083568518385
"313" 0.000166036194654157 -0.00022739785937195 -0.000148305319675714 9.57510925818939e-05 -0.000379203223252034 -3.97699205006706e-05 -1.52956062645215e-05 -0.000117017385507749 0.000719342318213419 0.00024605172523844 0.000259481181915858 -4.42847694809682e-06 -5.89515389289906e-05 0.000270118697656583 -5.64427885151101e-05 -0.000313763384766138
"314" 0.000155250633979488 -0.000239227233432255 -0.000156175201719792 9.70234301238333e-05 -0.000397591854732019 -4.94498041065626e-05 -2.30072855826178e-05 -0.000128986076549216 0.000733288570649133 0.000244152614159349 0.000259178234206134 -6.42256572419546e-06 -5.99673215135981e-05 0.000271699580874834 -7.15804485718502e-05 -0.000318701755279939
"315" 0.000144894291299997 -0.000250221905042927 -0.000163611793495118 9.84122740760527e-05 -0.000414819327554783 -5.8601103985143e-05 -3.06556718272938e-05 -0.00014029989828629 0.000744724617786943 0.000241692954230189 0.000257824608447787 -8.24448634343986e-06 -6.1260910974097e-05 0.000272144771819948 -8.66020328657602e-05 -0.00032318370117944
"316" 0.000135006405609001 -0.000260355386566322 -0.000170604462879208 9.99049168467287e-05 -0.000430853022394574 -6.71896913132116e-05 -3.8219853737465e-05 -0.000150922505450956 0.00075366636762297 0.000238720304978548 0.000255472874892405 -9.86619737546163e-06 -6.27971532263018e-05 0.000271476278970812 -0.000101430963340344 -0.000327221881501547
"317" 0.000125622271404386 -0.000269598984103068 -0.000177156416488221 0.000101486618926949 -0.00044566110967838 -7.51898200510365e-05 -4.56729655912266e-05 -0.000160812780046946 0.000760152402429123 0.000235298955338866 0.00025217673733668 -1.12650782876014e-05 -6.45428203025991e-05 0.000269724673215089 -0.000115996466168628 -0.000330835253430297
"318" 0.000116764902286094 -0.000277937144252667 -0.000183265696081161 0.000103139309860289 -0.000459228236509697 -8.25735885676609e-05 -5.30002459690957e-05 -0.000169952135794959 0.000764233508601704 0.000231483313676391 0.000247995381861427 -1.24217613934849e-05 -6.64624881265021e-05 0.000266926361584837 -0.000130230962907499 -0.000334040001764243
"319" 0.00010845936398268 -0.000285357066631952 -0.00018893920099058 0.000104843246807874 -0.00047154544112645 -8.93272104072771e-05 -6.01796641243706e-05 -0.000178309898286714 0.000765972986514583 0.000227333871455086 0.000242992422686028 -1.33127506694536e-05 -6.85145409747277e-05 0.000263122820809762 -0.00014407485677766 -0.000336862244972098
"320" 0.000100719072401967 -0.000291856465436493 -0.000194181295169246 0.000106575309157096 -0.000482609816489681 -9.54358745883221e-05 -6.71961495116899e-05 -0.000185872818265183 0.000765448552232867 0.000222914777845885 0.000237237033867486 -1.39198788556297e-05 -7.06576157448326e-05 0.0002583667087099 -0.000157462584966136 -0.00033932310357725
"321" 9.3553748526879e-05 -0.000297438560950265 -0.000199005078666939 0.000108315188971436 -0.000492432523057201 -0.000100887169932496 -7.40329266931859e-05 -0.000192632348427047 0.000762746219852316 0.000218283181157157 0.000230797221466035 -1.42228249879716e-05 -7.28498326775715e-05 0.000252709186839515 -0.000170340672551364 -0.000341448203579722
"322" 8.69633017177803e-05 -0.000302109636079713 -0.000203420525359558 0.000110032032120224 -0.000501030214565416 -0.000105683411832974 -8.06786883025858e-05 -0.000198582345759157 0.000757970227845451 0.000213502782808747 0.00022374711878967 -1.42095250779504e-05 -7.50474495068739e-05 0.000246209782611831 -0.000182657675775495 -0.000343264462297071
"323" 8.09482006824753e-05 -0.000305886891833085 -0.000207447389378124 0.000111704635767392 -0.00050842100459859 -0.000109819996190006 -8.71188437777406e-05 -0.00020372442650657 0.000751224786097548 0.00020863026620284 0.000216157341544236 -1.38607718901502e-05 -7.72086847778469e-05 0.000238927947761193 -0.000194367322594606 -0.000344797487929156
"324" 7.54967885540582e-05 -0.000308788217850095 -0.000211096914169517 0.000113302122533306 -0.000514637480439506 -0.00011330438039552 -9.33493864357742e-05 -0.000208065871289025 0.000742625308845769 0.000203721976161581 0.000208102551777578 -1.31668991187548e-05 -7.92839098290894e-05 0.000230934256163464 -0.000205425580581365 -0.000346074302171467
"325" 7.05956827870084e-05 -0.000310845094615926 -0.00021439141544906 0.000114799809321082 -0.00051971652019409 -0.000116143187968871 -9.93567708159692e-05 -0.000211619993109198 0.000732299371598348 0.00019883657757838 0.000199658663012616 -1.2114847163311e-05 -8.12298377136005e-05 0.000222295974803158 -0.000215795755457094 -0.000347119215447103
"326" 6.62257289218569e-05 -0.000312080192907175 -0.000217344326626742 0.000116168303396299 -0.000523699205486862 -0.000118353448914825 -0.00010513750508943 -0.000214403685444481 0.000720370184319858 0.000194026814764647 0.000190894267005168 -1.0697999920093e-05 -8.30042193557416e-05 0.000213084876467809 -0.000225446622965872 -0.000347961354741516
"327" 6.23675675134972e-05 -0.000312537203143515 -0.000219971759466609 0.000117382097914692 -0.000526629388596559 -0.000119948373952263 -0.00011068593520782 -0.000216441694659431 0.000706973367658965 0.000189345999295178 0.00018188317904201 -8.90593297759523e-06 -8.45600032591455e-05 0.000203376093308752 -0.000234350983414196 -0.00034862022775329
"328" 5.89889837244157e-05 -0.000312249007926965 -0.0002222986331995 0.000118412268200492 -0.000528565116826414 -0.000120951288955146 -0.00011599795127484 -0.000217763767082872 0.000692237844884912 0.000184838711658567 0.000172690619815906 -6.73710926710948e-06 -8.58572640781756e-05 0.000193241091853123 -0.000242484892975053 -0.000349120071687018
"329" 5.60627972968297e-05 -0.00031126119689591 -0.000224336177994722 0.00011923682317029 -0.000529553798999844 -0.000121382289573841 -0.000121071466050351 -0.000218394990928467 0.000676299933579909 0.000180550792695625 0.000163384349897024 -4.18409232865739e-06 -8.68538995189287e-05 0.000182757400890327 -0.000249833829900142 -0.000349480115839505
"330" 5.35546750488083e-05 -0.000309618416635631 -0.000226099660184795 0.000119833554956624 -0.00052965546503459 -0.000121269275956304 -0.000125900521581263 -0.000218377805869231 0.000659294005265233 0.000176524945832734 0.000154027763941342 -1.24813701108123e-06 -8.7508523849334e-05 0.000171998965613438 -0.000256387608564029 -0.000349719571581538
"331" 5.14273110242065e-05 -0.000307368015743399 -0.000227608112020338 0.000120179231526859 -0.000528928704169422 -0.000120642717647256 -0.000130484031346596 -0.00021774536955962 0.000641353249662839 0.000172795409824923 0.000144678050026976 2.07018017388774e-06 -8.77893925685142e-05 0.000161038191901414 -0.000262141607054905 -0.000349853324245457
"332" 4.96485877591652e-05 -0.000304558703166598 -0.000228872848435003 0.000120257249210233 -0.000527434515908933 -0.000119531695539825 -0.000134822051116666 -0.000216544056543312 0.000622605141259952 0.000169401040513923 0.000135389047400203 5.76726454868599e-06 -8.76598639279959e-05 0.000149949297872993 -0.000267090051421247 -0.000349893212106479
"333" 4.81733158769902e-05 -0.000301241641299303 -0.000229904783156933 0.000120050910433718 -0.000525232654248162 -0.00011796794070961 -0.000138915031127338 -0.000214813804388826 0.000603176430638769 0.000166364016418465 0.000126208941362833 9.83807601609831e-06 -8.70909029736415e-05 0.00013880168808343 -0.000271237263768001 -0.000349851025461476
"334" 4.69658106158823e-05 -0.000297464967693801 -0.000230711289800092 0.000119547842786022 -0.000522386781048819 -0.000115988996749499 -0.000142761450570106 -0.000212607433041363 0.000583182962901357 0.000163711009563596 0.000117181003223756 1.4274720343001e-05 -8.60538743906693e-05 0.000127665951865053 -0.000274595302372302 -0.00034973315399484
"335" 4.59861820242103e-05 -0.000293282055742278 -0.000231303549386767 0.000118739504770846 -0.000518954119342609 -0.000113628558239137 -0.000146358685541359 -0.000209969725485453 0.000562739517618401 0.000161461255281771 0.000108347816674942 1.90659615408141e-05 -8.45306616135008e-05 0.000116601121319976 -0.000277176920262423 -0.000349544546514598
"336" 4.51978582576569e-05 -0.00028873751791146 -0.000231677537935482 0.000117620493124868 -0.000514994408826264 -0.000110920002131152 -0.000149706760395495 -0.00020694973165502 0.000541954747076834 0.000159630341938813 9.97391324009205e-05 2.42004681401237e-05 -8.24988063164989e-05 0.000105671261124889 -0.000278998288359777 -0.000349286344896957
"337" 4.45591994722831e-05 -0.000283881490995046 -0.000231841776058295 0.000116188243926603 -0.00051056542587888 -0.000107905157303616 -0.000152809739144425 -0.000203598988209887 0.000520924621647258 0.000158225671794119 9.1378442011922e-05 2.96636316136994e-05 -7.99482877711e-05 9.49352670162797e-05 -0.000280079939863896 -0.000348957006834983
"338" 4.40375574060368e-05 -0.000278758663229253 -0.000231793726675546 0.000114444417006384 -0.000505719794903092 -0.000104616250166939 -0.000155659760436226 -0.000199967609451896 0.000499740744109196 0.000157255347805937 8.32940492322456e-05 3.5436615150514e-05 -7.68681225930695e-05 8.44420408847352e-05 -0.000280447837749951 -0.000348551073687738
"339" 4.35982739315271e-05 -0.000273415123081066 -0.000231529098369522 0.000112394513946355 -0.000500509357676774 -0.00010109294420175 -0.000158261330364038 -0.000196103600203807 0.000478482311401302 0.000156716886801742 7.54970158666352e-05 4.15012169427295e-05 -7.32552877055986e-05 7.42417480290169e-05 -0.000280131642542643 -0.0003480620884409
"340" 4.3209435915363e-05 -0.00026788831328981 -0.000231038220933063 0.000110050245176318 -0.000494982526869152 -9.73664349313826e-05 -0.000160609568696521 -0.000192058267683629 0.000457221834351243 0.000156603447137901 6.79993787416474e-05 4.78358814590396e-05 -6.91121021758027e-05 6.43742925052439e-05 -0.000279162224999934 -0.00034748055620346
"341" 4.2842967035499e-05 -0.000262213808982006 -0.000230318734318687 0.000107420484866827 -0.000489181505576948 -9.34771807909556e-05 -0.000162706542793227 -0.000187880551780363 0.000436023714348251 0.000156908712409723 6.08005090124397e-05 5.44161213547322e-05 -6.44448250961779e-05 5.48793336687408e-05 -0.000277570654530607 -0.000346793711440919
